Time,Force,Position
22.9191,5.025434058765455,0.1610458017858373
22.923876,5.138960597362128,0.1609802261501578
22.92626,5.181270981285517,0.1609759788492683
22.928644,5.228660293604117,0.160505492529268
22.93104,5.268558747189856,0.1597910684823043
22.935808,5.271029274502966,0.1594957168510113
22.942972,5.256413956515972,0.1594776317166515
22.945372,5.259441666478653,0.1592958174896859
22.947756,5.266845664986506,0.1590393425311271
22.95014,5.276064772785672,0.158801705962801
22.95254,5.286260372114991,0.1586426711716593
22.954928,5.306931110027349,0.1583020936235677
22.957308,5.334120006858153,0.15782980528626
22.959724,5.357863780703566,0.1574176246734255
22.962112,5.376252878615786,0.1571604644972548
22.964492,5.395293602834064,0.156914032258321
22.966888,5.408607564066812,0.1567848795738029
22.969276,5.423179451941301,0.1565571809602023
22.971656,5.439009266457532,0.1562295111848896
22.978824,5.450787657652687,0.1560520541962656
22.98122,5.455256493996475,0.1560232708822865
22.983608,5.467873502952791,0.1557915892188188
22.985992,5.474484209669856,0.1557053097919615
22.988388,5.48733353605165,0.1555149821900995
22.990776,5.5138708065763975,0.1550701162353811
22.993156,5.5385457459815886,0.1546689731397845
22.995552,5.558472309789271,0.1543205931032135
22.99794,5.574302124305503,0.1540214646430617
23.000324,5.59362428363537,0.1536220535202323
23.00272,5.606008975166208,0.153376084760036
23.005108,5.6133657518458175,0.1531977906122252
23.007488,5.61969881516703,0.1529946493110652
23.012272,5.620771646211539,0.1528226148654311
23.014656,5.625195156584953,0.1527029651719788
23.017052,5.631713315503402,0.1525795824800737
23.01944,5.641024971101186,0.1524038832394794
23.021824,5.650708713751307,0.1522512406566395
23.02422,5.664908514573458,0.152018654323737
23.026612,5.681482503194364,0.1517623410028634
23.028992,5.696194160695714,0.1515437374693756
23.031388,5.7059704511444505,0.1514331430535775
23.043324,5.7188178816683735,0.1513915511023572
23.048112,5.723938344318221,0.1513717968821589
23.050492,5.729897424729227,0.1512954490897408
23.052892,5.737951153685268,0.1512183755210173
23.05528,5.748239300813205,0.1511308992473033
23.05766,5.765185376486448,0.150922075557193
23.06006,5.791071020705139,0.1505323700647813
23.062444,5.818958765670245,0.1501101986789213
23.064828,5.852061416941684,0.1495817208138249
23.067224,5.880648010041092,0.1491207366637932
23.069612,5.911004386461439,0.1485958799843912
23.071996,5.941919841389227,0.1480399424199325
23.074392,5.974046001130514,0.1474557923348399
23.07678,6.00631193049866,0.1468644763169973
23.07916,6.042582061359641,0.146195000096963
23.081556,6.0782931137131815,0.1455688916565814
23.083944,6.121733029798667,0.1448128863262113
23.086324,6.165684802563352,0.1440760802666457
23.088724,6.212150532753651,0.1433169206818081
23.091112,6.25861626294395,0.1425532700507421
23.093492,6.297492899029162,0.1419237115468058
23.095888,6.336649074368094,0.1412766197912663
23.098276,6.374874084147249,0.140650747932222
23.10066,6.411795841314287,0.1400233806405432
23.103056,6.442898287697178,0.1394472820405389
23.105444,6.4691125888557,0.1389197158399062
23.107824,6.490019435909272,0.1384660581779204
23.110224,6.506130685537094,0.1380920084607657
23.112612,6.516654941806245,0.1378025736276857
23.114992,6.5319747955011485,0.1374386561646525
23.117388,6.545013009195914,0.1371293750612987
23.11978,6.55791145326382,0.1368313823373098
23.12216,6.569878731771948,0.1365486230449243
23.12456,6.581054614347156,0.136270803102952
23.126948,6.587714438750335,0.136048243346401
23.129332,6.59106890979498,0.1358517906239056
23.131728,6.5873933652419785,0.135732671892972
23.134116,6.5834855032635,0.1355858242029753
23.1365,6.578414158299766,0.13542349867381
23.138896,6.575903992589889,0.1351967274235119
23.141284,6.574604531693511,0.1349408697509432
23.143668,6.577169502663108,0.1346303013273001
23.146064,6.5801537825132845,0.1342973862449706
23.148452,6.580344565684126,0.1339993431739023
23.150832,6.581978371093945,0.1336979135587526
23.153232,6.583844493929241,0.1334243915397861
23.15562,6.5852913078839554,0.1331751014290857
23.158,6.588088596279029,0.1328893463743883
23.160396,6.589814949487463,0.1326229396938537
23.162784,6.586745705270147,0.13242522422581
23.165168,6.583304374000492,0.1322075896980495
23.167564,6.580422121238279,0.1319589853427212
23.169952,6.573954975863812,0.1317495252440894
23.172336,6.565485729742928,0.1315712014008562
23.174732,6.5600895195551,0.1313400176433559
23.177124,6.557626575673468,0.1310644736623349
23.179504,6.558608754777228,0.1307573700551705
23.181904,6.555446962761295,0.1305217364978818
23.184292,6.5481411996256655,0.1303572949730921
23.186676,6.53841402686304,0.130248642744626
23.189072,6.530269645966252,0.130132207905779
23.19146,6.519331768390128,0.1300505079206585
23.19384,6.5050413156272295,0.1300352786935956
23.19624,6.494195985849722,0.1299892887295893
23.198628,6.490288123871244,0.1298379368710026
23.201012,6.487870505959985,0.1296433596607773
23.203408,6.485080800996388,0.1294282070633819
23.2058,6.480288995286375,0.1292435774978629
23.20818,6.47642835513614,0.1290467910929585
23.21058,6.475221442038379,0.1288225152833717
23.212968,6.471872658567341,0.1286371693184058
23.215352,6.461446637670416,0.1285653354598666
23.217748,6.455676444572382,0.1284348183822712
23.220136,6.455213705579295,0.1282505758806849
23.222516,6.454983284011687,0.1280954132998887
23.224912,6.45368192725744,0.1279600759628757
23.2273,6.447445203450582,0.1278982364009006
23.229684,6.445724537815755,0.1277867365887158
23.232084,6.449171556659016,0.1276296875867282
23.234472,6.454341136994976,0.1274576382023187
23.236856,6.458998860651736,0.127273575998616
23.239252,6.459792152442523,0.1271432804925837
23.24164,6.462447775352866,0.1269893976292052
23.244024,6.464172232703431,0.1268474475963621
23.24642,6.466036459680858,0.1266997771933314
23.248808,6.46347717628487,0.1266363821553282
23.251192,6.463292080687636,0.1265633698574615
23.253588,6.467623043262433,0.1264430451930986
23.255976,6.475399128822623,0.1262951834736255
23.25836,6.4875987247562295,0.1260669904392451
23.260756,6.504593918115585,0.1257783765925249
23.263144,6.531180306326446,0.1253672806472237
23.265524,6.554553888977391,0.1250130733530366
23.267924,6.576484449389359,0.124661294796692
23.270312,6.597903153122129,0.1242980682208322
23.272696,6.618530460921981,0.123937748793122
23.275092,6.645164070961084,0.1234917239469203
23.277484,6.670075119507491,0.1230613366476563
23.279864,6.693543145814921,0.1226310348744796
23.28226,6.7160800065625725,0.1222120030265949
23.284648,6.736195457683227,0.1218430831893702
23.287032,6.762968837349191,0.1213963184874344
23.289428,6.791092691455513,0.1209186945050444
23.291816,6.817214444815418,0.1204674882950825
23.294196,6.838121291868991,0.1201018109743894
23.296596,6.863451649295979,0.1196561400835738
23.298984,6.884265948550935,0.119253138063282
23.301364,6.90657049187311,0.1188181108160165
23.30376,6.925429912209892,0.1184099440431212
23.306152,6.94014536142698,0.1180677586878939
23.308532,6.950065213218316,0.1177820440381851
23.310932,6.953606675718064,0.1175572043772453
23.31332,6.959709317471671,0.1172773237822183
23.3157,6.96259915366536,0.1170473552126934
23.3181,6.963486889112636,0.1168429813577281
23.320488,6.967168121239244,0.1166112126126837
23.322868,6.968475165567098,0.1163867863867787
23.325268,6.9689908139620345,0.1161640942240202
23.327656,6.972579498290027,0.1159012478448422
23.330036,6.976587491498599,0.1156170926531108
23.332436,6.98194595914753,0.1153010506678859
23.334824,6.980786267878013,0.1150485876013992
23.337208,6.979486806981637,0.1148041216506141
23.339604,6.982331317204952,0.1145030775311706
23.341996,6.984524201122211,0.1141953891463215
23.34438,6.988579416159027,0.1138725511497939
23.346776,6.996499063061815,0.1135070858699441
23.349164,6.997061933284995,0.1132459854156845
23.351544,6.998695738694811,0.1129691066119696
23.353944,6.999118839291131,0.1127148178257406
23.356332,7.001264501380146,0.1124497515291346
23.358712,7.005784351267916,0.1121800471566465
23.361112,7.008953726715328,0.1119411431182511
23.3635,7.015196138095794,0.1116621433897597
23.36588,7.025302981342234,0.1113422833456704
23.368276,7.033547493469117,0.1110410535877922
23.370664,7.04016199190192,0.1107838106016429
23.373048,7.048778591081139,0.110503400058652
23.375444,7.054042615073585,0.1102777366394555
23.377832,7.061168970185585,0.1100371081653727
23.380216,7.07215975716356,0.1097587665619373
23.382612,7.089017076753925,0.1094196465875027
23.385,7.106014165971152,0.1090760306521718
23.387384,7.119938219255323,0.1087711995675155
23.38978,7.13423435959183,0.1084844511686046
23.392168,7.143455363248866,0.1082586107827989
23.394552,7.15360753246568,0.1080267505890766
23.396948,7.168695068735106,0.1077420350954662
23.399336,7.183503065750811,0.1074718040702996
23.40172,7.198450832393377,0.1071938845521415
23.404116,7.215820008662939,0.1068751385076596
23.406504,7.232677328253304,0.1065448374703717
23.408888,7.248603482283891,0.1062219905587909
23.411284,7.261456600381422,0.1059354501821042
23.413672,7.272167848105677,0.1056789458195992
23.416056,7.279526520643155,0.1054711930066537
23.418456,7.289958229113688,0.1052277223878432
23.420844,7.303183434263557,0.1049650096907003
23.423224,7.310542106801037,0.1047579167797579
23.425624,7.3146879737786,0.1045943029001281
23.428012,7.31468986963647,0.1044813176590595
23.430396,7.308545693628228,0.1044396107308253
23.432792,7.301190812806489,0.1044184652376436
23.43518,7.293696162357888,0.1044040971957592
23.437564,7.291044331163284,0.1043065917105148
23.43996,7.288532269595538,0.104201930943071
23.442352,7.286159977654652,0.1040909894708821
23.444732,7.280202793101514,0.1040020157624314
23.447128,7.273174673361738,0.1039268237859191
23.449516,7.268940050301295,0.1038301512162107
23.4519,7.262423787240716,0.1037676019687195
23.454296,7.256559150486195,0.1037111539807334
23.456684,7.254838484851369,0.1036070862922639
23.459068,7.257401559963094,0.1034491840909761
23.461464,7.26145487914204,0.1032586118311905
23.463852,7.273004744627456,0.1029752000497
23.466236,7.282832048620175,0.1027003631013721
23.468632,7.28371978406745,0.1025117049958364
23.47102,7.295177101754248,0.1021971641741621
23.4734,7.309847225000962,0.1018441058442419
23.4758,7.327869923434453,0.1014465944975165
23.478188,7.347754952987501,0.101033087605032
23.480568,7.367639982540547,0.1006200897077784
23.482968,7.389806652093731,0.1001749972499365
23.485356,7.406339106460003,0.0998104286746743
23.487736,7.423942496012912,0.0994315798853012
23.490136,7.437401914446127,0.0990991483102156
23.492524,7.451932268065981,0.0987529308557979
23.494908,7.469815196872611,0.0983625050387741
23.497304,7.485323937880487,0.0979736867654204
23.499692,7.498458491089609,0.0975837945094945
23.502076,7.508799547619395,0.0972129396730313
23.504476,7.5142052370965695,0.0968882971356059
23.506864,7.514675559521132,0.0966082902668175
23.509244,7.513004011572417,0.0963540284288745
23.511644,7.503603599891755,0.0961621878373523
23.514032,7.4909903826511774,0.0960076468913799
23.516416,7.483731841343792,0.0957887502037073
23.518816,7.4739121207825505,0.095615186271685
23.521204,7.461298903541974,0.0954593814963305
23.523588,7.447614751114756,0.0953155404277969
23.525988,7.435281073127899,0.0951464092212867
23.528376,7.421085064021486,0.0949886374279193
23.53076,7.40782022047485,0.0948248061618076
23.533156,7.401260527301766,0.0945761395563146
23.535544,7.397634100434877,0.0943045126462399
23.537928,7.39349581688879,0.0940181096876847
23.540324,7.389217763715845,0.0937374732514072
23.542712,7.38386877535626,0.0934697364938136
23.545092,7.378380017369816,0.0932077324934765
23.547488,7.375265447182124,0.0929472274460502
23.549876,7.37415297774085,0.0926688365041021
23.552256,7.376765170538689,0.0923686686221986
23.554652,7.384172960762282,0.0920348949691752
23.557044,7.394374247665207,0.0916858379845282
23.559424,7.409882988673084,0.091316458686771
23.561824,7.431537801547071,0.0908903924058025
23.564212,7.453984010353976,0.0904677767970807
23.566592,7.471634621735128,0.0900780672160778
23.568992,7.488214297929643,0.0896991995283128
23.57138,7.503443499683798,0.0893455789033891
23.57376,7.519464097370871,0.0889945122727229
23.57616,7.540559831737417,0.0886006042182771
23.578548,7.556999738305071,0.088233079136889
23.580928,7.562870062633199,0.0879721236286217
23.583324,7.565667351028273,0.0877393623158422
23.585712,7.573120467222238,0.0874817988549205
23.588096,7.581225209722261,0.0872314996514385
23.590496,7.58518598110259,0.0870193199710685
23.592884,7.590729544348755,0.0868099464253466
23.595268,7.598275208341337,0.0865854685503841
23.597664,7.607962742707197,0.0863403457570672
23.600056,7.613785845207083,0.0861208883738248
23.602436,7.61867778214719,0.085907574519359
23.604832,7.619845056848184,0.0857132407015564
23.60722,7.618358604496703,0.0855271006835611
23.609604,7.611657245838889,0.0853883903430607
23.612,7.6016033119943005,0.0852874518396715
23.614388,7.597415910762102,0.0851469117306789
23.616768,7.594019905462821,0.0850074208628744
23.619172,7.588901338670844,0.0848706790637583
23.62156,7.583503232625147,0.0847462987321725
23.62394,7.571959054713339,0.0846730083173217
23.626336,7.564651395719842,0.0845952139173139
23.628724,7.563489808592456,0.0844654084737678
23.631108,7.562328221465069,0.0843353252787968
23.633504,7.55702266321799,0.0842417238347221
23.635892,7.553998744971046,0.0841209989728343
23.638272,7.55311669709738,0.0839784996724364
23.640672,7.549301382917519,0.083855503437702
23.64306,7.543623737618101,0.083741644464956
23.64544,7.535664452318547,0.0836548569510854
23.64784,7.529707267765408,0.0835529510384782
23.650228,7.522399608771911,0.0834735836812216
23.652608,7.5180252160846095,0.0833749150203329
23.655004,7.5163045504497825,0.0832694708106612
23.657392,7.518588086307789,0.0831348716225892
23.659776,7.523293031792792,0.0829672424557403
23.662176,7.523062610225184,0.0828333602630528
23.664564,7.525625685336911,0.0826870640883222
23.666944,7.530330630821914,0.082520119517089
23.669344,7.533732323694804,0.0823377004300673
23.671732,7.53834472138119,0.0821378703917316
23.674116,7.540582931268821,0.0819329060626628
23.676512,7.544823241902871,0.0817145284692339
23.6789,7.555209624403031,0.0814497617187319
23.681284,7.569600208396026,0.0811572873261377
23.68368,7.579986590896187,0.0808932988298757
23.686068,7.590233203769486,0.0806349114952915
23.688452,7.603552852575842,0.0803525753579087
23.690852,7.6156617965686975,0.0800860449510929
23.69324,7.626048179068858,0.0798210903637545
23.695624,7.634432460822602,0.0795696528591008
23.69802,7.641885577016567,0.0793218160665701
23.700408,7.649059153956812,0.0790870314811685
23.702792,7.655581104590998,0.0788455713902252
23.705188,7.660380493732489,0.0786068865956359
23.707576,7.664760573993399,0.078386167010049
23.70996,7.669932050187226,0.0781668009653699
23.712356,7.671378864141941,0.0779626334692322
23.714744,7.674548239589352,0.0777577151966639
23.717128,7.6780897020891,0.077572689535624
23.719528,7.689360028320795,0.0773484808606988
23.721916,7.702213146418327,0.0771293249300464
23.7243,7.715997430075637,0.0769091076151925
23.726696,7.721773310747278,0.0767408262477222
23.729084,7.728620126605558,0.0765649720882818
23.731464,7.739471143956673,0.0763647699941655
23.733864,7.7552575283604,0.0761381855863561
23.736252,7.766899941644433,0.0759412632593861
23.738632,7.779753059741966,0.0757296372502503
23.741032,7.793257804145556,0.0755255181924957
23.74342,7.809695814855341,0.0753060052993526
23.7458,7.830417566311679,0.0750521143663695
23.7482,7.848206051461823,0.0748134000577152
23.750588,7.86385266623869,0.0745931383440369
23.752968,7.87628647545564,0.0743990434774776
23.755364,7.891933090232507,0.0741796972146234
23.757756,7.9127946113157055,0.0739238314640285
23.760136,7.93686893795882,0.0736423826929165
23.762536,7.958941163855517,0.073374155385009
23.764924,7.981292929005935,0.0730950819938559
23.767308,7.997498622290243,0.0728592823571696
23.769728,8.012912919641634,0.0726216352048187
23.772116,8.02339184994041,0.0724103977633337
23.774496,8.040808248038216,0.0721635355787222
23.776896,8.056222545389605,0.0719299203910977
23.779284,8.0674928716213,0.0717242247513703
23.781668,8.07489876598702,0.0715364069520559
23.784064,8.09287424259227,0.0712751679572226
23.786452,8.111920654384155,0.0710071130653176
23.788836,8.133108936549316,0.0707234510544092
23.791236,8.155228384274258,0.0704391617798113
23.793624,8.172552234573448,0.0701743896892652
23.796004,8.194159825619192,0.0698790463576048
23.798404,8.217769517411352,0.0695740465944279
23.800792,8.248596216256262,0.0692269652654071
23.803172,8.27369615211564,0.0689007908917933
23.805572,8.29185862017599,0.0686083912314964
23.80796,8.306668513049566,0.0683443776003377
23.810344,8.321757945176861,0.0680703526946091
23.812744,8.335916211744376,0.0677988132685638
23.815132,8.348491686446058,0.0675207957667502
23.817516,8.359204830028181,0.0672470822495225
23.819912,8.373782405476279,0.0669595162185128
23.8223,8.380211808311849,0.0667164484110036
23.824684,8.382916548908304,0.0664818663273199
23.82708,8.388973864691536,0.0662195912590124
23.829468,8.393168849355213,0.0659613234102999
23.831852,8.387865186966,0.0657657500679633
23.834252,8.381630359017011,0.0655724062991624
23.83664,8.374604135135105,0.0653760050952221
23.839024,8.364924184200722,0.0651804140710243
23.84142,8.358829125878593,0.0649821817324731
23.843812,8.34845032680991,0.064812272031443
23.846196,8.337419901435169,0.0646338324782212
23.848592,8.320103634567456,0.0644922098205002
23.850984,8.310656001058552,0.064320720344878
23.853368,8.308285604975538,0.0641166690223586
23.855772,8.311130115198853,0.0638839942334435
23.858156,8.311041359115974,0.0636609850123518
23.86054,8.31509657415279,0.063416908943031
23.862936,8.318220623629827,0.0631733403857583
23.865324,8.328282140905891,0.0629046675219696
23.867704,8.334758765569704,0.0626376900489982
23.8701,8.345379361353212,0.0623480253747669
23.872488,8.355999957136719,0.0620567606404925
23.874868,8.369414049599559,0.0617635887253635
23.877264,8.385761408368596,0.0614611990023991
23.879652,8.401317371204717,0.0611535243075817
23.882036,8.416593794787113,0.0608566242773808
23.884432,8.431730448742652,0.060565521720037
23.886816,8.44779826825797,0.0602735049922618
23.8892,8.459070490347534,0.059993609984239
23.891596,8.471972726131177,0.0596864734344893
23.893984,8.484735192287962,0.0593853240507826
23.896364,8.497777197698465,0.0590728048330491
23.89876,8.501739864936663,0.0587983700940816
23.901148,8.496623194002556,0.0585607064406416
23.903528,8.487642091202472,0.0583335074391218
23.905928,8.484667290641642,0.0580840491322973
23.908316,8.47647758377448,0.0578607790543976
23.910696,8.47336301358679,0.0576166512863431
23.913092,8.461448644480514,0.0573974135858066
23.91548,8.451396606493793,0.0571754757310617
23.91786,8.443626208507212,0.0569369398730206
23.92026,8.440791177573242,0.0566834225789336
23.922644,8.43208961402688,0.0564459716084751
23.925028,8.421525719360963,0.0562101946340187
23.927424,8.417247666188018,0.055944565137277
23.929812,8.416461957828709,0.0556529958471146
23.932196,8.416886954282894,0.0553514520458693
23.934592,8.419314051483502,0.0550446107557474
23.936976,8.423743249430522,0.054730302023383
23.939356,8.431617570362937,0.054424358672449
23.941752,8.438560725735574,0.0541192820127452
23.94414,8.446435046667988,0.0538129309172483
23.94652,8.457661942787178,0.0534838577935168
23.948924,8.475174680399341,0.0531258131965999
23.951312,8.49347881394442,0.0527725065983367
23.953692,8.505497105996529,0.0524477398109194
23.956088,8.516584232488858,0.0521219196665486
23.958476,8.525389718981053,0.051813326488209
23.960856,8.538711263645277,0.0515065490384431
23.963252,8.55282420424242,0.0512052075200288
23.96564,8.562793173719868,0.0509210735573782
23.968024,8.57062027282404,0.0506486661101129
23.97042,8.576445271181797,0.05038031461716
