Time,Force,Position
24.006884,5.639292959777515,0.1557278154012918
24.009272,5.642226226083711,0.1556690014276141
24.011652,5.647021823509462,0.1555780617056731
24.014052,5.663969795040576,0.1552270879905045
24.01644,5.679986601011911,0.1548867624693734
24.01882,5.694652932542887,0.1545938253097786
24.021216000000003,5.71555788373859,0.1541978780356316
24.023608,5.74391215941252,0.1536668347030061
24.025988,5.780414607698978,0.1529595133958723
24.028384000000003,5.813891241880623,0.1522746980488943
24.030772,5.849649516062406,0.1515418387732948
24.033156,5.887409890990604,0.1507721973864313
24.035552000000003,5.922656308493189,0.1500360267148804
24.03794,5.96153484043627,0.1492009613388766
24.040324,6.002462694954011,0.1482795163368577
24.042720000000003,6.037151929807026,0.147453328032461
24.045108,6.069606746488145,0.1466453998366506
24.047488,6.102061563169267,0.1458512759598377
24.049888,6.135307775783304,0.1450577245950678
24.052276,6.1692528365316415,0.1442253305944082
24.054656,6.200544170227507,0.1434263800655497
24.057056,6.223687331310842,0.1428002613804168
24.05944,6.248413284260014,0.142171602901311
24.06184,6.262057798290464,0.1417575726459592
24.064236,6.280917218627246,0.1412365153343767
24.066624,6.299404551911691,0.1406959378974412
24.069008,6.3204530644499926,0.1400889938007402
24.071404,6.337776914749183,0.1395423489235816
24.073792,6.34429886538337,0.1391834082858275
24.076172,6.348818715271141,0.1388589238822146
24.078572,6.346261327733021,0.138667317599207
24.08096,6.340491134634985,0.1385436396781607
24.08334,6.3396563085895625,0.1383341617258985
24.085736,6.334397972170725,0.1382221464723892
24.088124,6.327369852430948,0.1381746946869687
24.090504000000003,6.324718021236344,0.1380766151305343
24.10724,6.292739214553394,0.1380727987792825
24.109628,6.29199504044872,0.1380316413731319
24.112008,6.290179931157407,0.138012138484979
24.114408,6.289807844105069,0.137991669351868
24.116796,6.28994761373193,0.137983411047466
24.119176,6.291530405597766,0.1379745134934816
24.121576,6.3016334571284665,0.137841980777154
24.123964,6.317323502017838,0.1376330553515042
24.126344,6.3396714754525165,0.1373260290143794
24.12874,6.36602365038003,0.1369523582785047
24.131128,6.38688137974749,0.1366952731207608
24.133512,6.411883080234645,0.1363641186510581
24.135912,6.4342310536693255,0.1360595736516108
24.1383,6.456858566357726,0.135742116408354
24.14068,6.478322596060871,0.1354102339290591
24.143076,6.499274769084817,0.1350682388842062
24.145464,6.519575315802706,0.134722808349078
24.147848,6.542017732893873,0.1343349945905459
24.150244,6.568604121104732,0.1338778210847936
24.152632,6.592117473382536,0.1334768966516133
24.155012,6.618052235287337,0.1330200651352652
24.157412,6.645709558684836,0.1325505824613066
24.1598,6.670014306895558,0.1321484654940205
24.16218,6.693527659173363,0.1317530149987087
24.164576,6.714666823652412,0.1313751679274762
24.166968,6.734642505146208,0.130982264018055
24.169352,6.75103329402775,0.1306308160067231
24.171748,6.761697319923761,0.1303572031326224
24.174136,6.770126927647878,0.1300898581659594
24.17652,6.775111412386603,0.1298536351624628
24.178916,6.7798635796998505,0.1295887300384882
24.181304,6.779540610333626,0.1294040657676473
24.183688,6.783221842460235,0.1291576159667309
24.186088,6.785040743467286,0.1289348464283288
24.188476,6.786719874847478,0.1287200508110526
24.19086,6.788119466973949,0.1285210291174532
24.193256,6.789891146152757,0.1283416319857205
24.195644,6.794176782757182,0.1281452099196258
24.198028,6.7938065915627135,0.1280051267042394
24.200428,6.7939954788756864,0.1278344431340675
24.202816,6.79311343100202,0.1276826880117679
24.2052,6.790508821635657,0.1275453322646632
24.207596,6.793258888202489,0.1273165320921523
24.209988000000003,6.79670780290362,0.1270511015137973
24.212372,6.799085782418112,0.1268045835411631
24.214768,6.80397771935822,0.1265425845837479
24.21716,6.810871757044744,0.1262529082643393
24.21954,6.820699061037463,0.1259230382254296
24.22194,6.826661933164209,0.1256421180039393
24.224328,6.836629006783788,0.1253066827555521
24.226712,6.849110037828982,0.124955413806166
24.229108,6.868528536673206,0.1245113447384257
24.231492,6.888878201077207,0.1240609810897928
24.233876,6.910438570294708,0.1235879087992052
24.236272,6.932138709139067,0.1231084260884352
24.23866,6.95318722167737,0.122624534009757
24.24104,6.973723877536474,0.1221278571007338
24.24344,6.990815410410186,0.1216587403826269
24.245828,7.008838108843676,0.1211799440991224
24.248208,7.0248587065307495,0.1207279522717772
24.250604000000003,7.038737433844545,0.12030942032185
24.252992,7.049403355598426,0.1199410162904941
24.255376,7.055133910299695,0.1196382761847785
24.257772000000003,7.059234451306883,0.1193832271750956
24.26016,7.062124287500574,0.1191525005743988
24.26254,7.065945289254043,0.1189141879402043
24.26494,7.068555586194012,0.1187006892386797
24.267328,7.0731679838804,0.1184618526497206
24.269708,7.079502943059484,0.1182099741542143
24.272104,7.081833700745734,0.1180117779530038
24.274492,7.084164458431983,0.117814294269059
24.276876,7.0786265827594255,0.117713059964347
24.279276,7.068293109661116,0.1176653497358623
24.281664,7.054886600629751,0.1176595719959319
24.284044,7.045344523464361,0.1176088062268441
24.286444,7.037525007791666,0.1175465995011019
24.288832,7.032498988798306,0.1174571096015133
24.291212,7.027333200178086,0.1173745320619576
24.293612,7.022819037863924,0.1172971605349127
24.296,7.022029537788875,0.1171839714337208
24.298384,7.0252442392066605,0.1170210261273576
24.30078,7.033534077303916,0.1167920074819399
24.303168,7.043686246520731,0.1165445346818654
24.305548,7.052115854244848,0.1163071448859025
24.307944,7.060825001222685,0.1160548827581999
24.310332,7.062736450028355,0.1158798101550686
24.312716,7.064647898834025,0.1157048457162695
24.315112,7.066699117266554,0.1155240769208552
24.317500000000003,7.071543832378418,0.1153173174668033
24.319884,7.075177842676784,0.1151327732349668
24.32228,7.077089291482452,0.1149589610572653
24.324668000000003,7.084867272900512,0.1147175674312641
24.327052,7.098511786930961,0.1144097247965078
24.329448,7.113087466521188,0.1140917006401834
24.331836000000003,7.121796613499026,0.1138424050554381
24.334216,7.130365990850004,0.1136014455916778
24.336612,7.14014607301448,0.1133408855614454
24.339,7.152207795179094,0.113043245379984
24.34138,7.163757660664509,0.1127341695950157
24.343784,7.1753075261499255,0.1124279051974509
24.346172,7.186065995702424,0.1121253379782873
24.348552,7.195893299695142,0.1118329637544686
24.350952,7.204929207754942,0.1115417571933884
24.35334,7.216106986188022,0.1112204495639102
24.35572,7.232359901300573,0.1108420300363211
24.35812,7.257692154585428,0.1103608960930646
24.360508,7.287308148616838,0.1098274069793566
24.362892,7.313059710782276,0.1093332119250361
24.365288,7.33522638033546,0.1088638739084927
24.367676,7.358603754702143,0.1083715301153998
24.37006,7.383843460188384,0.1078651278857052
24.372456,7.409362704928344,0.1073509367638743
24.374844,7.432088452988968,0.1068635644659646
24.377224,7.45695607142287,0.1063494594102066
24.379624,7.480892524296994,0.1058389466055425
24.382012,7.500312918999086,0.1053572916467146
24.384396,7.511585141088651,0.1049676936976592
24.386792,7.518573622431662,0.1046339857041689
24.38918,7.524630938214893,0.1043079244688009
24.391564,7.52789475731879,0.1040047563520805
24.39396,7.530087641236048,0.1037163113778055
24.396348,7.528695632541054,0.1034497682298757
24.398728,7.528514328659559,0.1031626830707247
24.401128,7.530055586270759,0.1028689582113931
24.403516,7.524379836829211,0.1026581168007677
24.405896,7.509624749215356,0.1025429528699065
24.408296,7.487652654548753,0.1025083050574063
24.410684,7.469405222121264,0.1024454080285809
24.413068000000003,7.4530201208133295,0.1023683559737244
24.415464,7.44063922099823,0.102250317300041
24.42502,7.356381060914441,0.10214726628864
24.427404000000003,7.336503614792871,0.1021197074798445
24.429804,7.324215262776389,0.1020317047973888
24.432192,7.318864378558935,0.1018773368707373
24.434572,7.318309091767232,0.1016828594586357
24.436972,7.320267762401144,0.101481842252454
24.43936,7.324088764154613,0.1012678492753124
24.441744,7.326838830721442,0.1010668517249425
24.44414,7.329169588407693,0.1008839893706258
24.446528,7.329870332399863,0.1007403921926558
24.448912,7.330710846018893,0.1005912159359449
24.451308,7.332622294824563,0.1004279558050782
24.4537,7.338537945123065,0.1002241384319109
24.45608,7.346595465794845,0.0999926299221377
24.45848,7.35185948978729,0.0997819069200302
24.460864,7.358985844899291,0.099559007045917
24.463248,7.362899394451377,0.0993766466947422
24.465644,7.366673174376602,0.0992004887512261
24.468032,7.376593026167939,0.0989580076607994
24.470416,7.387444043519054,0.0987088658779631
24.472812,7.399645535310527,0.0984325982606652
24.4752,7.407563286355447,0.0982100595040178
24.47758,7.409614504787976,0.0980401652178411
24.479976,7.409803392100947,0.0978836035053315
24.482368,7.407198782734587,0.0977461954944032
24.484748,7.40100928075597,0.0976273951983575
24.487144,7.389744642097883,0.0975593041967142
24.489532,7.380342334559351,0.097478464452779
24.491916,7.380670991499185,0.097316192350238
24.494312,7.383281288439154,0.0971222291311671
24.4967,7.383889484632707,0.0969477341684962
24.49908,7.388222343065374,0.0967489343595144
24.50148,7.394417532617598,0.0965389377876653
24.503868,7.399402017356322,0.0963470611243519
24.506248,7.404106962841325,0.0961676231028546
24.508648,7.408020512393411,0.0959889375665412
24.511036,7.410863126758858,0.0958224355622799
24.51342,7.415568072243863,0.0956441151960333
24.515816,7.419062312915368,0.0954849934784789
24.518204,7.42469842396015,0.0953021865211973
24.520584,7.434990362803824,0.0950919006060679
24.52298,7.444351136087721,0.094886392984245
24.525368,7.456505406050951,0.0946633992936316
24.527752,7.468799445641043,0.0944348077113713
24.530152,7.483375125231271,0.0941765996100576
24.532544,7.501675467060611,0.0938963472611078
24.534928,7.524259549636508,0.0935663091284533
24.537324,7.545260840346566,0.0932360244249182
24.539712,7.558812806578399,0.0929549515979041
24.542096,7.572504542437091,0.0926693617440306
24.544496,7.582192076802952,0.0924168343221409
24.546884,7.591367754489612,0.0921528586068048
24.549264,7.598820870683578,0.091894794620255
24.551664,7.609486792437458,0.0916021037287997
24.554056000000003,7.622574123818336,0.0912746366107799
24.556436,7.63258841926616,0.090975567498338
24.558832,7.647026225087396,0.0906264058340832
24.56122,7.660160778296516,0.0902641206754396
24.5636,7.674366266692276,0.0898916209235179
24.566000000000003,7.682844992102508,0.0895557555521336
24.568384,7.686528120086985,0.0892531642628331
24.570768,7.695705693631516,0.0888902182686551
24.573164,7.701158604936932,0.0885464587981171
24.575552,7.705540581055711,0.0882137979368606
24.577932,7.707780686801212,0.087903621866891
24.580332,7.70722729586738,0.0876086694909905
24.58272,7.709746940866602,0.0872889199307437
24.585104,7.712406355492685,0.0869629052678591
24.587504000000003,7.714134604558988,0.0866408372568301
24.589892,7.714791918438655,0.0863301707656173
24.592276,7.720384599370933,0.0859831231661099
24.594672000000003,7.724766575489712,0.085653769434329
24.59706,7.727146450862074,0.0853392133024059
24.59944,7.730597261421074,0.0850159023051126
24.601836,7.732697597539716,0.0847157016227598
24.604224,7.735729099218135,0.0844100566116458
24.606604,7.731543593843806,0.0841652357539291
24.609004,7.728661341081593,0.0839355114857649
24.611392,7.727920958692658,0.0836865484866836
24.613772,7.735840605595445,0.0833881822694641
24.616168,7.743620482871373,0.0830952488399197
24.61856,7.748978950520305,0.0828364161557267
24.62094,7.759552324475569,0.0825338874347345
24.62334,7.772127799177249,0.0822180527110746
24.625728,7.786565604998486,0.0818947345450043
24.628108,7.804076446752778,0.0815492813130041
24.630508,7.814230511827461,0.0812666697468125
24.632896,7.823685728767843,0.0810127120591073
24.635276,7.836865607947338,0.0807438005745091
24.637676,7.851116422313472,0.0804663488685188
24.640064,7.864575840746688,0.0801881198154462
24.642448,7.879106194366542,0.0799014998244865
24.644844,7.896430044665731,0.0796038299356606
24.647232,7.908399219031727,0.0793537009309275
24.649612,7.919716767091667,0.0790959722314764
24.652012,7.930242919218688,0.0788355112414601
24.654400000000003,7.94556466877146,0.078549607691991
24.65678,7.960234792018174,0.0782569407936141
24.659176,7.972902814518472,0.0779799926576801
24.661564,7.976631268473323,0.0777589637344112
24.663944,7.981290887987954,0.0775342271944838
24.66634,7.981015140449971,0.0773380860435906
24.668728,7.977386817725213,0.0771757430194632
24.671112,7.972408020560096,0.077034144721699
24.673516,7.964495957088784,0.0769084756782033
24.675904000000003,7.952300152870918,0.0768191778405606
24.678288,7.9471815860789405,0.076682880975792
24.680684,7.94541559447374,0.0765137468143188
24.683072,7.940436797308624,0.0763719987728602
24.685452,7.935597769770366,0.076224831553506
24.687852,7.9323415340979455,0.0760826153026332
24.690236,7.928945528798666,0.0759463033421106
24.69262,7.924338818685887,0.0758244950660013
24.695016000000003,7.925226554133161,0.0756531458478461
24.697404,7.926765915886492,0.0754897313458065
24.699784,7.93016760875938,0.0753197835187766
24.702184000000003,7.93305744495307,0.0751367183198558
24.704568,7.933665641146625,0.0749762856335757
24.706952,7.930129866220484,0.0748446862176717
24.709352000000003,7.930598292787178,0.074688882069248
24.71174,7.928412992301396,0.0745363130875165
24.714124,7.9320942244280035,0.0743535100970571
24.716520000000003,7.940710823607224,0.0741451105666234
24.718908,7.951748832413442,0.0739092730414476
24.721292,7.966791042712494,0.0736507682452569
24.723688000000003,7.983975123384822,0.0733746690234931
24.726076,7.99622383700454,0.0731255959613789
24.728456,8.00674998913156,0.0728783430412328
24.730856,8.020488946818496,0.072606553690421
24.733244,8.029944163758879,0.0723681793893631
24.735624,8.03395215696745,0.0721410231494169
24.73802,8.035026883869827,0.071927815336451
24.740412,8.038523020399204,0.0716876248006198
24.742792,8.038666581741802,0.0714783524535313
24.745192,8.0388101430844,0.0712691549481091
24.74758,8.04388907147961,0.0710372137169854
24.74996,8.051761496554155,0.0707989598929236
24.752356,8.066059532748534,0.0705142516050714
24.754744,8.084641309689465,0.0701976427719878
24.757128,8.104014482563311,0.0698848750901878
24.759524,8.128183252862913,0.0695547992875986
24.761916,8.150769231296678,0.0692210402139599
24.764296,8.165626345998497,0.0689180352989935
24.766692,8.175268554393982,0.068648534308747
24.769084,8.180906561296634,0.0683995378815739
24.771464,8.184542467452868,0.0681601982557627
24.77386,8.192462114355656,0.0678906944228485
24.776248,8.199822682751003,0.0676429327149661
24.778632,8.200385552974184,0.0674211113114009
24.781032,8.204952624690197,0.0671791390876139
24.783416000000003,8.213104589018464,0.0669325772719674
24.7858,8.226331690026202,0.0666595995570898
24.788204,8.235414819914247,0.0664121170862478
24.790592,8.24570865461579,0.0661518604338451
24.792976,8.254279927824637,0.0658902426629753
24.795372,8.256053502861313,0.06565555803097
24.79776,8.250749840472103,0.0654566447676726
24.800144,8.23902056696306,0.0653021280693728
24.80254,8.224078487894102,0.0651691111651013
24.804928,8.210486883265505,0.0650182957840303
24.807312,8.195684573823407,0.0648800610368007
24.809708,8.178600624381172,0.0647607643211677
24.8121,8.167522977178187,0.0646138615075571
24.81448,8.157795804415562,0.0644483949051001
24.81688,8.149279336466435,0.0642698453673603
24.819268,8.144906839637002,0.0640680163199945
24.821648,8.141185969113629,0.0638760542366029
24.824048,8.135882306724417,0.0636766986200491
24.826436,8.137376342507373,0.0634539996896913
24.82882,8.139149917544053,0.0632216252162851
24.831216,8.144415837394366,0.062959446955161
24.833604,8.142604519818791,0.0627294373146696
24.835988,8.141864137429854,0.0624919107043041
24.838388,8.141123755040917,0.06225459813421
24.840776,8.144667113398535,0.0619906916474579
24.843156,8.14928140694279,0.0617194933738563
24.845552,8.160041772353159,0.0614181652152514
24.84794,8.174154712950303,0.0610916845957503
24.85032,8.194413725413556,0.0607374693737924
24.852716,8.209877140451058,0.0603963225969471
24.855108,8.224968468436222,0.060037217210927
24.857488,8.246345637914356,0.0596464525505487
24.859884,8.264789541086296,0.0592664902962517
24.862272,8.290031142430406,0.0588705784607038
24.864656,8.320208110827126,0.0584618608362969
24.867052,8.350524848850705,0.0580523257937282
24.86944,8.37418365832898,0.0576561458877444
24.87182,8.402265978180665,0.0572326592181824
24.87422,8.428765506166515,0.0568040551080722
24.876608,8.452331767846172,0.0563843441233833
24.878988,8.470822892846355,0.0559862756105742
24.881384,8.49573962896637,0.055553454317616
24.883772,8.523869170646298,0.0551053513198285
24.886156,8.553069647512867,0.0546537098977019
24.888552,8.5799884843793,0.0542214493649818
24.89094,8.609840587551925,0.053784292989515
24.893324,8.635828258858577,0.0533563110200549
24.89572,8.658742894232175,0.0529407365983252
24.898108,8.674720061806743,0.0525455603309307
24.900492,8.693350956433788,0.0521530558109183
24.902888,8.711842081433971,0.0517669164371824
24.905276,8.724047364941184,0.0514096297166323
24.90766,8.736112878821535,0.0510570096631012
24.910056,8.74030975934308,0.0507235115225355
