Time,Force,Position
25.46114800000001,5.230733144520904,0.1655347391885678
25.463584,5.319324163037358,0.1641918842832634
25.466027999999994,5.393671950619155,0.1628740206724231
25.46847200000002,5.446653943870033,0.1617271909241133
25.470920000000007,5.479758490999341,0.1608572868359568
25.473364000000004,5.494706257641908,0.1603360388784279
25.47580000000002,5.499923059806109,0.1600554625408972
25.478256000000016,5.507886136821403,0.1597727078023081
25.480700000000013,5.521436207195367,0.1593786311033705
25.48314400000001,5.537080926114364,0.1589787484882149
25.485592,5.563108235817784,0.1583713707246188
25.488044,5.596025791491988,0.1576671713821632
25.490488,5.638347550562594,0.1568342034600074
25.492940000000004,5.686628390044206,0.1558989678267681
25.49538000000001,5.731184567286705,0.1550451206144769
25.497828,5.764706527438724,0.1544067241246675
25.500271999999995,5.792361954978351,0.1539050999466506
25.50272000000001,5.810146648412757,0.1536192549668656
25.505164000000008,5.82476575811549,0.1533687409909753
25.5076,5.835427888153631,0.1531529855037149
25.51004800000001,5.840922333713686,0.1530094519651649
25.512500000000017,5.8440425914749845,0.1528896472307051
25.514948000000004,5.860246388901423,0.1524900011126302
25.517392,5.885901611552504,0.151918581435872
25.51982800000001,5.912068690882784,0.1513601556791702
25.522284000000013,5.943171137265675,0.1507022498844396
25.52472400000002,5.973062878835068,0.1500874638032479
25.527172000000007,6.000533210777463,0.1495434903504664
25.529616000000004,6.025210046040523,0.1490524740233839
25.53206800000001,6.048863167945187,0.1485387601612559
25.534516,6.060690676826455,0.1482159967683818
25.536956000000004,6.067210731602772,0.1479725704123445
25.53939600000001,6.067352397087502,0.1478296454626504
25.541840000000008,6.070754089960389,0.1475693856361622
25.544284000000005,6.073504156527219,0.1473052180500982
25.546728,6.080398194213744,0.1469523892602371
25.549172,6.086081527086769,0.1466312817976229
25.55161200000001,6.09935395406488,0.1461794748970135
25.554056000000003,6.1139296336551086,0.1457372789500047
25.5565,6.134232076230867,0.1451962540803759
25.55894800000001,6.16156453440427,0.1445612863531974
25.56140000000002,6.189408849256872,0.1439425331936228
25.563844000000017,6.208034056310308,0.1435229034439946
25.566304,6.222934601124631,0.143168501323305
25.568756000000008,6.237043750006035,0.1428194890139648
25.571203999999994,6.2492905677678845,0.1425019613893682
25.57364800000002,6.261677155156592,0.1421781555020395
25.5761,6.277975396239516,0.1417481354569968
25.578540000000004,6.292923162882083,0.1413552612027611
25.58099200000001,6.304378584711013,0.1410429610457309
25.58343600000001,6.321793086950947,0.1406646902697223
25.585880000000003,6.340231302549279,0.1403106929308589
25.588324,6.358529748520753,0.1399649690041712
25.59077200000001,6.369703735238092,0.1397985875374362
25.593212000000022,6.384974471246884,0.1395982663860682
25.59564800000001,6.404993582853183,0.1393710205097284
25.59809200000001,6.433021097445149,0.1390069399412404
25.60053200000001,6.456532553865085,0.1387046377437013
25.60297600000001,6.477669822486265,0.1384196098302476
25.605424,6.491590084054697,0.1382671043437935
25.607868,6.499923352264458,0.138193733604688
25.62742800000001,6.535207512305939,0.1381674747437208
25.62987200000001,6.541770997194761,0.1381580855441617
25.632316000000003,6.548893560591024,0.1381163217685091
25.63476,6.555411719509473,0.1380268902158672
25.637200000000007,6.560766395442666,0.1379219290982773
25.651872,6.528649714990725,0.1377949678111442
25.654315999999994,6.522505538982484,0.137778903101374
25.656768,6.520784873347657,0.1376707814467876
25.659204000000017,6.515991171779774,0.1376172036154719
25.66164800000001,6.509986765398394,0.1375922956881589
25.66408800000002,6.510268200509984,0.1374507008537623
25.66653200000001,6.5073840518899,0.1373270979198366
25.66897600000001,6.50454712509806,0.1371588314229251
25.671412000000004,6.507204643866276,0.1368778421776185
25.673856,6.509862162634488,0.1365963196288462
25.676296000000008,6.509865954350225,0.1363453518330224
25.678743999999995,6.508286954200128,0.1361039424650726
25.68119200000001,6.502471435131718,0.135900295448029
25.68364,6.49637637680959,0.1357126850004417
25.68608800000001,6.495868311846131,0.1354519532372829
25.68852800000002,6.494289311696033,0.1352119317942597
25.690972000000016,6.497785448225407,0.1348872140791884
25.693416000000013,6.505285786247616,0.1344974036691287
25.695864,6.518093578374773,0.1340479866328254
25.698308,6.53034229199449,0.1336318962270296
25.700748000000004,6.544732875987482,0.1331710362456268
25.70318400000002,6.5516741355022505,0.1328105138415329
25.70563200000001,6.555821898337683,0.1324879328094891
25.708072000000016,6.563182466733031,0.1321060245598134
25.710516000000013,6.569611869568601,0.1317358226036765
25.712964,6.572176840538198,0.1314223030457012
25.715404000000007,6.576743912254211,0.1310763243958645
25.71786,6.58410448064956,0.1306961489681916
25.72030000000001,6.587832934604411,0.1304004862743067
25.722740000000016,6.596217216358155,0.1300486708456942
25.725184000000013,6.604973585164235,0.1297166834134695
25.727632,6.614661119530094,0.1293744853507848
25.730076,6.630587273560681,0.1289698273846564
25.73252400000001,6.647304823524186,0.1285633214082067
25.73496,6.655874200875164,0.1282873776889069
25.737408000000016,6.663372643039503,0.1280305144245462
25.739847999999995,6.667937818897646,0.1278162291791614
25.74229200000002,6.669429958822735,0.1276510779304209
25.744732,6.668687680575929,0.1274880524678135
25.747168000000016,6.668224941582843,0.1273094681873146
25.74962400000001,6.670043842589895,0.1270854463104023
25.752072,6.674935779530002,0.1268116681924837
25.754520000000014,6.682341673895723,0.1265212952887278
25.756968,6.685883136395471,0.1262833214876306
25.759412,6.69063530370872,0.126018815471833
25.761864000000003,6.6969702628878025,0.1257472684133518
25.76430400000001,6.7030256828131645,0.1254918219032846
25.766744000000017,6.706147836432334,0.1252777063595233
25.769192000000004,6.710760234118721,0.1250215120631421
25.77164000000002,6.709925408073298,0.1248232414111087
25.774084000000016,6.7107205957219564,0.1245762001793968
25.776528000000013,6.706720185944859,0.1243894285130461
25.77896000000001,6.698063948368873,0.1242559368175084
25.781408,6.68768514930019,0.1241355764209794
25.783852,6.684383587657395,0.1239107722667342
25.78629600000002,6.680290630081682,0.1236880686800072
25.78874400000001,6.678199773252387,0.1234366890411591
25.79118,6.678902413102426,0.1231535503424817
25.79363600000002,6.683050175937859,0.1228444567838977
25.796080000000018,6.688920500265987,0.1225236544512272
25.79852,6.694930594220976,0.1221972543962699
25.80096800000001,6.701592314482023,0.1218769551843122
25.803416,6.7045293725039565,0.1215972766480516
25.80586400000001,6.712262027951642,0.1212609659976586
25.808312,6.716781877839412,0.1209761971328421
25.810752000000008,6.725725238100597,0.1206168285911209
25.813199999999995,6.73601907280214,0.1202267400586287
25.81565600000002,6.749106404183019,0.1198089370426168
25.81810000000001,6.762053965937036,0.1193997056302645
25.820540000000022,6.775513384370252,0.1190015930604693
25.82297600000001,6.790835133923023,0.1185891944147176
25.82542000000001,6.814816912767521,0.1180787627347008
25.82786000000001,6.839590087544938,0.1175663115645045
25.83030400000001,6.865294427882132,0.1170448673328649
25.832756000000018,6.8889966674729095,0.1165553853333395
25.83520000000001,6.917494504489439,0.116015342088696
25.83765200000002,6.945061175946189,0.1154879537462213
25.840096000000017,6.973047156283521,0.114942976436326
25.842536,6.999310575128155,0.1144127599120228
25.84498000000002,7.023199806174035,0.1138904045357078
25.84742400000001,7.045738562779556,0.1134008908306704
25.849872000000005,7.06762569307902,0.1129080386145617
25.85231200000001,7.090723528191981,0.1123907558162051
25.85475600000001,7.1078150610656925,0.1119476652402978
25.85720000000001,7.133054766551933,0.1114037197965699
25.859644000000003,7.151077464985424,0.1109571400565565
25.862088,7.167749688978556,0.1105421612629819
25.864532,7.183630517038769,0.1101318878866571
25.86696800000001,7.201653215472258,0.1096942783643342
25.86942400000001,7.221957553905886,0.1092203931615839
25.871864000000016,7.236115820473404,0.108823800862528
25.874303999999995,7.241474288122334,0.1085212403852764
25.87674800000002,7.246972525398125,0.1082121174528783
25.8792,7.253401928233695,0.1078960069918129
25.881648000000013,7.257968999949707,0.1075961022703151
25.884096,7.2583921005460255,0.1073489996281742
25.886532000000017,7.260258223381321,0.1071076890256115
25.888976000000014,7.261565267709176,0.1068943837886331
25.89142000000001,7.264315334276006,0.1066869237402775
25.893868,7.265575156775617,0.1065134796438364
25.896308000000005,7.267766144835005,0.10633282225741
25.898744000000026,7.270329219946732,0.1061719661682532
25.90119200000001,7.27740835323049,0.1059817929588162
25.903632000000016,7.286489587260666,0.1057688035045927
25.906080000000003,7.286072174237955,0.1056769279627371
25.908532000000008,7.290450358640995,0.1055410936084476
25.910976000000005,7.295619938976954,0.105404851708979
25.913432,7.298368109685915,0.105310330946177
25.915872000000007,7.29855510114102,0.1052642361832349
25.91831200000001,7.297391618155764,0.1052454704901285
25.92075600000001,7.300232336663342,0.1051841998251999
25.923212000000007,7.311872854089506,0.105038057570978
25.925652000000014,7.321371501142392,0.1049194360860436
25.92809600000001,7.330870148195279,0.1048017363295325
25.93052800000001,7.342231126367722,0.1046701889310957
25.932976,7.354663039726804,0.1045247019830246
25.935416000000004,7.363510060473632,0.1044012746688573
25.93786,7.368632418981347,0.1043060501968681
25.940300000000008,7.371101050436589,0.1042258457099719
25.942736,7.377434113757804,0.1041105067760515
25.94519200000002,7.383906946705879,0.1039892050562514
25.947644,7.389867922974754,0.1038554376818625
25.950088000000022,7.393966568124075,0.1037371170188183
25.95253200000002,7.399136148460033,0.1036053632497284
25.95498000000001,7.41273344066224,0.1033728848374165
25.957424000000003,7.425539336931529,0.1031424443454794
25.95987600000001,7.435831275775201,0.1029193106275831
25.962323999999995,7.446542523499455,0.1026760006175882
25.96476800000002,7.4556709793578735,0.1024325267043101
25.967216000000008,7.464008039283374,0.1021891108822251
25.969660000000005,7.470203228835596,0.101972708616445
25.97210000000001,7.470671655402289,0.1018049424515935
25.974536,7.472211017155621,0.1016232865592803
25.97698,7.46881501185634,0.1014880678509551
25.979423999999995,7.463416905810644,0.1013729041796457
25.98186800000002,7.461231605324861,0.1012184141081756
25.98432,7.461048405585497,0.1010437496330149
25.986752,7.465940342525604,0.1008161077467603
25.98920800000002,7.470040883532794,0.1005878994164109
25.991652000000016,7.471627467114368,0.100367227491745
25.994091999999995,7.46962915808369,0.1001662186178583
25.99653600000002,7.466839453120093,0.0999651557536855
25.998984000000007,7.4595336899844655,0.0997902067625484
26.001428000000004,7.454509566848976,0.0995830266502649
26.00386800000001,7.442827515168177,0.0994271025605104
26.006304,7.4277003405019855,0.0992830631193163
26.008748,7.414715036209071,0.0991127345563563
26.011192000000023,7.401078105610098,0.0989349953375353
26.01363600000002,7.392935620571178,0.0986869235456553
26.016076,7.391358516278948,0.0983584464298732
26.018516000000005,7.395275857546773,0.0979634512222343
26.02096800000001,7.400543673254956,0.0975437388119856
26.023412000000008,7.411305934523193,0.0970597485892248
26.025859999999994,7.429564742097897,0.0964916938817833
26.02830400000002,7.447311692993405,0.0959093155400159
26.030752000000007,7.459471650530244,0.0953634169041195
26.033200000000026,7.472050916947662,0.0948001456103129
26.03564,7.484118326685884,0.0942279932231182
26.03807600000001,7.501400642730438,0.0936061127835335
26.040524000000005,7.521895764334908,0.0929527094266408
26.042968,7.547326252991989,0.0922615503187642
26.04540800000001,7.572896511275932,0.0915645098996884
26.04785200000001,7.6003291006794305,0.0908546817537682
26.050296000000003,7.624688654149873,0.0901767934368758
26.05274,7.652912639486289,0.0894721302768987
26.055184,7.68379035187518,0.0887573512819136
26.057628000000022,7.716530395383627,0.0880375328693413
26.06008,7.753134870758049,0.0872949188012283
26.06252800000001,7.784384670199278,0.0866125685098656
26.06498400000001,7.804273491468063,0.0860344363517065
26.067428000000007,7.816433449004902,0.085509186200003
26.06986800000001,7.827382701728241,0.0850015225650892
26.07231200000001,7.83111494739883,0.0845584476666605
26.074780000000004,7.829352747509368,0.0841752902321623
26.077224,7.831175440232157,0.0837805922890657
26.079672000000016,7.836583025567202,0.0833737108756769
26.082108000000005,7.8386380357154675,0.0830031174693539
26.084552,7.836269535490321,0.0826795879513338
26.086996,7.825613093025788,0.082426220799958
26.08944400000001,7.808391269814561,0.0822400288577306
26.091880000000003,7.786745936229922,0.0821003630568895
26.09431600000002,7.766823164137978,0.081957179064498
26.096772000000016,7.747691787978952,0.0818150335947316
26.099211999999994,7.729212038125984,0.0816800472798669
26.10165600000002,7.708450648272878,0.0815705908918116
26.104108,7.689411819912471,0.081458214120798
26.106552000000026,7.666229020432368,0.0813791311197294
26.10900000000001,7.639553876138629,0.0813406694046393
26.111440000000016,7.616743163710866,0.0812794831016026
26.113884000000013,7.60086991908213,0.0811723792786098
26.11632800000001,7.588953654117984,0.0810744753096987
26.118776,7.576618080273257,0.0809940326501735
26.121220000000022,7.567076003107866,0.0809012020584906
26.12366,7.558465091502253,0.0808040652592864
26.12609600000001,7.547712309523363,0.0807266619565204
26.12854000000001,7.534957426798057,0.0806626641874825
26.13098400000001,7.524856271125225,0.0805927017135093
26.13342800000001,7.519550712878145,0.0804969703129169
26.135884000000004,7.524255658363147,0.0803326198930275
26.13832000000002,7.534966906087401,0.0801266452305091
26.140772,7.548890959371573,0.0798911915108818
26.143215999999995,7.561604307842245,0.0796724384978586
26.145656,7.574177886686057,0.0794600412395506
26.1481,7.585820299970089,0.0792514073811092
26.150552000000005,7.599464814000537,0.0790296478448704
26.152996,7.609244896165014,0.0788293131850148
26.155448000000007,7.620095913516129,0.0786187249612353
26.157892000000004,7.632157635680743,0.0783924127530674
26.160336,7.636210954859688,0.0782191536558279
26.162776000000008,7.639193338851996,0.0780561284305346
26.165220000000005,7.63887036948577,0.0778897572897562
26.167664,7.638826939373265,0.0777110735593504
26.17010000000002,7.640785610007178,0.0775196816913268
26.172544000000016,7.645817316574146,0.0773059440074829
26.174988000000013,7.652199497581473,0.0770715352671612
26.17743200000001,7.660304240081495,0.0768361766217797
26.17988400000001,7.673251801835514,0.0765421234868694
26.18232800000001,7.683545636537056,0.0762536972289878
26.184776,7.686762233812711,0.07601396597673
26.18722,7.68732510403589,0.0757790006698827
26.189660000000003,7.685885873512652,0.0755565805929845
26.192104,7.683795016683356,0.0753257003766312
26.194552000000016,7.682263238361501,0.075071910230623
26.196996000000013,7.683152869666645,0.0747890030338897
26.19944000000001,7.683251105038869,0.0745040992675022
26.201876,7.686701915597871,0.0741870190054705
26.20432400000001,7.694156927649705,0.0738477351872675
26.20676400000002,7.702682874888178,0.0735007955508484
26.209212000000008,7.719217225112319,0.0731054668331767
26.211656000000005,7.7369622801499585,0.0726974775743264
26.21409600000001,7.75857176705357,0.0722719477334189
26.216552000000007,7.784325225076875,0.0718206877825698
26.21900400000001,7.808216351980626,0.0713779375037263
26.22144800000001,7.830245147764819,0.0709434349373134
26.22390000000001,7.849340677242817,0.0705237464471735
26.226348,7.869926450788035,0.0700820156236636
26.228792,7.8848780091463375,0.0696956776405308
26.231244000000004,7.898758632318003,0.069316792207565
26.23369200000002,7.913710190676307,0.0689288169572884
26.236136000000016,7.931595015340807,0.0685295464057909
26.238580000000013,7.951342171124862,0.0681261288215785
26.24102400000001,7.970949557282058,0.0677282322033278
26.243468000000007,7.987064598625616,0.0673648283058599
26.24590000000001,8.00089799996904,0.0670240242526283
26.248344000000003,8.01394000537954,0.0666806696270464
26.25079600000001,8.025631536349689,0.0663576208335574
26.253240000000005,8.03425003138678,0.0660542126719975
26.25568800000002,8.04300829605073,0.0657468955146774
26.25812000000002,8.053908431087956,0.0654278265056036
26.26057600000001,8.063458091684826,0.0651279649924069
26.26301600000002,8.071145421162136,0.0648327738197897
26.265456,8.073617844333116,0.0645696592627298
26.2679,8.074088166757678,0.0643154175703583
26.270352000000003,8.073487553995601,0.0640683523919441
26.272796,8.075540668286,0.0638209717598821
26.27524400000001,8.072239106643204,0.0636094481062772
26.27768800000001,8.068937545000411,0.0633974794817869
26.28013200000001,8.06950041522359,0.0631730766046164
26.28257600000001,8.073276091006687,0.062928023889604
26.285020000000003,8.073978730856725,0.0626993844882264
26.28746000000001,8.074960909960485,0.0624609683693206
26.289900000000017,8.0790161249973,0.0622077346934451
26.29235600000001,8.088286246340449,0.0619254348108959
26.29479600000002,8.098347763616514,0.0616468042718715
26.297240000000016,8.109852303131555,0.0613814125403242
26.29969600000001,8.122288008206375,0.0611152998033755
26.30214000000001,8.131790446975002,0.0608583868586218
26.304596000000004,8.140221950556988,0.0606092290117939
26.30703600000001,8.141715986339946,0.0603866234713862
26.30947600000001,8.142558395816847,0.0601549064052062
26.31192000000001,8.14619430197308,0.0599196661980993
26.314368,8.153043013689231,0.0596648872608097
26.316812,8.162545452457858,0.0594113276541668
26.31925200000001,8.17297905678626,0.0591565856828251
26.321696000000003,8.178617063688911,0.0589128778389906
26.32414,8.188399041711257,0.0586480878918927
26.326584,8.200462659733738,0.0583657183164298
26.329028000000022,8.211595112196443,0.0580863156944709
26.33147200000002,8.217372888725954,0.0578389023572798
26.333916000000016,8.225292535628745,0.057579367480476
26.33636800000002,8.231861708091174,0.0573371671151798
26.33881200000002,8.24029321167316,0.0570952428109304
26.341256000000016,8.248584945628286,0.0568601592354493
26.343700000000013,8.256225053277356,0.0566159898821336
26.34615200000001,8.26121143387395,0.0563695706828479
26.348592,8.263404317791208,0.0561259255130689
26.351044,8.269601403201301,0.0558681865774096
26.35348400000001,8.276589884544311,0.0556153329059538
26.35592800000001,8.287163258499573,0.055363767317958
26.35837600000002,8.299598963574393,0.0551111845740256
26.36082000000001,8.311243272716295,0.0548560662729153
26.36326,8.32074571148492,0.0546131530055258
26.36569600000001,8.327734192827931,0.0543624996842922
26.36814000000001,8.33565383973072,0.0541117668691201
26.37058000000001,8.34850885368612,0.0538470840814738
26.37302400000001,8.360572471708604,0.0535792058810097
26.37547600000002,8.372496320104226,0.0533177294688004
26.377920000000017,8.380415967007016,0.0530683877018716
26.38037600000001,8.391408649842859,0.0528066737641062
26.38282000000001,8.399048757491926,0.0525667084754121
26.385260000000017,8.402964202901883,0.0523279868472403
26.387704000000014,8.397940079766393,0.0521139202514076
26.390152,8.389982690324707,0.0519065609522585
26.392600000000016,8.384818797562355,0.0516980070328306
26.395048000000003,8.379515135173145,0.0514935334613593
26.39748400000002,8.37621357353035,0.0512828016347194
26.399928000000017,8.371841076700916,0.0510777462765112
