Time,Force,Position
22.502472,4.918651298567178,0.1655062273754471
22.504876,5.013195709921032,0.1643647672229786
22.507264,5.086651970339818,0.1636405485158657
22.509644,5.147772656913878,0.1630399552468824
22.512048,5.198327552964151,0.1624558401013595
22.514432,5.235570383639544,0.1618948278483626
22.516816,5.255217408193507,0.1614911654906588
22.51922,5.263832111514858,0.1611866906018
22.521604,5.264904942559365,0.1610041208033453
22.523984,5.266489630283069,0.1608368780555177
22.526384,5.278876217671777,0.1604191165979221
22.528768,5.296337941739957,0.1598658888208091
22.531148,5.305838484650714,0.1594586359630276
22.533552,5.312126222001555,0.1591436107743237
22.535936,5.326747227562156,0.1587209450621367
22.53832,5.355987342825491,0.1580251709947357
22.540716,5.385599545141163,0.1573411603385973
22.543104,5.413069877083558,0.1567126978741149
22.545484,5.441191835332012,0.1560976105671702
22.54788,5.473457764700159,0.1553921166539847
22.550268,5.506515090001224,0.1546877597688364
22.552664,5.533845652316758,0.1541026012248582
22.55506,5.562014832393455,0.1534572399624481
22.557448,5.591953795791089,0.1527374442916421
22.559832,5.623894859935142,0.1519804976007227
22.562228,5.654205910385115,0.1512850917008948
22.564616,5.683957882327649,0.1506228030588586
22.566996,5.7087744872175685,0.1500725905489072
22.569392,5.731821308786549,0.1496035464657137
22.57178,5.74737158404906,0.14932722615444
22.57416,5.758218809684436,0.1491922602492155
22.576556,5.772511158305205,0.1490107910772714
22.578948,5.786943276552834,0.1488162060291768
22.60762,5.826044646632046,0.1486782983291032
22.610004,5.832096274841672,0.1486471779929092
22.6124,5.842943500477047,0.1485304181115047
22.614788,5.854582122045343,0.1484057932757135
22.617168,5.868781922867495,0.1482060485997306
22.619564,5.890058961115536,0.1478614983881811
22.621952,5.916271366416189,0.1474255110020486
22.624331999999995,5.938619339850869,0.1470624904164455
22.626732,5.963621040338023,0.1466612981751114
22.62912,5.989274367131236,0.146265881005412
22.6315,6.018512586536701,0.1458172751057693
22.633896,6.046540101128668,0.1454023438547236
22.636284,6.073217141280275,0.1450373729014166
22.63868,6.096541606245106,0.1447547167608171
22.641076,6.121588632702637,0.1444487947709492
22.643464,6.1507796302798585,0.1440509524296875
22.645844,6.1738245559909695,0.1437818088646733
22.64824,6.193144819462968,0.1435748384266277
22.650628,6.214234866255907,0.1432984301945801
22.653008,6.233370034130672,0.1430138777874393
22.655404,6.24957193569924,0.1427832628582356
22.657792,6.263911506148252,0.1425866388596387
22.660176,6.275876888798511,0.1424093614984294
22.66258,6.292265781822183,0.1421334781348144
22.664968,6.3038590774201015,0.1419380312494603
22.667348,6.314800746711965,0.1417434845165683
22.669744,6.324811250444048,0.1415664400149859
22.672132,6.336823854922549,0.141354169526205
22.674516,6.350466473095131,0.1410889241473188
22.676912,6.361595133842097,0.1408470415667165
22.6793,6.372351707536724,0.1405867443811078
22.68168,6.383667359738793,0.1402931016468705
22.684084,6.391537888955469,0.140035866501959
22.686472,6.399827727052725,0.1397526587809757
22.688852,6.41053897477698,0.1394114408418326
22.691256,6.424090941008814,0.138990587533643
22.693644,6.4411352520542815,0.138489018038516
22.696024,6.457248397539972,0.1379979303375686
22.69842,6.473361543025663,0.1375087200885415
22.700808,6.485982343697717,0.1370956626312797
22.703188,6.497951518063713,0.1366764575522988
22.705584,6.5071271957503765,0.1362980142970772
22.707972,6.514440542317481,0.1359455396051402
22.710356,6.514816421085557,0.135709834072192
22.712748,6.521198602092883,0.1353723510238453
22.715136,6.522785185674457,0.1351085791826447
22.717516,6.521066415897499,0.1348721252886022
22.719916,6.518044393508424,0.1346281873646788
22.722304,6.512228874440016,0.1344220609632063
22.724688,6.508974534625466,0.1341501723659509
22.727084,6.504789029251137,0.1338909851185855
22.729472,6.502745394250085,0.1335919303007103
22.731852,6.500841528875895,0.1332833812428588
22.734248,6.496935562755286,0.1330061293531225
22.736636,6.491027495888259,0.1327620482753036
22.73902,6.477483113087903,0.132667720508653
22.741416,6.462588255847188,0.1326092253219631
22.743804,6.450766434539529,0.1324978552060626
22.746184,6.438665073978149,0.1324021750210794
22.748584,6.433920490096379,0.1321737390359847
22.750972,6.435833834759917,0.1318549486244765
22.753356,6.438026718677175,0.1315194270790777
22.755752,6.441150768154213,0.1311710469558248
22.815492,6.219204882605627,0.1310858141251106
22.817872,6.212781167343666,0.1310783355287193
22.820268,6.205985365029365,0.1310496064493994
22.822656,6.205754943461759,0.1308899784038797
22.825036,6.206455687453929,0.1307174703573127
22.827432,6.210881093685212,0.130497273123469
22.82982,6.213444168796938,0.1303013950902345
22.832215999999995,6.217078179095304,0.1300840680145041
22.834612,6.22085195902053,0.1298594976977282
22.837,6.225277365251814,0.1296405876915827
22.83938,6.228771605923318,0.1294333921488497
22.841776,6.232265846594824,0.1292256333271885
22.844164,6.23617939614691,0.1289932524226101
22.846544,6.248380887938383,0.1286151420810896
22.84894,6.263375876409192,0.1282050473210039
22.851327999999995,6.283865310440054,0.1276905724549909
22.853708,6.304774053351496,0.1271557248031899
22.856112,6.327033270703296,0.1265848102512555
22.8585,6.349944114361155,0.1260216327624675
22.86088,6.368199130220123,0.1255173783946676
22.863276,6.385522980519312,0.1250268182356504
22.865663999999995,6.4036382267514185,0.1245351282279286
22.868044,6.422405099289584,0.1240487174558018
22.87044,6.438750562200752,0.1236223086567121
22.872828,6.45537556436564,0.1231786786820381
22.875224,6.470417774664692,0.1227456426553147
22.87762,6.488533020896798,0.1222666046732739
22.880008,6.509581533435101,0.1217496510105633
22.882388,6.529698880413626,0.1212458194546909
22.884788,6.546882961085954,0.1207815422576628
22.887172,6.56620891213156,0.1202817746115439
22.889552,6.586605798363805,0.1197636408013816
22.891948,6.607933850155828,0.1192383134001603
22.894336,6.624838391574436,0.1187969339204309
22.896716,6.637087105194155,0.1184084250751651
22.899111999999995,6.64440045176126,0.1180887674370572
22.9015,6.652365424634423,0.11777713045301
22.903896,6.660982023813643,0.1174721393486029
22.906292,6.6677362918733065,0.1171869002903372
22.90868,6.677563595866026,0.116857442635471
22.91106,6.687390899858745,0.1165287094465711
22.913456,6.698568678291823,0.1161705664949219
22.915844,6.7109571615384,0.1157894298151755
22.918224,6.720691917732502,0.1154289900231817
22.920628,6.736293206538995,0.1150018046373205
22.923016,6.752685891278405,0.1145765798911504
22.925396,6.769078576017815,0.1141561219650878
22.9278,6.784819634451168,0.1137338219852297
22.930188,6.802562793630939,0.1132896748481053
22.932568,6.823099449490044,0.1128191245598016
22.934964,6.844427501282067,0.1123514002185013
22.937352,6.868549049753424,0.1118621559114063
22.939732,6.891320123784423,0.1114047272782875
22.942128,6.917164233748477,0.1109094429653312
22.944516,6.947384632257703,0.11038830889393
22.946895999999995,6.978256657072985,0.1098728146775478
22.949292,7.006195415582074,0.1093916130223276
22.951676,7.031200907784966,0.1089418126042095
22.95406,7.057137565547637,0.1084835099019654
22.956456,7.079721648123533,0.1080782962300636
23.001852,6.98680725046376,0.1078443375800174
23.004248,6.981826557440774,0.1078216006144791
23.006644,6.979127504417924,0.1077633440500566
23.009032,6.978430552141493,0.1076832900182398
23.011416,6.982808736544533,0.1075456485680055
23.013812,6.988397625761073,0.1073873496679136
23.0162,7.002134687590139,0.1071362373304132
23.01858,7.0200157205389,0.1068330588563633
23.020984,7.038316062368242,0.1065100700334784
23.023368,7.0570357130781645,0.1061668249025475
23.025752,7.077897234161362,0.1057969865398937
23.028148,7.104904827110672,0.1053586491091779
23.030536,7.136987556739454,0.1048627592432714
23.032916,7.169489595248816,0.1043457000514439
23.035312,7.20120023782526,0.1038321757057588
23.0377,7.23612368596162,0.1032775365195024
23.040084,7.269976198911341,0.1027350873270452
23.04248,7.303177085555005,0.1021869471735189
23.044868,7.331861914026637,0.1016710936429504
23.047248,7.350024382086988,0.101249774646032
23.049644,7.36725568458756,0.1008371852474761
23.052032,7.3816934904087965,0.1004487718332292
23.054412,7.395479669923976,0.1000557445744209
23.056808,7.40754328794646,0.0996702313447739
23.059196,7.416161782983551,0.09930052433504
23.061592,7.425059817274361,0.098919664664841
23.063992,7.427160153393004,0.0985988880070633
23.066379999999995,7.431402359884922,0.0982535983671908
23.068764,7.434573631190203,0.0979212356143923
23.07116,7.437093276189423,0.0975823115144964
23.073547999999995,7.4341656974568355,0.0972743344061013
23.075932,7.426722060552217,0.0969922029669199
23.078332,7.413831199915787,0.0967399554911879
23.080715999999995,7.400800569652499,0.0964934284114977
23.0831,7.3876301697623505,0.0962530204065698
23.085496,7.371386733939146,0.0960430875194961
23.087883999999995,7.358495873302717,0.0957885633272606
23.090268,7.347467343785845,0.0955217227257865
23.092668,7.335367879082335,0.0952658696612609
23.095056,7.329134946991215,0.0949597827852679
23.097432,7.32010851822076,0.0946707199125625
23.09984,7.308148823144109,0.0944051862035419
23.102224,7.295909588813739,0.0941523296838107
23.104604,7.283810124110228,0.0938922077255288
23.107008,7.272502055339635,0.0936320661903287
23.109396,7.258912346568906,0.0934028170253529
23.111776,7.249978465597069,0.0931440111146233
23.114172,7.236900613505536,0.0929275583621097
23.11656,7.224893696600644,0.0926983477195814
23.11894,7.21232770118831,0.0924944295151811
23.121336,7.204417533574867,0.0922610128207719
23.123724,7.1968794530137625,0.0920475004745592
23.126108,7.195859531371104,0.0917941795060012
23.128504,7.196841710474864,0.0915234026902748
23.130888,7.193819688085791,0.0912868467712867
23.133268,7.193451392749192,0.0910397341684487
23.135664,7.191592853345373,0.0908246854633609
23.138052,7.189734313941554,0.0906103094514486
23.140436,7.189458566403573,0.0903969095911327
23.14284,7.18876350998501,0.0902036043414431
23.145228,7.193795216551977,0.089971752833794
23.147608,7.203482750917836,0.0897131305507923
23.150004,7.210888645283557,0.0894839640243941
23.152392,7.218154770022421,0.0892611128270684
23.154776,7.226072521067339,0.0890466149626972
23.157172,7.231988171365843,0.0888480668005695
23.15956,7.236041490544788,0.0886610505475907
23.16194,7.242888306403069,0.0884580701742337
23.164336,7.249315813380772,0.0882747311526525
23.16672,7.25695402517197,0.0880731449168415
23.169104,7.263241762522811,0.0878967034112617
23.1715,7.268318795060153,0.0877380934493278
23.173888,7.2683206909180225,0.0876251004626331
23.176268,7.266832342708671,0.0875430825898335
23.178672,7.273212627858128,0.0874009421781253
23.181056,7.280663848194225,0.0872483088586276
23.18344,7.289046234090099,0.0870910893777854
23.185836,7.297009311105393,0.0869536860183827
23.18822,7.3080454240537405,0.086789249069175
23.190604,7.318941767375229,0.0866318004983591
23.193,7.324762974017245,0.0865181582584992
23.195388,7.327511144726205,0.0864318679589428
23.197784,7.333611890621943,0.0863059683021379
23.20018,7.340364262823738,0.0861877493060088
23.202568,7.343252203159558,0.0860948589060337
23.204948,7.352146445734631,0.0859543810941168
23.207344,7.359969753123064,0.0858250590927243
23.209731999999995,7.368863995698137,0.0856856640018755
23.212116,7.378829173459847,0.0855356462795322
23.214516,7.390516912714254,0.0853833507278115
23.216904,7.4031358175284385,0.0852266632841033
23.219284,7.420038463089177,0.0850275658524864
23.22168,7.441736706075669,0.0847997937256093
23.224067999999995,7.4637144883158815,0.084559659138346
23.226448,7.481408529809538,0.084364444129104
23.228844,7.494818830556642,0.0842119309956223
23.231236,7.508368900930605,0.0840542557374774
23.233616,7.520196409811871,0.0838995636875124
23.236011999999995,7.527879947573445,0.0837811870424431
23.238396,7.530907657536127,0.0836847154357199
23.24078,7.539941669738059,0.0835436207503704
23.243176,7.550186386753489,0.083385823078096
23.24556,7.560011794888339,0.0832471432917776
23.247956,7.573050008583104,0.0830782514333378
23.250352,7.591023589330482,0.0828755062599777
23.25274,7.60899717007786,0.0826759318360144
23.25512,7.629764247504572,0.0824644311318998
23.25752,7.64866899381173,0.0822627873122394
23.259908,7.666922113812827,0.0820544386351752
23.262288,7.684383837881007,0.081845811381067
23.264683999999995,7.70040253971021,0.0816280332486859
23.267072,7.712556809673442,0.0814335310043717
23.269456,7.721265956651279,0.0812440891421901
23.27186,7.733327678815892,0.0810212196317699
23.274248,7.744086148368391,0.0807823202185288
23.276627999999995,7.758616501988245,0.0804910749361987
23.279032,7.770213589301903,0.080217212753455
23.281416,7.780879511055784,0.0799463010328039
23.2838,7.796900108742857,0.0796278988533231
23.286196,7.82013771348268,0.0792541868518506
23.288584,7.840442051916308,0.0789013869704945
23.290963999999995,7.862608721469492,0.0785431486107113
23.29336,7.882401203223922,0.0781786790567823
23.295748,7.898329253112378,0.0778364024744507
23.298131999999995,7.914536842254555,0.0774856733136784
23.300528,7.923806963597703,0.0771765272287497
23.302912,7.929352422701736,0.0768814924626536
23.305292,7.932104385126436,0.0765960843586274
23.307688,7.934716577924275,0.0763167302545266
23.310076,7.935466439602558,0.0760444304830312
23.312472,7.938078632400398,0.0757657593516527
23.314872,7.939480120384737,0.0755009558800023
23.31726,7.9428837091154945,0.0752242574178956
23.31964,7.942003557099698,0.0749842907966722
23.322036,7.944708297696154,0.0747373187948785
23.324424,7.948204434225529,0.0744942951497756
23.326804,7.954633837061099,0.0742362325491363
23.329204,7.964136275829725,0.073957707583953
23.331592,7.967352873105378,0.0737259681413056
23.333972,7.966145960007617,0.0735350681734138
23.336372,7.960934845417024,0.0733670116602761
23.338756,7.951719529333597,0.0732221021352007
23.34114,7.948230976235699,0.0730540222626632
23.343536,7.941529617577887,0.0729106878998011
23.34592,7.932406849293075,0.0727956686431233
23.348304,7.929290383247515,0.0726461034399635
23.3507,7.932319989068065,0.0724575250112089
23.353088,7.9390742571277295,0.0722573071947054
23.355468,7.94741131705323,0.0720632037000888
23.357864,7.956679542538509,0.0718664093121442
23.360252,7.962734962463871,0.0716946341861822
23.362648,7.970792483135652,0.0715113488352893
23.365044,7.976288824553573,0.0713616063845027
23.367436,7.9808540004117186,0.0712141849529775
23.369816,7.984627780336944,0.0710648030182747
23.372212,7.983046884328977,0.0709565858801767
23.3746,7.981326218694149,0.0708541481629079
23.37698,7.979326013805602,0.0707629462918034
23.37938,7.982820254477108,0.0706256488588335
23.381768,7.98752519996211,0.0704746812712442
23.384148,7.99558272063389,0.0702935505057427
23.386548,8.008203521305944,0.0700697188471932
23.388936,8.015888954925385,0.0698709705070968
23.391316,8.032933265970854,0.0696125852520575
23.393716,8.046532454030931,0.0693520659090205
23.396104,8.058269310971449,0.0690979025700325
23.398484,8.062928930486079,0.0688831302229203
23.40088,8.065865988508014,0.0686679516094112
23.403268,8.065637462798277,0.0684405827938471
23.405648,8.066619641902035,0.0682006531451291
23.408044,8.071094165819433,0.0679270224882225
23.410432,8.076919164177186,0.0676357763347567
23.412811999999995,8.08558488104252,0.0673030660724513
23.415216,8.096532237907992,0.0669497042208775
23.417604,8.105617263653905,0.0666013646731441
23.419984,8.12112790051965,0.0662088516152411
23.42238,8.13426434958664,0.0658068320685562
23.424764,8.147028711601292,0.0653869205351736
23.427147999999995,8.157651203242668,0.0649837983250573
23.42954,8.170695104511042,0.0645578311211145
23.431928,8.185741106525832,0.0641253703266673
23.434324,8.197574302980705,0.063715962396854
23.43672,8.206753772383106,0.0633048570352609
23.439108,8.207924838799839,0.0629301947512724
23.441488,8.210958236336127,0.0625498654188664
23.443884,8.214131403499279,0.0621648874738133
23.446268,8.218515275475927,0.0617658554835486
23.448652,8.223970082639212,0.0613601760671609
23.451056,8.230216285735418,0.060957499213648
23.453444,8.233529222525426,0.0605649602138014
23.455824,8.236422850434856,0.0601896438307446
23.45822,8.240387413530925,0.059809754755306
23.460608,8.243001502186633,0.05944798643495
23.462988,8.24761769158876,0.0590800096101332
23.465384,8.253444585804383,0.0587008111041443
23.467772,8.25848008408709,0.0583209520728139
23.470168,8.266448848675989,0.057933068245939
23.472564,8.273206908451392,0.0575568755398503
23.474952,8.28224660822693,0.0571652901465608
23.477332,8.288073502442556,0.0567932051582726
23.479728,8.290547821471405,0.0564449369471987
23.482116,8.292882370873393,0.056101266310091
23.484496,8.303876949567105,0.0557408539580863
23.4869,8.317804794567014,0.0553723129378195
23.489288,8.335736841059754,0.0549914106240527
23.491668,8.353389348298776,0.0546215017318162
23.494064,8.374626748150051,0.0542544028617431
