Time,Force,Position
22.652852,5.040852626198793,0.1688460064760175
22.655248,5.0553300704167965,0.1687090391453923
22.657636,5.076233125754632,0.1683930116222326
22.660016,5.105843432212435,0.1678260856408781
22.662412,5.138573996431536,0.1671125803347058
22.6648,5.167906659493488,0.1664094762848701
22.667184,5.193002803637127,0.1657784019708124
22.66958,5.229412704124967,0.164910187759165
22.671968,5.280209396890065,0.1637286830604244
22.674348,5.3330081904015785,0.1624904484833752
22.676744,5.381151156114199,0.1613646475476323
22.679132,5.42887481294624,0.1602786204789549
22.681512,5.482557550189289,0.1591027612925611
22.683908,5.539685410417729,0.1578702598102778
22.686296,5.592948838780195,0.1567421787090586
22.688676,5.65026369046374,0.1554799429439754
22.691076,5.702830166549777,0.1542966542330834
22.69346,5.751160123717502,0.1531837592443889
22.69586,5.797348210511948,0.1521227407139873
22.698256,5.8479598076798105,0.1509423599150586
22.700644,5.890889762943969,0.1498994588809205
22.703024,5.926370393729902,0.1490167608581153
22.70542,5.955565183022863,0.1482953966282192
22.707808,5.97870644824833,0.1477596918117066
22.710192,6.001288634966356,0.1472607718768789
22.712584,6.023079425751464,0.1467687326225792
22.714972,6.046872317282989,0.1462351454939203
22.717352,6.063448201761764,0.1458709287666807
22.719748,6.069594273627874,0.1457417756719249
22.722136,6.0780219854941215,0.1455561711521806
22.724516,6.085006675121393,0.1453726986862898
22.726912,6.089245089897575,0.1451866002662203
22.7293,6.091528625755581,0.1449937363435395
22.731696,6.094790549001608,0.1447400031643387
22.734096,6.099822255568577,0.1444192175723983
22.73648,6.099546508030596,0.1441698856730901
22.738864,6.099130990865752,0.1439302528111783
22.74126,6.098296164820329,0.1437163696478232
22.743648,6.102396705827519,0.1434135017450398
22.746028,6.10528654202121,0.1431446483634803
22.748428,6.109619400453876,0.1428743778678987
22.750812,6.11502319407318,0.1425820494787245
22.753192,6.122009779558321,0.1422788124788969
22.755592,6.130207069856962,0.1419430606048715
22.75798,6.14054623052888,0.1415620965430607
22.76036,6.150885391200797,0.1411804411377235
22.76276,6.161364321499575,0.1407923978756325
22.765144,6.173193726238711,0.1403654590392923
22.767528,6.19037780691104,0.1398270441756849
22.769924,6.203417916463675,0.1393715131303276
22.772312,6.217668730829808,0.1388830043582346
22.774708,6.234433502621557,0.1383705650809985
22.777108,6.254363858144978,0.1378464599570481
22.779496,6.27145349516082,0.1374130750347851
22.781876,6.286773348855723,0.1370467425252617
22.784276,6.302045980722385,0.136724978010572
22.786664,6.314525115909709,0.1364428278547129
22.789044,6.33021705665695,0.1360958162599864
22.79144,6.34604876703105,0.1357468417874122
22.793828,6.3608095422185125,0.1354208042751775
22.796208,6.373056359980359,0.1351168556486087
22.7986,6.382509681062873,0.1348512103229727
22.800988,6.395455346959021,0.1345091979338656
22.803368,6.408820321735749,0.1341430494538828
22.805772,6.423396001325977,0.1337519166189933
22.80816,6.437831911289345,0.1333681425794722
22.81054,6.448775476439076,0.1330620229831623
22.81294,6.458228797521588,0.1328019725522754
22.815324,6.467402579350381,0.1325622255275748
22.817708,6.481511728231787,0.1322470127487678
22.820104,6.496132733792389,0.1319440916955472
22.822488,6.507540933793075,0.131701001808628
22.824872,6.512570744502173,0.131535686957338
22.827268,6.51909079927849,0.1313267082529406
22.829656,6.522025961442555,0.1311562725928388
22.832052,6.5275223028604765,0.1309212648093457
22.834448,6.534601436144235,0.1306774346739947
22.836836,6.539026842375519,0.1304624957193214
22.839216,6.536375011180913,0.1303641030753472
22.841612,6.532000618493611,0.1302814649747603
22.844,6.527998312858648,0.1302192157725797
22.84638,6.529722770209213,0.130076612532117
22.84878,6.528513961253584,0.1299788399249734
22.851168,6.527025613044233,0.1298971632504722
22.853548,6.523395394461606,0.1298547845498514
22.855944,6.522698442185176,0.1297698336600253
22.858332,6.524702438789461,0.1296135856601225
22.860712,6.530618089087965,0.1293605904174299
22.863108,6.530295119721739,0.1291715163024077
22.865496,6.523034682556484,0.1290857698504184
22.86788,6.5181956550182285,0.1289456199144462
22.870276,6.518851073040024,0.1287022415885044
22.87266,6.52057742624846,0.128438804118368
22.87506,6.520161909083618,0.1282138765632082
22.877464,6.526404320464084,0.1279024691096731
22.879848,6.531296257404191,0.1276267944055983
22.882228,6.537398899157797,0.1273247635407184
22.884624,6.545363872030959,0.1270011810550712
22.887012,6.56040608233001,0.126568434845511
22.889392,6.5783815589352574,0.1260951813820717
22.891788,6.599989149981001,0.1255441854843093
22.894176,6.616009747668074,0.125062080170933
22.896556,6.626303582369617,0.1246504286711676
22.898956,6.636085560391964,0.1242264554371757
22.90134,6.640932171361695,0.1238698279780089
22.903724,6.640983184905678,0.1235757878535045
22.90612,6.641685824755717,0.1232872579412312
22.908508,6.633681213485788,0.1231562679230085
22.910892,6.627119624454835,0.1230265061551414
22.913288,6.625633172103355,0.1228168758169996
22.915676,6.619862979005322,0.122683439689206
22.918056,6.61195091553401,0.1225876067876737
22.946728,6.418162834914904,0.1225395907184381
22.949124,6.408341218495794,0.1225058712028955
22.951508,6.404246365062212,0.1224011413476077
22.953904,6.398568719762793,0.1223014539810049
22.9563,6.399176915956347,0.1220988203894981
22.958688,6.403789313642734,0.1218383990693261
22.961068,6.406120071328983,0.1216229336054756
22.963464,6.412455030508067,0.1213500232159437
22.965852,6.415065327448038,0.1211185354024211
22.968228,6.421819595507702,0.1208219488690733
22.970632,6.428713633194226,0.1205182294478102
22.97302,6.436399066813669,0.1202119239341941
22.9754,6.44366519155253,0.1199289185713183
22.977804,6.45023246815709,0.1196859560535618
22.980192,6.455449270321292,0.1194775492125113
22.982572,6.463739108418548,0.1192216750966254
22.984976,6.472308485769526,0.1189507128333873
22.987364,6.488094870173253,0.1185667435525021
22.989744,6.502810319390341,0.1182009987638347
22.99214,6.518224616741731,0.11780041625033
22.994528,6.536851719653035,0.1173491065457247
22.996908,6.551614390698366,0.1169501600608245
22.999304,6.564654500251001,0.1165672849652318
23.001692,6.579277401669471,0.1161814007447277
23.004072,6.594179842341663,0.1157833333266219
23.006472,6.6072199518942965,0.1154065589716053
23.00886,6.622401931820209,0.1149964491570183
23.01124,6.633579710253288,0.1146392155258803
23.013636,6.648062842044899,0.1142661221090711
23.016024,6.655189197156901,0.1140024423007022
23.018404,6.6628274089481,0.1137530082329561
23.020804,6.669534455179522,0.113512754350082
23.023188,6.677964062903639,0.1132615111743334
23.025588,6.683460404321561,0.1130446238085783
23.027984,6.688305119433425,0.1128217597782191
23.030372,6.6942207697319285,0.1125828528410818
23.032752,6.69957734152299,0.1123745360445862
23.035148,6.702792042940775,0.1122009072046769
23.061412,6.65005184640472,0.112033314582889
23.063812,6.653079556367402,0.1119135743702456
23.0662,6.657737280024161,0.1117493778747959
23.068584,6.662395003680922,0.1115847779169489
23.07098,6.665469935471847,0.1114228535129908
23.073364,6.67082650726291,0.1112203242563085
23.07576,6.678836806106447,0.1109999112879319
23.07816,6.685496630509624,0.1108109813531381
23.080548,6.694577864539799,0.110576603404572
23.082928,6.704590264129752,0.110334488800213
23.085324,6.712460793346428,0.1101241977825193
23.087716,6.72340435849616,0.1098725036679525
23.090096,6.739423060325364,0.1095592498218716
23.092492,6.752136408796035,0.109255575263408
23.09488,6.76326696540087,0.1089519178997744
23.097264,6.768019132714119,0.1087006930613956
23.09966,6.772119673721307,0.1084428194025646
23.102048,6.771564386929605,0.1082268758025439
23.104432,6.777434711257735,0.1079147534620969
23.106832,6.783165265959004,0.1076116956878292
23.109216,6.787265806966193,0.1073548123334774
23.111596,6.788293312040326,0.1071400027209293
23.113996,6.785688702673966,0.1069937749524324
23.116384,6.7868087555467165,0.1068155235748837
23.118764,6.789791139539023,0.106621371443622
23.121164,6.796498185770443,0.1063962618066261
23.123548,6.801342900882308,0.1061879441953714
23.125928,6.806327385621032,0.1059725639653324
23.128332,6.808099064799841,0.1058027058667138
23.13072,6.8081481824859535,0.1056414613089614
23.1331,6.811270336105122,0.1054430415466951
23.135496,6.818396691217124,0.1052015144387388
23.137884,6.820308140022792,0.1050273024007851
23.140264,6.830739848493327,0.104779620087181
23.142668,6.847038089576251,0.1044741190672547
23.145056,6.869994259204483,0.1041104269589407
23.147436,6.896023464765771,0.1037127139949612
23.149832,6.928198742193171,0.1032426984089219
23.15222,6.957161214060655,0.1028201777189107
23.1546,6.982910880368222,0.102439713542266
23.156996,7.007217524436814,0.1020517060495279
23.159384,7.029242528505269,0.1016999427504399
23.161776,7.049544971081025,0.1013527173240173
23.164176,7.066402290671391,0.1010229247957952
23.16656,7.084330545448395,0.1006821107454635
23.168944,7.101467404292481,0.1003457742758724
23.17134,7.1158107664572325,0.1000290484689775
23.173728,7.131225063808621,0.0996997004675071
23.176108,7.147850065973509,0.0993495497319468
23.178504,7.165266464071315,0.0989993845457482
23.180892,7.179749595862925,0.0986780490036149
23.183272,7.189297360601924,0.09840668400649
23.185668,7.198333268661726,0.0981207710371772
23.18806,7.202573579295776,0.0978778836994748
23.19044,7.203740853996769,0.0976694919339237
23.192836,7.200764157578069,0.0975078054944852
23.195224,7.194574655599453,0.0973856138538747
23.19762,7.18703467918048,0.0972897547881295
23.200016,7.180705407575004,0.0971742721417017
23.202404,7.177728711156304,0.0970133688153861
23.204784,7.180478777723135,0.0968090377970085
23.207184,7.185370714663242,0.0965793267190561
23.209568,7.1962689538426,0.0962932079673571
23.211952,7.209681150447572,0.0960028818666516
23.214348,7.2228138077988255,0.0957281619666364
23.216732,7.231011098097465,0.0954966086436214
23.219116,7.24200188507544,0.0952461433098193
23.221512,7.251130340933858,0.0950082256798524
23.2239,7.260258796792277,0.0947708153000721
23.22628,7.268456087090916,0.094539219547247
23.22868,7.276653377389556,0.0943071327009612
23.231068,7.284990437315056,0.0940681486841847
23.233448,7.294770519479533,0.0938364707936847
23.235844,7.305621536830646,0.0935934259733996
23.238232,7.312608122315789,0.0933792368987231
23.240628,7.31973447742779,0.0931579207733248
23.243024,7.330213407726568,0.0928934686653467
23.245412,7.342042812465703,0.092605678382037
23.247792,7.351870116458422,0.0923367331239277
23.250196,7.363559751570699,0.0920589762096858
23.252584,7.371524724443863,0.0918060908170967
23.254964,7.3765564310108305,0.0915761493630872
23.25736,7.381308598324077,0.091361156359706
23.259748,7.38368657783857,0.0911440064807363
23.262132,7.38140872955417,0.090953393666481
23.264532,7.383135082762606,0.0907284445495834
23.26692,7.388214011157817,0.0904638932926405
23.2693,7.396086436232363,0.0901844855632518
23.271696,7.40288792612027,0.0899164729772864
23.27408,7.415975257501148,0.0895892201856416
23.276464,7.431064689628442,0.089246157238401
23.27886,7.449087388061932,0.0888833572037395
23.281248,7.468600330562643,0.0884923445471629
23.283628,7.480756496383743,0.0881706550774447
23.286032,7.499710360377011,0.0878012779823016
23.28842,7.520806094743557,0.0874104131500575
23.2908,7.53654715317691,0.087075562368132
23.293196,7.547864701236847,0.086792023273387
23.295584,7.562115515602981,0.0864888256723359
23.297968,7.569568631796947,0.0862321849226277
23.300364,7.572877776871216,0.0860124850565751
23.302748,7.582053454557879,0.0857524222982438
23.305128,7.585781908512732,0.0855152843472301
23.307532,7.589882449519921,0.0852980350111466
23.30992,7.592912055340471,0.0850898323612128
23.312304,7.594591186720663,0.084905528404645
23.3147,7.592917742914079,0.0847610379140092
23.317088,7.585657305748826,0.084644437756322
23.319468,7.577605472650653,0.0845259307421157
23.321864,7.560054992499595,0.0844987172627659
23.324252,7.544786152348673,0.0844427329353394
23.326632,7.528446377011112,0.0843966881718484
23.329032,7.507822860926998,0.0843925192751223
23.33142,7.498700092642188,0.0842840468619288
23.3338,7.485852662118264,0.0841931084150933
23.336196,7.470071965288145,0.0841208727408488
23.338584,7.456712678085024,0.0840152219169644
23.34098,7.44591457013576,0.0838698625529605
23.343376,7.429110159947245,0.0837687584516908
23.345764,7.41817228237112,0.0836286279219458
23.348144,7.414311642220886,0.0834331695994196
23.350544,7.40486400871198,0.0832638508142666
23.352932,7.395276605576215,0.0830995918910113
23.355312,7.385177345761252,0.0829209102056159
23.357708,7.382155323372178,0.0826873450766722
23.3601,7.379412840236824,0.0824415436214211
23.36248,7.376810126728331,0.082189682666013
23.36488,7.379654636951649,0.0819180199930819
23.367268,7.385432413481161,0.0816276098037083
23.369648,7.395633700384088,0.0812878602435152
23.372044,7.397547045047627,0.0810186621178641
23.374432,7.3966668930318304,0.0807619871592057
23.376812,7.402724208815062,0.0804580960813387
23.379208,7.39877102086621,0.0802267501463615
23.381596,7.394957602544218,0.0799887693277936
23.383976,7.396079551274839,0.0797187865677556
23.386376,7.4018573278043505,0.0794304700865486
23.388764,7.407355565080143,0.0791549131745771
23.391144,7.418860104595184,0.0788372672045642
23.393544,7.426220672990531,0.0785538082156496
23.395932,7.430508205452824,0.0782956439129901
23.398312,7.436378529780953,0.078041672744478
23.400708,7.45025725709475,0.077735198873915
23.4031,7.465998315528102,0.0774223995717569
23.40548,7.478666338028399,0.0771348022057352
23.407876,7.492684834969055,0.0768273287443863
23.410268,7.502838900043739,0.0765386840801229
23.412648,7.512481108439223,0.0762375776789417
23.415044,7.523985647954266,0.0759321315750519
23.417432,7.534139713028949,0.0756477427521403
23.419816,7.551371015529521,0.0753150928889309
23.422212,7.570324879522789,0.0749812146033724
23.4246,7.579547779037693,0.0746984721723685
23.426984,7.595428607097906,0.0743853989856651
23.429388,7.615034097397231,0.0740610898960315
23.431772,7.630216077323144,0.0737809645940496
23.434152,7.639671294263527,0.0735276226627042
23.436548,7.648055576017271,0.0732833478207128
23.438936,7.654437757024598,0.0730523961863703
23.441332,7.665103678778478,0.0727860579418388
23.443728,7.671765399039525,0.0725426964393859
23.446116,7.678706658554291,0.0722880160557147
23.448496,7.678570680643169,0.0720793124672835
23.450892,7.677084228291688,0.0718913570725874
23.45328,7.675737545567068,0.0716977272130488
23.45566,7.675833885081424,0.071516701897734
23.458056,7.684869793141225,0.0712878666688037
23.460444,7.690832665267971,0.07107915247266
23.462824,7.691999939968966,0.0708904824233602
23.465228,7.697590725043375,0.0706633687817189
23.467612,7.7031815101177825,0.0704379042754919
23.469992,7.708120668886133,0.0702037948327235
23.472388,7.722930561759708,0.0699210253179716
23.474776,7.740953260193198,0.0696177985689531
23.477172,7.757113627507131,0.0693221721398109
23.479568,7.773833073328506,0.0690038695840395
23.481952,7.793485785456076,0.068673254931222
23.484332,7.815140598330061,0.0683329164082617
23.486736,7.838937281577325,0.0679790652521259
23.489124,7.862594195197727,0.0676342131458106
23.491504,7.893188576617157,0.0672573134118557
23.4939,7.921641087663313,0.0668959380914225
23.496288,7.952235469082746,0.0665191483891061
23.498668,7.981247058636343,0.0661352910633175
23.501072,8.011050044122857,0.0657566166622808
23.50346,8.034195101064062,0.0653988762040082
23.50584,8.052265021325795,0.0650718125126599
23.508236,8.072988668640004,0.0647441044048104
23.510624,8.097436978193326,0.0644090205845957
23.513008,8.116810151067172,0.064102146985617
23.515408,8.13259843132877,0.0637989172859662
23.517796,8.149317877150143,0.0634943515974307
23.520176,8.160962186292046,0.0632171367854717
23.522572,8.1653894883812,0.0629808546268078
23.52496,8.167814689723935,0.0627537750590815
23.52734,8.172241991813088,0.0625183317160571
23.52974,8.175598358715604,0.0622904938000742
23.532128,8.180165430431616,0.0620516602669858
23.534508,8.180588531027935,0.0618353540490443
23.536912,8.17835790457178,0.0616189991265741
23.539296,8.174404716622927,0.061401559303191
23.54168,8.174455730166908,0.0611679008776796
23.544076,8.17436697408403,0.0609396243689293
23.546464,8.179353354680625,0.0606893915580568
23.548844,8.184339735277218,0.0604400318395053
23.55124,8.193050778112925,0.0601841756476615
23.553628,8.200690885761993,0.0599348339940696
23.556008,8.208610532664782,0.0596761424723416
23.558412,8.213736682888236,0.0594220209742232
23.5608,8.220585394604386,0.0591701056245193
23.56318,8.22966852449243,0.0589350042270901
23.565576,8.239403280686535,0.0587095830494062
23.567964,8.252350842440553,0.0584659523169242
23.570344,8.268511209754484,0.0582034553270869
23.57274,8.286673677814834,0.0579342316379565
23.575128,8.304556606621464,0.0576767736789158
23.577508,8.321648139495176,0.0574157842135589
23.579908,8.335526866808975,0.0571742575245253
23.582296,8.354620500429101,0.0569083965375894
23.584692,8.374086221101567,0.05666205572302
23.587088,8.392201467333676,0.0564329010989161
23.589476,8.407383447259587,0.0562126217274678
23.591856,8.423496592745275,0.0559921921499821
23.594264,8.439469968604106,0.0557794640912509
23.596648,8.452789617410462,0.0555646657256724
23.599032,8.466528575097398,0.0553355831058384
23.601428,8.480547072038055,0.0550965330134455
23.603816,8.492563468232294,0.0548645507462377
23.606196,8.505930338866891,0.0546175205972646
23.608592,8.525443281367602,0.0543492029296881
23.61098,8.543373432002477,0.0540727466228375
23.61336,8.562654057077708,0.0537827120359014
23.61576,8.579932581406522,0.0535004790814806
23.618148,8.592135969055866,0.0532352282259597
23.620528,8.600195385585515,0.052986587680325
23.622924,8.606392470995607,0.0527393799859554
23.625312,8.617245384204592,0.0524908930326922
23.627692,8.626235966294018,0.0522425103505287
23.630088,8.632013742823531,0.0520114435378852
23.632476,8.636348497114067,0.0517664824708651
23.63486,8.642964891404738,0.0515071054876613
23.637256,8.65158338644183,0.0512425327867246
23.639644,8.656337449612947,0.050983977121804
23.642024,8.65508521054481,0.0507422615250156
