Time,Force,Position
24.62844,5.579399250102835,0.1595678381849925
24.63082,5.607749734061026,0.159286327669176
24.63322,5.632562547235207,0.1590117769452309
24.635604,5.652719532610496,0.1588325033650729
24.637988,5.673248605038125,0.1586756647517382
24.640388,5.705091433809952,0.1582863837058957
24.642776,5.734979383663607,0.1578837732084674
24.64516,5.764123159412587,0.1574451587432497
24.647556,5.791404604042008,0.1570445392873632
24.649944,5.819337674977489,0.1566520769419866
24.652324,5.844057940353053,0.1563429938053133
24.654724,5.865333082743225,0.1560865761270331
24.657112,5.8858640510287215,0.1557886898285888
24.659496,5.9024380396496285,0.1555352857139557
24.661892,5.913192717486387,0.1553566664211966
24.66428,5.926740892002483,0.1551259287414441
24.666664,5.940056749093101,0.15486606811094
24.671456,5.935822126032659,0.1547832006863464
24.673836,5.932518668531995,0.1546836807988036
24.676236,5.930937772524028,0.1545602163870155
24.678624,5.92907733726234,0.15445528655185
24.681008,5.930849016441149,0.1542440257556782
24.683404,5.933459313381119,0.1539773358500782
24.685792,5.935837292895611,0.1536809531379444
24.688172,5.937563646104046,0.1533854397722924
24.690568,5.945016762298011,0.1529841041164222
24.69296,5.947674281066224,0.152671998078957
24.69534,5.951589726476179,0.1522783485770754
24.69774,5.952479357781321,0.1519036892376965
24.700128,5.959794600206297,0.1513826419463234
24.702508,5.96818077781791,0.1508349665042728
24.704908,5.974425085056245,0.1503358654474836
24.707296,5.97615333412255,0.1499040209096155
24.70968,5.97974391430841,0.1494392532364855
24.712076,5.982543098561353,0.148982370648726
24.714464,5.985062743560574,0.1485447159575912
24.716848,5.995451021918604,0.1479484698431903
24.719244,6.013288624754859,0.1472252586515823
24.721632,6.024048990165225,0.1466549429638529
24.724016,6.031736319642538,0.1461513234706886
24.726416,6.041937606545463,0.1456216265323909
24.728804,6.048786318261613,0.145175050366475
24.731188,6.051910367738651,0.144789306966693
24.733584,6.053683942775329,0.1444459994088835
24.735976,6.051034007438594,0.1442096228812761
24.738356,6.044240100982163,0.1440612704373556
24.740756,6.04079876971251,0.1438302373324021
24.743144,6.034004863256079,0.1436808239331491
24.750312,6.002911896162534,0.143608516527503
24.752692,5.993369818997143,0.1435911170276802
24.755088,5.989554504817281,0.1434745925768559
24.757476,5.987741291383838,0.1433193836970935
24.759856,5.98657970425645,0.1431676603651105
24.762256,5.985278347502204,0.1430250023850405
24.764644,5.984908156307737,0.1428685664243101
24.767024,5.9782521236202975,0.1428432005223899
24.769424,5.974389587612194,0.1427746172880218
24.771812,5.977324749776257,0.1425889984131264
24.774196,5.977466415260986,0.1424462515296576
24.776592,5.977608080745717,0.1423026854907434
24.77898,5.981846495521896,0.1421231564796544
24.78136,5.991671903656746,0.1418605065189692
24.78376,6.005361743657569,0.1415323043276717
24.786148,6.0226364762706455,0.1411566862182045
24.788532,6.038001655935924,0.140857032391275
24.790928,6.056020562653674,0.1405232523756008
24.793316,6.074830865304345,0.1401847654195865
24.7957,6.101137714261485,0.1396862202471017
24.798096,6.124651066539289,0.1392355517082766
24.800488,6.146953714003595,0.1388137245114874
24.802868,6.168604735161844,0.1383941525897717
24.805268,6.187974116319953,0.1380306559874838
24.807656,6.207483267104925,0.1376608096122941
24.81004,6.228063353076534,0.137270886529324
24.812436,6.247013425354063,0.1369412975021381
24.814824,6.270759095057345,0.1365349374297611
24.817204,6.295435930320407,0.1361186284357937
24.819604,6.313454837038157,0.1358088923712326
24.821992,6.333475844502327,0.1354657078338404
24.824376,6.361505254952162,0.1349927399066343
24.826772,6.389953974282579,0.1345003191686656
24.82916,6.412024304321407,0.1340912542656372
24.831544,6.435584878427455,0.1336438477340793
24.83394,6.457702430294526,0.1331996543717385
24.836332,6.482520931042315,0.1326833367425715
24.838712,6.507618971043826,0.132154087714144
24.841112,6.5342072551125545,0.1315852971928153
24.8435,6.555860172128673,0.1310966600212726
24.84588,6.575371218771512,0.1306460575103294
24.84828,6.597955301347408,0.1301438986826242
24.850668,6.619840535789002,0.1296849166322042
24.853048,6.645078345417372,0.1291635092193885
24.855448,6.667522658366407,0.1286763414331707
24.857836,6.691969072061859,0.1281647689980715
24.86022,6.714832693891474,0.127660157075604
24.86262,6.734111423108837,0.1271933124335232
24.865004,6.749665490087087,0.1267716496769866
24.867388,6.765219557065337,0.1263488196265827
24.869788,6.776629652923893,0.1259936645443002
24.872176,6.778820640983283,0.1257891946915416
24.87456,6.778078362736477,0.1256264211870889
24.876956,6.7842735522887,0.1253644112925619
24.87934,6.785114065907731,0.125196346196221
24.881724,6.786466436205958,0.1250409300345695
24.88412,6.786049023183248,0.124942692764916
24.886508,6.786562775720314,0.1248342717589759
24.888888,6.783863722697466,0.124780602334884
24.891288,6.781024900047756,0.1247344789765939
24.893676,6.782050509264021,0.1246383206436895
24.896056,6.785869615159621,0.1245118088142774
24.915176,6.750353137692661,0.1244354642824213
24.91756,6.753333625827099,0.1243534949325829
24.919956,6.762320416200788,0.1241857351393781
24.922344,6.772098602507395,0.1240148497700312
24.924728,6.774520012134392,0.1239637251162105
24.927124,6.778152126574889,0.123886551793096
24.929512,6.781924010642246,0.1238021676017681
24.931896,6.786115203590183,0.1236949399652824
24.934292,6.789095691724621,0.1236139012194925
24.93668,6.79808248209831,0.1234501162881069
24.939064,6.810142308405054,0.1232416164674727
24.94146,6.818337702845825,0.123081219296479
24.943848,6.821737499860845,0.1229795697629562
24.946232,6.8290017287418365,0.1228314691875499
24.948628,6.844786217287692,0.1225864568227578
24.951016,6.86071047546041,0.1223369515480901
24.9534,6.877286359939187,0.1220902114152747
24.955796,6.898006215537657,0.121783948814823
24.958184,6.925431221509676,0.1213650492008227
24.960568,6.95779159453431,0.1208879832199736
24.962964,6.992713146812802,0.1203614346751194
24.965356,7.026051907225456,0.1198487207588646
24.96774,7.059530437264971,0.1193376223571945
24.970136,7.093008967304487,0.1188265239555243
24.972528,7.12811751103808,0.118268043744512
24.974908,7.168301191451147,0.1176491518460835
24.977304,7.2074139366775745,0.1170480904639125
24.979692,7.24880832190414,0.1164132459513907
24.982072,7.28782851933195,0.1157842710565477
24.984472,7.316186586721619,0.1152737252295413
24.98686,7.343613488551509,0.1147763563266911
24.98924,7.375184361501095,0.1142245266795199
24.991636,7.409828270383734,0.1136356687554648
24.994024,7.437534711467346,0.1131273093994904
24.996404,7.463006734379062,0.1126238528075668
24.998804,7.483683159865028,0.1121694406158442
25.001192,7.50813146941835,0.1116437169209353
25.003576,7.52671324635928,0.1111829217474544
25.005972,7.537146850687683,0.1108249837954794
25.00836,7.540922526470777,0.1105319472641344
25.01074,7.538552130387761,0.1103146033654679
25.01314,7.530175432065494,0.1101653940488298
25.029864,7.370644006413738,0.1101407885292961
25.032248,7.354398674732663,0.1100727283564381
25.034644,7.337361947118672,0.1100050025751052
25.039416,7.293697297039184,0.1099578478405265
25.041812,7.27349498569352,0.1098926384379296
25.044204,7.249660559907361,0.109890548577257
25.046584,7.23155289710673,0.1098347352570724
25.048984,7.209441032813267,0.109821670462434
25.051372,7.193195701132192,0.1097488034671312
25.053756,7.182025506130592,0.1096174310533287
25.056152,7.174579973368104,0.1094553898383283
25.058544,7.170347246165531,0.1092499067815694
25.060924,7.17077034676185,0.1090056066163287
25.063324,7.176920210343699,0.1087061674650281
25.065708,7.18185936911205,0.1084272558946822
25.068092,7.190151103067177,0.1080988101178852
25.070488,7.199001915529744,0.1077401034422058
25.072876,7.212508555791203,0.1073446187246897
25.07526,7.224804491239164,0.1069706611422709
25.077656,7.23337576444801,0.1066269842018465
25.080044,7.237570749111685,0.1063102088417577
25.082424,7.239763633028945,0.1060148748346892
25.08482,7.241816747319343,0.105726711434489
25.087208,7.252018034222268,0.1053460021207374
25.089588,7.263010717058113,0.1049668288686957
25.091988,7.276564579147815,0.1045386225323781
25.094376,7.2877442534387615,0.1041153928701415
25.096756,7.300506719595546,0.1036906382141904
25.099156,7.307682192393661,0.103309812869031
25.101544,7.313786730005136,0.1029452535279011
25.103924,7.318168706123915,0.1025885737561279
25.10632,7.321479747056055,0.1022454719821563
25.108708,7.322416600189441,0.1019031382426564
25.111092,7.323772762203408,0.1015413452912242
25.113488,7.329272895337069,0.1011330453877551
25.115876,7.327975330298559,0.1007844238474947
25.11826,7.329191722685667,0.1004276360921419
25.120656,7.325332978393299,0.1001251048262576
25.123048,7.321893542981515,0.0998021458352204
25.125428,7.318174568316008,0.0994902817870025
25.127828,7.312546040702704,0.0992310226016415
25.130216,7.308919613835815,0.0989509137357136
25.1326,7.305572726222647,0.0986575671822482
25.134996,7.293798126743231,0.098464457759197
25.137384,7.279602117636817,0.0983109768229571
25.139764,7.263124468530266,0.0981901038608086
25.142164,7.245156575356495,0.0981016852446317
25.144548,7.228539156623085,0.0979860394011138
25.146932,7.216577565688564,0.097837237088963
25.149328,7.199401068447713,0.0977471780185298
25.151716,7.184086902326419,0.0976433760815095
25.154096,7.169843671391762,0.0975259179953803
25.156492,7.157974628255859,0.0974086505467498
25.15888,7.146757211426015,0.0972978245173157
25.16126,7.132606528289975,0.097211732788128
25.163656,7.127115874445661,0.0970561920196313
25.166044,7.127119666161399,0.0968320734055596
25.168428,7.1284739323174975,0.0965817098822934
25.170824,7.129269119966153,0.0963570534932926
25.173212,7.137281314667559,0.0960586443993373
25.175596,7.147994458249684,0.0957084708913637
25.177996,7.159219458511005,0.0953729143533878
25.180384,7.169093984331968,0.0950630913548315
25.182768,7.185114582019041,0.0946909788986642
25.185164,7.203277050079391,0.0942944307017412
25.187552,7.225443719632577,0.0938622828355238
25.189932,7.246818993252844,0.0934281452516353
25.192332,7.26684379243275,0.0930214902009786
25.19472,7.283935325306462,0.0926406000650112
25.197104,7.305310598926728,0.0922083182975743
25.199504,7.325475167733495,0.0917966336582418
25.201888,7.345360197286541,0.091398973111239
25.204272,7.364593600533531,0.0909957158858747
25.206668,7.381964672660963,0.0906047126557733
25.20906,7.402920637400648,0.0902003154152632
25.21144,7.416799364714444,0.0898617907108428
25.21384,7.426394351281686,0.0895748536934155
25.216232,7.439434460834321,0.0892812388419569
25.218612,7.455687375946872,0.0889541306307303
25.221012,7.467516780686007,0.0886816778038898
25.2234,7.481068746917841,0.0884072712121774
25.22578,7.4951797916571135,0.0881096728058947
25.228176,7.508359670836608,0.0878160080716456
25.230568,7.516604182963491,0.087559693610618
25.232948,7.524057299157456,0.0873030482745289
25.235348,7.527366444231728,0.0870846849128948
25.237736,7.534400251545112,0.0868472703225929
25.24012,7.538640562179162,0.0866235889389907
25.242516,7.546745304679185,0.0863756123474744
25.244904,7.558434939791461,0.0861169252466596
25.247284,7.572266445277014,0.0858381290646227
25.249684,7.58437538926987,0.0855621641524108
25.252072,7.596344563635867,0.0852930176135237
25.254456,7.608034198748143,0.0850355369747484
25.256852,7.614788466807807,0.0848137582191627
25.25924,7.623544835613888,0.0845754868463197
25.26162,7.626666989233055,0.0844022548252907
25.26402,7.626716106919168,0.0842558352725257
25.266408,7.625834059045502,0.0841146324250833
25.268788,7.624812241544975,0.0839794782020692
25.271188,7.62257971923095,0.0838613905039739
25.273576,7.616063456170371,0.0837849932930856
25.275956,7.614482560162404,0.0836744554132315
25.278356,7.618488657513106,0.0835376253490637
25.280744,7.623006611543007,0.083414821307245
25.283128,7.631528767065741,0.083262785546654
25.285524,7.634836016282144,0.0831562858528847
25.287916,7.644801194043855,0.0830138949714894
25.2903,7.647549364752816,0.0829315793420096
25.292696,7.644570772476246,0.0828811767002704
25.295084,7.637448209079984,0.0828656111144305
25.297468,7.636843804602169,0.082820523708397
25.299868,7.641034997550108,0.082749369000068
25.302256,7.649230391990879,0.082650552857353
25.304636,7.660498822364704,0.0825278292495432
25.307032,7.678425181283839,0.0823727170287006
25.309424,7.7017062161361665,0.0821667514554045
25.311808,7.725406559869073,0.0819438487378078
25.314204,7.745754328415205,0.081756489026483
25.316592,7.765730009908999,0.0815497314727902
25.318976,7.784494986589295,0.0813590333381576
25.321372,7.81005766144176,0.081129475299799
25.32376,7.831476365174531,0.0809346381525213
25.326144,7.8521036729743825,0.0807401483242099
25.32854,7.869006318535123,0.0805605167955827
25.330928,7.884046632976305,0.0803897583726635
25.333312,7.908585594470373,0.0801404658061058
25.335708,7.927118253725193,0.0799319147621387
25.338096,7.949934653726565,0.0796838557967895
25.34048,7.976615485593912,0.0794155833157023
25.342876,8.006369353394314,0.0791245216739787
25.345264,8.030536227836045,0.0788586953654008
25.347648,8.04576353373233,0.0786495941947608
25.350044,8.058476882203003,0.0784417686701986
25.352432,8.068256964367478,0.0782504335439668
25.354816,8.073660757986783,0.0780677498502514
25.357212,8.080694565300167,0.0778550121467758
25.359604,8.086377898173193,0.0776623500484331
25.361984,8.096344971792773,0.0774340598478868
25.364384,8.109385081345408,0.0771858912099509
25.366772,8.121261707912787,0.0769163150074756
25.369156,8.129693211494773,0.0766508708942608
25.371568,8.136541923210924,0.0763797199979722
25.37396,8.138734807128182,0.0761247689815586
25.376344,8.146142597351773,0.0758315560522047
25.378744,8.151827826082668,0.0755389685412268
25.381136,8.150575587014533,0.0752870701600633
25.383524,8.149091030520923,0.0750093925894833
25.385936,8.147606474027311,0.0747318661939992
25.38832,8.142676794548308,0.0744557202565651
25.390704,8.138957819882801,0.0741666540443663
25.393116,8.132445348537962,0.0738850337706957
25.395504,8.130076848312815,0.0735736703011647
25.397884,8.124216003274032,0.0732980145379745
25.40028,8.123570064541582,0.072985890912979
25.402668,8.118919924316298,0.0726960798601775
25.405048,8.109706504090738,0.0724509174495841
25.407444,8.103054263119038,0.0721724988339199
25.409832,8.092677359908226,0.0719053215480854
25.412212,8.080158586324135,0.0716548747564484
25.414612,8.068291439046101,0.0714116495414394
25.416996,8.053071716581293,0.071197567322638
25.41938,8.044649692288651,0.0709537439614448
25.421776,8.037950229488708,0.0707090012113292
25.424164,8.031250766688764,0.0704652735682314
25.426544,8.025202930194878,0.0702290692274477
25.42894,8.015942288141076,0.0700157925926244
25.431328,8.012268639445944,0.0697870858997688
25.433708,8.010597091497228,0.0695485321854932
25.436124,8.011299731347268,0.0693187607563707
25.438512,8.009860500824031,0.0691054421628455
25.440892,8.015218968472963,0.0688645467262672
25.443288,8.022859076122032,0.0686039707285668
25.445676,8.035853859704293,0.0683048477156724
25.44806,8.044704672166858,0.0680325675151989
25.450456,8.056209211681901,0.0677581869422369
25.452844,8.070135160823941,0.0674576053795443
25.455224,8.080848304406064,0.0671803756820711
25.457624,8.093144239854025,0.0669093037367056
25.460012,8.105300405675125,0.0666442399988141
25.462396,8.121460772989057,0.0663614805091573
25.464792,8.13883184511649,0.0660643243128748
25.467176,8.15219871575109,0.0657886225479213
25.46956,8.171851427878659,0.0654767518395174
25.471956,8.188570873700034,0.0651776830566598
25.47434,8.208503125081323,0.0648582347959646
25.476724,8.235652383515362,0.064499678611544
25.47912,8.259868375643206,0.0641549236979695
25.481508,8.281570410345436,0.063807236509899
25.483888,8.30089825724891,0.0634497377495901
25.486284,8.318503542659688,0.0630905193532899
25.488672,8.332104626577634,0.0627503261714014
25.491052,8.339419869002608,0.062445914112914
25.493448,8.343941614748248,0.0621474336040493
25.495836,8.349674065307385,0.0618371867416282
25.498216,8.35782792549352,0.0615045650103267
25.500616,8.367844116799212,0.0611706144357838
25.503,8.379862408851322,0.0608284468452437
25.505384,8.394302110530427,0.0604646456943281
25.50778,8.408881581836393,0.0600964966420442
25.510168,8.419456851649528,0.0597456080830508
25.512548,8.43724912851541,0.0593628668146758
25.514944,8.454250009448373,0.0589767492736538
25.517332,8.461380156276112,0.0586241109434131
25.519712,8.467159828663494,0.0582868598190712
25.522108,8.471077169931316,0.0579533677840088
25.5245,8.468848439333032,0.0576469380568823
25.52688,8.465548773548107,0.0573464265111388
25.529292,8.46276096444238,0.0570597209183666
25.53168,8.46155594720249,0.0567805357971824
25.534064,8.462213261082155,0.0564990139688081
25.53646,8.464872675708236,0.0562108588993198
25.538848,8.471955600707734,0.0558930160063784
25.541228,8.47875898645351,0.0555850184613539
25.543624,8.487424703318844,0.05527672806016
25.546012,8.490084117944926,0.0549882968356332
25.548392,8.489670496637952,0.0547128236312567
25.550792,8.48897733607726,0.0544474219971959
25.55318,8.483209038837092,0.0542004326624204
25.55556,8.473436540104096,0.0539651178890468
25.557956,8.462732875811318,0.0537296511701756
25.560344,8.443601499652292,0.0535342474935667
25.562728,8.423259418679768,0.0533484504379273
25.565124,8.409575266252551,0.0531525020068554
25.567512,8.399103919385253,0.0529395576228594
25.569892,8.38821326363737,0.0527413549801979
25.572292,8.38211820531524,0.0525351894260898
25.57468,8.377885478112669,0.0523279797834288
25.57706,8.374583916469874,0.0521205393638237
