Time,Force,Position
3.777284,0.4069363900106692,0.0
3.77962,0.41908876411603063,0.0
3.781968000000001,0.4284476415420569,0.0
3.784312,0.43086905116905444,0.0
3.78666,0.43450116560955065,0.0
3.788995999999999,0.43533978337071194,0.0
3.79134,0.4320344300121793,0.0
3.793692,0.4265872062803696,0.0
3.796028,0.42393347922789487,0.0
3.798372000000001,0.4172755506825864,0.0
3.800716,0.4112692484433359,0.0
3.803064000000001,0.40153828396497204,0.0
3.805400000000001,0.39394918985988525,0.0
3.807744,0.3817042679559069,0.0
3.810084,0.36717770605179123,0.0
3.812424,0.34929856896089967,0.0
3.814764,0.3267636040711166,0.0
3.8171079999999993,0.3048802654873915,0.0
3.819448,0.28779252432941815,0.0
3.821788,0.26576941611883287,0.0
3.824128,0.24267537272160902,0.0
3.8264720000000008,0.22158343007080197,0.0
3.828811999999999,0.2071494159653034,0.0
3.831156,0.19536912891227956,0.0
3.833500000000001,0.18251790667261716,0.0
3.835844,0.1746020514855668,0.0
3.83818,0.17376343372440547,0.0
3.840524,0.1724129592840465,0.0
3.84286,0.16826898816435262,0.0
3.8452040000000007,0.16533572185815748,0.0
3.847543999999999,0.16333362111174063,0.0
3.849888,0.16612711779107558,0.0
3.852228,0.16477664335071662,0.0
3.854571999999999,0.1682217663361095,0.0
3.856920000000001,0.1730173637618613,0.0
3.859264,0.18209670193416724,0.0
3.861616,0.18875463047947572,0.0
3.863956,0.19168789678567086,0.0
3.8663000000000007,0.19168789678567086,0.0
3.868644,0.1926190623454492,0.0
3.87098,0.19462116309186606,0.0
3.8733280000000008,0.1986253645846998,0.0
3.875672,0.19876513421155997,0.0
3.878016000000001,0.19359744973347068,0.0
3.880356000000001,0.19015232674807783,0.0
3.8827,0.18098044077715483,0.0
3.8850440000000006,0.16780435331339816,0.0
3.88738,0.15541966178255956,0.0
3.889728,0.14263426684042124,0.0
3.89208,0.13064026783120097,0.0
3.89442,0.11983836816619858,0.0
3.8967639999999992,0.10598203803742169,0.0
3.899108,0.09597153430533743,0.0
3.90146,0.08717173538675191,0.0
3.903803999999999,0.07795262758758577,0.0
3.906144,0.06659164941514258,0.0
3.9084920000000007,0.06230790866858844,0.0
3.910828,0.05774462866831389,0.0
3.913172,0.054112514227817675,0.0
3.915524,0.049549234227543135,0.0
3.917868,0.043561537457573456,0.0
3.9202080000000006,0.03664267512782545,0.0
3.922604,0.02972381279807744,0.0
3.924988000000001,0.02638984308058251,0.0
3.9273760000000006,0.022264477430169467,0.0
3.9297679999999993,0.020932608459091385,0.0
3.932156000000001,0.019600739488013306,0.0
3.93454,0.018268870516935223,0.0
3.936944,0.018268870516935223,0.0
3.939332,0.018268870516935223,0.0
3.941728,0.017216540799577563,0.0
3.944124,0.017216540799577563,0.0
3.946512,0.016443750335940324,0.0
3.948908,0.01352908949902602,0.0
3.951304,0.011825133475610459,0.0
3.953692,0.010121177452194898,0.0
3.956088,0.005483955122584164,0.0
3.958484,0.0029886031662504924,0.0
3.960868,0.0004932512099168205,0.0
3.963272,0.0,0.0
3.965668000000001,0.0,0.0
3.9680560000000007,0.0,0.0
3.970459999999999,0.0029146608369143025,0.0
3.9728600000000007,0.008902357606883985,0.0
3.975244,0.015681450309771777,0.0
3.977648,0.024183104505356004,0.0
3.980044,0.032544989074080016,0.0
3.982428000000001,0.03797360733660886,0.0
3.984828,0.044053851905195604,0.0
3.987224,0.04906316128714382,0.0
3.989616,0.056214341042369095,0.0
3.9920240000000007,0.06401714710365228,0.0
3.994408,0.06902645648560048,0.0
3.996808,0.07496693142732701,0.0
3.9992040000000006,0.07890530562263669,0.0
4.0015920000000005,0.08498555019122343,0.0
4.003988,0.09306789550622703,0.0
4.006384000000001,0.10315234156764748,0.0
4.008772,0.11724098912190163,0.0
4.011168,0.12946730555659913,0.0
4.013564000000001,0.13862058605824126,0.0
4.015952,0.1471222402538255,0.0
4.018332000000001,0.14977596730630025,0.0
4.020728,0.1487050321196617,0.0
4.023116,0.1439094346939099,0.0
4.025499999999999,0.1354077804983257,0.0
4.027896,0.12704589592960167,0.0
4.030284,0.12322868589187133,0.0
4.032667999999999,0.1171484413232846,0.0
4.035064,0.11213913194133639,0.0
4.037448,0.10498795218611111,0.0
4.0398320000000005,0.09718514612482794,0.0
4.042228,0.09217583674287971,0.0
4.044616,0.08623536180115318,0.0
4.046996,0.08229698760584349,0.0
4.049391999999999,0.07621674303725676,0.0
4.051780000000001,0.06813439772225316,0.0
4.054176,0.058049951660832703,0.0
4.056571999999999,0.04396130410657856,0.0
4.058960000000001,0.03173498767188104,0.0
4.061344,0.022581707170238916,0.0
4.063739999999999,0.014080052974654691,0.0
4.066128000000001,0.008511665085265638,0.0
4.068508,0.0035949035019344844,0.0
4.0709040000000005,0.0016114082247985022,0.0
4.073292,0.004758386487190075,0.0
4.075672000000001,0.007905364749581647,0.0
4.078072000000001,0.010372100346953034,0.0
4.08046,0.01566094898262167,0.0
4.082839999999999,0.02323143761842757,0.0
4.085243999999999,0.03173309181401179,0.0
4.0876280000000005,0.040094976382735806,0.0
4.090007999999999,0.04952779613809835,0.0
4.092408000000001,0.06003155108009943,0.0
4.094792,0.07174601083559926,0.0
4.097175999999999,0.08439163615087739,0.0
4.099572,0.09410399515996035,0.0
4.10196,0.10409589342276372,0.0
4.1043400000000005,0.11529849649906586,0.0
4.106736,0.12729249550828609,0.0
4.109124,0.13621345858445094,0.0
4.111508000000001,0.145274191287476,0.0
4.113904,0.15326398880386255,0.0
4.116292,0.15925168557383224,0.0
4.118688000000001,0.16309751197052486,0.0
4.121084,0.16072332417177054,0.0
4.123472,0.15757634590937894,0.0
4.125852,0.15349820208720907,0.0
4.128252,0.14870260466145727,0.0
4.13064,0.14113211602565137,0.0
4.13302,0.13263046183006716,0.0
4.135415999999999,0.12426857726134312,0.0
4.137803999999999,0.11483575750598059,0.0
4.140184,0.10433200256397951,0.0
4.142583999999999,0.0931107940183965,0.0
4.144971999999999,0.08046516870311836,0.0
4.147352,0.07217722646373054,0.0
4.149748000000001,0.06640324164995726,0.0
4.1521360000000005,0.06207227907515998,0.0
4.15452,0.05722945982116502,0.0
4.156916000000001,0.05960364761991934,0.0
4.159307999999999,0.061977835418673674,0.0
4.161683999999999,0.06449179284428821,0.0
4.164076,0.06779714620282087,0.0
4.166460000000001,0.073523909188351,0.0
4.168856,0.08432580885335336,0.0
4.171248,0.09697143416863149,0.0
4.173636,0.1086858939241313,0.0
4.1760280000000005,0.11697383616351914,0.0
4.178424,0.12761736073238042,0.0
4.180808000000001,0.13518784936818634,0.0
4.183188,0.14368950356377055,0.0
4.185584,0.14697625145302232,0.0
4.187968,0.14732973303607894,0.0
4.190364000000001,0.14683648182616213,0.0
4.19276,0.14683648182616213,0.0
4.195144000000001,0.14541206505646698,0.0
4.197524,0.1411941516074369,0.0
4.1999200000000005,0.13432251110593205,0.0
4.202308,0.12717133135070677,0.0
4.204700000000001,0.11587618047578756,0.0
4.207103999999999,0.10444125997400817,0.0
4.209491999999999,0.0939375050320071,0.0
4.211872,0.08464445490350476,0.0
4.214276,0.075071865521282,0.0
4.216659999999999,0.06349717539264241,0.0
4.21904,0.05085155007736428,0.0
4.221436000000001,0.039137090321864465,0.0
4.2238240000000005,0.030355896872559813,0.0
4.226203999999999,0.019712372303698527,0.0
4.228608,0.01214188366789262,0.0
4.2309920000000005,0.0036402294723083925,0.0
4.233371999999999,0.0003534815830566103,0.0
4.235776,0.0,0.0
4.238163999999999,0.0,0.0
4.240544,0.0,0.0
4.242952000000001,0.0,0.0
4.245336,0.0016982684498078287,0.0
4.2477160000000005,0.012704400781660394,0.0
4.250120000000001,0.03944211225751962,0.0
4.252504,0.0841458210492796,0.0119596407592731
4.2548840000000006,0.15487115197085094,0.0217595779309702
4.257288000000001,0.24407623274538995,0.030965536027023753
4.259676000000001,0.3460343003873666,0.04016189987702173
4.262055999999999,0.4633518601210124,0.04933930102752444
4.264448,0.6029191579171131,0.05822673971137948
4.266836,0.7700908697088615,0.0666416961757253
4.269216,0.9654732958319413,0.07458540351746366
4.271611999999999,1.178823615128791,0.08242610493811163
4.273999999999999,1.4099548361443077,0.09025487902580472
4.27638,1.6648260392894982,0.09797877150161631
4.278776000000001,1.9437167638180832,0.10559574770509521
4.281164,2.2410872381996363,0.11317019991954658
4.283543999999999,2.5587072457550963,0.12063986045072303
4.285947999999999,2.8969488735368008,0.12803598327417207
4.2883320000000005,3.2568358349031463,0.13538706316993113
4.290716,3.638183034256897,0.14263628007347343
4.293112000000001,4.032496400833947,0.14978327415232967
4.295496,4.424020062447402,0.15685336865091526
4.2978760000000005,4.794784230065619,0.16396199157794542
4.300272,5.146139378128962,0.15911265486473158
4.30266,5.467189163315939,0.1564954142742852
4.305056,5.769898968276808,0.15446523128706646
4.307452,6.0619976567435145,0.1524082999956293
4.30984,6.339295931625995,0.15034289630517098
4.31222,6.587966079154433,0.1486396364552438
4.314615999999999,6.804236215261471,0.14747404791948515
4.317,6.988151665917483,0.14684887673111388
4.319384,7.1510261874666705,0.14637776760973134
4.321783999999999,7.290672583565382,0.14598611207487694
4.324168,7.400992004175747,0.14577643006146368
4.326548000000001,7.485010263402583,0.14572272586629742
4.328951999999999,7.549198298336091,0.14574779744064353
4.331340000000001,7.589132598602857,0.14594734384337665
4.33372,7.605651781964043,0.14626193467873075
4.336124,7.601224479874894,0.14658237371533825
4.338507999999999,7.5726832127458605,0.14703854838141414
4.340888,7.52440237326425,0.14769203990383853
4.343284000000001,7.469743144491049,0.1484143849788093
4.345672,7.426677211315767,0.14895791286330443
4.348048,7.38268011258071,0.14951777516860895
4.350452000000001,7.341616280151845,0.15004302957356805
4.3528400000000005,7.304229888133853,0.15055262411075865
4.355219999999999,7.268146748727976,0.1510590954214814
4.357616,7.2305733652548785,0.1516066882166677
4.359999999999999,7.203242802939343,0.15202009820579065
4.362396,7.1796369028629226,0.15238947387628393
4.364796,7.160826600212251,0.15269158379623382
4.367179999999999,7.146811894987331,0.15292344328939605
4.36956,7.142108845360196,0.1530272640720451
4.371964,7.142992789091732,0.15305399294513458
4.374352,7.145227207263625,0.15304477534272223
4.3767320000000005,7.1543990932345505,0.1529216037731705
4.379128,7.171951469243478,0.152680399196973
4.381516,7.191226406745103,0.15241755399904883
4.383896,7.203796193873176,0.1522929781415538
4.386304000000001,7.218879938426863,0.1521420415147445
4.388688,7.239038819660022,0.1518960108562729
4.391068000000001,7.2578472264528235,0.1516861997633661
4.393464,7.267668842871937,0.1516735863606859
4.395852,7.284800014142414,0.15156181712135502
4.398232,7.3039805079875535,0.1513748855631901
4.400627999999999,7.314036337690012,0.1512739011128222
4.403015999999999,7.319995418101019,0.15121043645531645
4.405396,7.3310296351914985,0.15105825865531727
4.407792000000001,7.338758498923447,0.15093815558058524
4.410176,7.349048541909252,0.1507543578418001
4.412568,7.353239734857188,0.1506382893736281
4.414964,7.355568596685572,0.1505489798564656
4.417351999999999,7.358828624073732,0.15044824529587691
4.419732,7.3713077592610565,0.15019232153276021
4.422132,7.384625512209543,0.1498920747383494
4.424519999999999,7.387328356948131,0.1497130153238044
4.426895999999999,7.379648610902296,0.14967908139822517
4.429292,7.37876656302863,0.14954313052072005
4.431676,7.3921787596336035,0.14916918697846365
4.4340720000000005,7.408850983626737,0.14870115515103904
4.436476000000001,7.426082286127306,0.14820508878787272
4.43886,7.4443845238145165,0.14768784988722752
4.4412400000000005,7.470555394860532,0.1470538187068638
4.443636,7.49169835105532,0.14647060299454762
4.446024,7.510327349824495,0.1459093239260982
4.448416,7.533891715646281,0.14526798916301914
4.450812000000001,7.5595507300130995,0.1446275046282462
4.453196,7.5815776299394235,0.1440718027501527
4.455576000000001,7.601602429119331,0.14354715811325192
4.457979999999999,7.616459543821147,0.14307139861494622
4.460368000000001,7.637183191135356,0.1425051352545107
4.462748,7.659769169569119,0.14191638438272602
4.465152,7.676488615390491,0.14141741884196807
4.467536000000001,7.678169642628552,0.14111629728987482
4.469916,7.67519484206772,0.1408717162597759
4.47232,7.675106085984839,0.1406210532999761
4.474708,7.688612726246298,0.1401756386039091
4.477088,7.696672142775947,0.13979831482073707
4.4794920000000005,7.6915554718418395,0.13959167919868248
4.481876,7.677079923481705,0.13953758355406728
4.484256,7.663907627733689,0.1394883188164874
4.4866600000000005,7.658184656463895,0.1393485716556937
4.489044,7.645711208850179,0.13926268881597353
4.491424,7.6300249556765465,0.13923065614072577
4.493816000000001,7.610427048808695,0.13929015787164145
4.4962040000000005,7.589710984925966,0.1394073426866093
4.4985800000000005,7.569833538804395,0.13948026642531827
4.500976,7.548560292272094,0.13951570839243346
4.503360000000001,7.526635419433734,0.1395483651129084
4.505756,7.506106347006104,0.1396202201695914
4.50816,7.486600987936869,0.13971143361112368
4.510543999999999,7.467235398494498,0.13979411612127535
4.5129280000000005,7.447917030880368,0.13983837471902716
4.515332000000001,7.432695412557687,0.1398560280395374
4.517716,7.428460789497246,0.1397820010694681
4.520096000000001,7.431023864608972,0.13961437567093526
4.522496,7.423344118563137,0.13957110883035734
4.524884,7.4150127462112465,0.13952447442321536
4.527264000000001,7.413431850203278,0.13942375681654084
4.529664,7.417530495352596,0.13928559965879173
4.532052,7.4197668093823586,0.13917064612974892
4.534432000000001,7.4124591503888615,0.13914420343826903
4.536835999999999,7.403940786581865,0.1391433445381332
4.53922,7.402172899118792,0.13908815520672407
4.541600000000001,7.411578998373063,0.13889762866845867
4.543996,7.428341874306941,0.1385878144500234
4.546384,7.441752175054043,0.13834085786518915
4.548764,7.4564185065850195,0.13813870564893466
4.5511680000000005,7.479557875952615,0.13787167965676342
4.553556,7.510054021999823,0.137488067267242
4.555936000000001,7.541388785808193,0.13706612489215725
4.558332,7.571280527377586,0.1366477778399156
4.560715999999999,7.603499234917491,0.136256812940566
4.563096,7.639814691748845,0.13584025124496996
4.5655,7.666027097049501,0.13553588797493044
4.567888,7.684790177871929,0.1353176797234385
4.570268,7.709140252053025,0.13503650072637696
4.572664,7.734234500338799,0.1347893407364872
4.575048000000001,7.7591889789977095,0.13455132261741412
4.577427999999999,7.786704636910481,0.13425861194479147
4.579832,7.81515146038303,0.1339561800576837
4.582216000000001,7.847555263520169,0.13363590819509233
4.584596,7.887128851881815,0.13324847997878805
4.587,7.9215347557653715,0.13290431969600136
4.589388,7.950772975170838,0.1326065301391825
4.591768,7.9744242012176345,0.13237417963718787
4.594172,8.001008693570625,0.13210560079425404
4.596556,8.031225300364115,0.13177036766077677
4.598936,8.05105931637318,0.1315512388090008
4.60134,8.061674224583083,0.13146017759519912
4.603728,8.072800989472178,0.13138051390660088
4.606108000000001,8.087233107719808,0.13128338034388162
4.608511999999999,8.105437110034794,0.13111495235949597
4.610896,8.124339960484082,0.13091688821147726
4.613276000000001,8.152042609851955,0.13061705577135993
4.615679999999999,8.187613892578634,0.13022661871793778
4.618064,8.223045405678453,0.12984778982713263
4.620443999999999,8.258384370979657,0.12944045375919502
4.62284,8.291069609228385,0.1290545487122791
4.625223999999999,8.32589671785039,0.12864427771529177
4.627604,8.359652891285757,0.1282496264575179
4.630008,8.391826272855287,0.12786188723578856
4.632396,8.419483596252785,0.12751584485817805
4.6347760000000005,8.452727913008955,0.12711947763236975
4.637180000000001,8.488625956817598,0.12670657464238752
4.639568000000001,8.526246562118938,0.1262852199678921
4.641947999999999,8.562144605927582,0.1258768459740977
4.644352,8.591384721190913,0.125535557786446
4.646739999999999,8.630775109813195,0.12507571112737642
4.64912,8.67966414548836,0.12449344654062566
4.651524,8.725108058178133,0.12393575529610956
4.653908,8.7621714808299,0.1234524213859535
4.6562920000000005,8.790574874189943,0.12305802753839401
4.658683999999999,8.81618477087065,0.12269137022036566
4.661072000000001,8.833274407886492,0.1224053703743087
4.663448000000001,8.846359843409502,0.12216659511184097
4.665851999999999,8.8539980552007,0.12197004296488514
4.668240000000001,8.863498598111457,0.12175851662226725
4.670624,8.875280781022349,0.12151390731004295
4.673019999999999,8.881196431320852,0.12132922517127193
4.675404,8.885529289753519,0.12114811060948254
4.677784000000001,8.890933083372824,0.12095373324353702
4.68018,8.896476646618991,0.12075373179584076
4.682563999999999,8.897504151693125,0.12058762863848596
4.68496,8.894155368222087,0.12044875110041897
4.687352000000001,8.886010987325298,0.12035405575124823
4.6897400000000005,8.878937541615144,0.1202458359824656
4.692119999999999,8.87493713183805,0.12010271314013199
4.694512,8.86227669276923,0.12003975505650606
4.696899999999999,8.84253901627452,0.12005166817384269
4.699292,8.824523901272505,0.12005394673087617
4.701688000000001,8.811164614069384,0.12001919627743714
4.704076000000001,8.801529989105376,0.11995415946594833
4.7064520000000005,8.790824428954728,0.11990236284372663
4.708848,8.78677679734939,0.11979145966611095
4.711236,8.783008704997773,0.11966916320579475
4.7136320000000005,8.784175979698768,0.11949761446142232
4.716036000000001,8.783760462533927,0.11933007881919488
4.71842,8.782134240555585,0.1191816561840426
4.7208000000000006,8.783441284883438,0.11900521448353055
4.723196,8.788892300330986,0.11878235716908916
4.725584,8.792201445405258,0.11858576154038009
4.727964,8.796441756039306,0.11838230249985505
4.730368,8.800542297046494,0.1181842298615603
4.732756,8.807156795479296,0.11797565003439993
4.735136000000001,8.81777549540493,0.11772595422282887
4.737532,8.82639209458415,0.11749689540374408
4.73992,8.836591485629205,0.11726572132089033
4.7423,8.850375769286513,0.11701088987863041
4.7447040000000005,8.865091218503602,0.11674788520229167
4.747088,8.877013171041357,0.116506615531931
4.749468,8.891216763579246,0.11623481907736415
4.7518720000000005,8.906351521676916,0.1159564846495137
4.754256,8.921626049401446,0.11567204151023708
4.756640000000001,8.93317591488686,0.11541763710204388
4.759043999999999,8.941652744439219,0.1151961012135806
4.761428,8.950129573991576,0.11497629033500255
4.763807999999999,8.958978490596273,0.11477263031768924
4.766212,8.969969277574249,0.11454479689377275
4.768599999999999,8.978957963805808,0.11433670890495806
4.77098,8.984733844477448,0.11416669339615507
4.773376000000001,8.99092903402967,0.11397965170002661
4.775764000000001,8.994842583581754,0.11382317585211955
4.778143999999999,8.999687298693619,0.11365973917937947
4.780548,9.000527812312647,0.11353467418939389
4.782935999999999,9.001508095558538,0.11340442238070594
4.785316,9.002628148431292,0.1132683724840047
4.78772,9.000023539064928,0.11315967343905464
4.790104,8.997558699325426,0.11304559355353022
4.792484,8.99709596033234,0.11291244898491556
4.794879999999999,8.99756438689903,0.11277215253557679
4.797268000000001,8.99910374865236,0.11262056966115022
4.799648,9.00199358484605,0.11244654166628953
4.802044,9.00395225547996,0.11227869625096983
4.804428,9.005771156487011,0.11211611726023493
4.806808,9.011454489360036,0.1119217496032782
4.809203999999999,9.01206268555359,0.11177684190446475
4.811588,9.011227859508168,0.11162858614245992
4.813972,9.003455565663716,0.11154263896099396
4.816371999999999,8.995683271819262,0.11145655846471066
4.818759999999999,8.989121682788308,0.1113526338563616
4.821152,8.988286856742885,0.11120437001699687
4.823548000000001,8.993086245884376,0.11098623303501985
4.825936,9.000958670958923,0.11073916581224047
4.828312,9.01511693752644,0.11042711204114972
4.830716000000001,9.029275204093956,0.11011668459139662
4.8331040000000005,9.046226967340807,0.10978848871273045
4.835483999999999,9.068253867267131,0.10941431521526525
4.83788,9.088558205700759,0.10904801802334357
4.840264,9.107000213014828,0.10869469898260843
4.842644,9.129446421821733,0.1083078979270235
4.845048,9.145746558762527,0.10797966574002864
4.847436,9.15697155902385,0.10769796122191276
