Time,Force,Position
5.772944,0.14269686088756822,0.0
5.775336,0.14362802644734654,0.0
5.777724,0.14961643249947595,0.0
5.780119999999999,0.15147876361903256,0.0
5.782512,0.15105945473845192,0.0
5.7849,0.14372057424596363,0.0
5.78728,0.13715519349927222,0.0
5.789684,0.1259339849536892,0.0
5.792068,0.11244903259509006,0.0
5.794448,0.09803291467671263,0.0
5.796852,0.0844081926912533,0.0
5.79924,0.07278557145221085,0.0
5.801619999999999,0.06409621651936354,0.0
5.804016,0.05382406972068001,0.0
5.806404,0.045693793295273545,0.0
5.808784,0.037703286496727294,0.0
5.811179999999999,0.030504175631099147,0.0
5.813567999999999,0.024655539205829958,0.0
5.81596,0.02253156501967405,0.0
5.8183560000000005,0.020297146847779928,0.0
5.820744,0.0219271605418593,0.0
5.823123999999999,0.023417404609078457,0.0
5.82552,0.021694843116382027,0.0
5.827903999999999,0.02276577830302056,0.0
5.830284,0.02304531755674098,0.0
5.832688,0.025169291742896886,0.0
5.835076,0.023306960623340242,0.0
5.837456,0.02318508718360119,0.0
5.839852,0.02318508718360119,0.0
5.842235999999999,0.02318508718360119,0.0
5.84462,0.02318508718360119,0.0
5.847015999999999,0.02318508718360119,0.0
5.8494,0.02318508718360119,0.0
5.851795999999999,0.02318508718360119,0.0
5.854188,0.02318508718360119,0.0
5.856576,0.02318508718360119,0.0
5.858956,0.02318508718360119,0.0
5.86136,0.023185087183601193,0.0
5.863744,0.023214412824723193,0.0
5.866124,0.022813000131263715,0.0
5.868528,0.018267616318110323,0.0
5.870916,0.013862002131817139,0.0
5.873292,0.009596157572384167,0.0
5.875687999999999,0.005470082639811408,0.0
5.878075999999999,0.002275173267016967,0.0
5.880468,0.00015119908086105746,0.0
5.8828640000000005,2.9325641121999194e-05,0.0
5.885252,2.9325641121999194e-05,0.0
5.887631999999999,2.9325641121999194e-05,0.0
5.890035999999999,0.0015488953494631605,0.0
5.89242,0.003999630617582641,0.0
5.894799999999999,0.004588034766145481,0.0
5.897196,0.007038770034264961,0.0
5.899584,0.011631375675661504,0.0
5.901964,0.014873506876699093,0.0
5.90436,0.019046803637515007,0.0
5.906743999999999,0.023080330771470706,0.0
5.90914,0.02818479309206494,0.0
5.911535999999999,0.03218899458489864,0.0
5.91392,0.035291356159076026,0.0
5.916300000000001,0.03946465291989194,0.0
5.918703999999999,0.04428957598676576,0.0
5.921091999999999,0.05097683017319621,0.0
5.923471999999999,0.05845548029254476,0.0
5.925868,0.06379226003861627,0.0
5.928252,0.06992043571760587,0.0
5.930648000000001,0.07805071214301235,0.0
5.933051999999999,0.08632075819527903,0.0
5.935436,0.09351986906090716,0.0
5.937815999999999,0.09840801428527604,0.0
5.940219999999999,0.10036289320344972,0.0
5.942607999999999,0.1051112688009584,0.0
5.944988,0.1078575436520502,0.0
5.947384,0.10832217850300474,0.0
5.949772,0.11120822298095677,0.0
5.952151999999999,0.11009006596607507,0.0
5.954555999999999,0.11111377932447046,0.0
5.95694,0.10892468712295025,0.0
5.959319999999999,0.10887746529470708,0.0
5.961723999999999,0.10976140902624225,0.0
5.964111999999999,0.10743254719786183,0.0
5.966492,0.102607624130988,0.0
5.968887999999999,0.09592036994455758,0.0
5.9712760000000005,0.088441719825209,0.0
5.973655999999999,0.08963536191788454,0.0
5.976048,0.11517528647591815,0.0
5.978431999999999,0.14918635301270444,0.01395187139594794
5.980811999999999,0.18654620302052807,0.028588155346002335
5.983216,0.23605273956010525,0.0427804248479992
5.985604,0.31320901606570395,0.05467389873654446
5.987984,0.42411577843306103,0.06476838183436354
5.990388,0.5526655687500938,0.07420730789647548
5.992772,0.6851704428738478,0.08383706446727823
5.995152,0.8261445631184852,0.09371215204574879
5.997544,0.9893211995973343,0.10328374156071173
5.999932,1.190392293057636,0.11207217779848887
6.002327999999999,1.3979324277502734,0.12085594326259243
6.00472,1.6188790714742753,0.12955576459496193
6.007108,1.8553249769168065,0.13822931922524742
6.009488,2.118908765646162,0.14671707206036735
6.0118920000000005,2.4058604494528537,0.1550969496498743
6.01428,2.716351019462733,0.16317735717598758
6.016656,3.051378655108813,0.17078668924136894
6.019063999999999,3.401678922621553,0.1780754618330325
6.021448,3.7417713278846754,0.18537484590779368
6.023827999999999,4.0683193503474415,0.19249848620617346
6.026224,4.396639051989017,0.18550854211656415
6.028612,4.7165348334800825,0.1779069906707638
6.030992,5.027636503626171,0.17070401988504744
6.033383999999999,5.306200288581869,0.16583798845133488
6.035772000000001,5.546824290585741,0.16279979423376134
6.038168,5.764218271281268,0.1604788967583083
6.040572,5.975887384849133,0.1580339178970043
6.04296,6.180390504908231,0.155356873835045
6.04534,6.359665294628304,0.15297506610046793
6.047731999999999,6.4993702877024715,0.15140691981869256
6.050119999999999,6.635771823275976,0.1497896098297945
6.052499999999999,6.754483109071563,0.1483814819818764
6.054896,6.844239506431142,0.14719555135283077
6.057284,6.901969875279528,0.1462404860202436
6.05966,6.933074217520289,0.14542885703819358
6.062055999999999,6.936105719198709,0.14501536313365548
6.064443999999999,6.910968040800433,0.14517427225382062
6.06684,6.870138421654916,0.14568083035783924
6.069232,6.8273992495616005,0.146276007624781
6.07162,6.7563983495929705,0.1474086139050337
6.073999999999999,6.661000153615001,0.1490137645217251
6.076396,6.579197353981369,0.15034340608191762
6.078779999999999,6.495252683974461,0.15170834346118633
6.08116,6.415916619938199,0.15306492075079892
6.0835680000000005,6.3407226311637634,0.15449458927172458
6.085952,6.263758859068388,0.15604982636743675
6.088332,6.1905197492121244,0.15754887797480052
6.090732,6.122775084915915,0.15887944549363722
6.093115999999999,6.059406709164876,0.16013756222182643
6.0955,5.992685758227062,0.16152727867659641
6.097896,5.916653151691465,0.1630875978977754
6.100283999999999,5.848721495940153,0.16454360920187872
6.10268,5.800995943250243,0.16565681151015807
6.105076,5.762022967650675,0.1666340960073523
6.1074600000000006,5.7391121239928164,0.1673357512544863
6.109839999999999,5.730261311530249,0.16782423748180092
6.112244,5.7248556220530755,0.16826863264469466
6.114631999999999,5.72596809149435,0.16859150093405958
6.117012,5.734437337615232,0.16874346739071627
6.119416,5.758551302655113,0.1685129318772234
6.121804,5.795748807360134,0.16795478324057028
6.1241840000000005,5.827963723184299,0.16757931390156605
6.12658,5.863763531620717,0.16714883867396002
6.128968,5.907339425617325,0.1665249552229591
6.131348,5.95128930252414,0.16577644271376132
6.133743999999999,6.006972244655737,0.16476713448624858
6.136131999999999,6.069220567534023,0.16361684458100859
6.138512,6.126533523359698,0.1626017721897023
6.140916,6.184218566237711,0.16162573762109061
6.143304,6.244929423220537,0.16058197035535943
6.145684,6.313089604681588,0.1593893321898927
6.148084,6.392331225061363,0.15800216951495896
6.150467999999999,6.470409362455881,0.15666457661092342
6.152852,6.540666088319836,0.15544316732865887
6.155247999999999,6.590809258921005,0.1546008686465854
6.157632,6.629918212431695,0.1539459038776921
6.160011999999999,6.675033468181634,0.15317800183109423
6.162408,6.714049873893707,0.15250453714788953
6.164791999999999,6.755999545911975,0.15179537224559342
6.167191999999999,6.803116902408331,0.1510328149375845
6.169591999999999,6.848184936330029,0.1503480224958878
6.1719800000000005,6.891902495811367,0.14970821173449356
6.174359999999999,6.9374823864122614,0.1490578103217045
6.176756,6.973471082161653,0.1485760205116477
6.179144,7.008481390523022,0.14814724464105536
6.1815240000000005,7.03827679257806,0.14782477714119285
6.18392,7.065371245752378,0.1475894601385003
6.186303999999999,7.096889209300113,0.14727110247620237
6.188683999999999,7.127290911690833,0.1469071635492174
6.19108,7.165328930014884,0.14638956595112423
6.193468,7.201364847592518,0.14590967763318172
6.195863999999999,7.223153742519757,0.14564361666065584
6.19826,7.240845888155547,0.1454160440894283
6.200648,7.26203037860497,0.14511474221372897
6.203027999999999,7.2949479342791745,0.1446307127062172
6.205428,7.337968541484082,0.1440209447569143
6.207812,7.3854126590624025,0.1433509783015666
6.210195999999999,7.4329039984689675,0.1426444614327006
6.212599999999999,7.468941811904471,0.14209419330647713
6.214987999999999,7.494177725674973,0.14169962312746642
6.217368,7.528492977617779,0.14116885074504054
6.219772,7.5686294362026025,0.14049797836491948
6.22216,7.605647532883996,0.13982068266634418
6.22454,7.6390807369531375,0.13917088671368227
6.226935999999999,7.668742056954922,0.1385920791832264
6.229323999999999,7.705061305502015,0.13793242824546925
6.231704,7.739193357705457,0.13725303323171514
6.234099999999999,7.764200745766217,0.1366465391130655
6.2364880000000005,7.77449458046776,0.13626971921408726
6.238867999999999,7.782180014087202,0.1359900187303503
6.241272,7.7942417362518155,0.1356724387176134
6.243659999999999,7.814359083230341,0.13520650810724397
6.24604,7.82800549311866,0.1347790182738281
6.248444,7.837460710059041,0.13445054926842906
6.250832,7.843935438864986,0.13419990814214694
6.253212,7.848734828006475,0.13393085596244464
6.255608,7.8431063003931705,0.13371703909779636
6.257996,7.832030549048053,0.13355564931732733
6.260376,7.826494569233364,0.13336915278490727
6.262771999999999,7.833575598374992,0.13305800117044694
6.265159999999999,7.8333942944934964,0.1327885375395834
6.26754,7.823808787215601,0.13258988002983457
6.269936,7.802722532138401,0.13255936977532912
6.272324,7.788339531576884,0.13252062827246913
6.274703999999999,7.7899733369867015,0.13226729704290585
6.2771040000000005,7.785183427134557,0.13201157588301451
6.279488,7.772152796871269,0.13183662093618675
6.281871999999999,7.759167492578354,0.13172806773567475
6.284268,7.763874333921228,0.13142815076585476
6.286656,7.770398180413284,0.13104066026769526
6.289036,7.766913419031124,0.13068246001902795
6.291432,7.748343017237407,0.1305277015470257
6.293819999999999,7.734985625892155,0.13040088833432373
6.296216,7.728937789398269,0.13020038855635965
6.298611999999999,7.723216713986346,0.12994824427519314
6.300999999999999,7.706181882230225,0.12982384059806748
6.30338,7.6861193405114205,0.12981207696083522
6.305775999999999,7.676624485174273,0.12974374792940857
6.30816,7.672624075397177,0.12958393994954573
6.310543999999999,7.660569936664041,0.12946267390811259
6.31294,7.645675079423326,0.1294087626327103
6.315324,7.6293353040857665,0.12946140652026716
6.31772,7.623610436958105,0.12942152014512429
6.320123999999999,7.6182123309124075,0.1293294980658486
6.322508,7.601780007776231,0.12935017907835222
6.324891999999999,7.58460161467751,0.1294422548191505
6.327284,7.577479051281246,0.12946971986566008
6.329672,7.573149984564318,0.12946781298591128
6.332052,7.564584398929079,0.12949419897521836
6.334456,7.55410926034604,0.12957720169044387
6.336844,7.552199707398241,0.12963427901176042
6.339223999999999,7.5648167163545565,0.12951809676722711
6.34162,7.576549781579336,0.12937438259278364
6.344008,7.586979594192002,0.1292244905641856
6.346388,7.596570789043505,0.12911469805124684
6.348783999999999,7.61612526579885,0.1289113158744395
6.351171999999999,7.6401032529276085,0.12863368664905403
6.353552,7.658541468525941,0.1283796956533486
6.355947999999999,7.668691741884885,0.1282433671832494
6.358336,7.682519455654699,0.12810632526666077
6.360715999999999,7.701701845357707,0.1278882960071446
6.363119999999999,7.72507542800865,0.12757300961906737
6.3655040000000005,7.749799485099954,0.12723116429494127
6.367883999999999,7.777269817042351,0.12690138251835562
6.370288,7.808185271970138,0.12654852126659677
6.372675999999999,7.840079114285949,0.12614938462264194
6.375056,7.863220379511414,0.12581879230855997
6.37746,7.888363745483299,0.12546407738959323
6.379843999999999,7.914018968134379,0.1251214578381886
6.382224,7.939022564479404,0.12477417780106487
6.384628,7.960348720413556,0.1244304950220852
6.387016,7.9736664733620435,0.1241881612551489
6.3893960000000005,7.985633751870171,0.12397439925191185
6.391799999999999,7.998112887057496,0.12377270936713937
6.394184,8.014735993364514,0.12351667290587284
6.396563999999999,8.026703271872641,0.1233062363200449
6.39896,8.039322176686829,0.123101246745709
6.401348,8.049240132620294,0.12295124825120059
6.403728,8.063302059673456,0.12274497009397568
6.406132,8.074198402994945,0.12254841404019805
6.408516,8.082813106316294,0.12239049097905204
6.410896,8.091008500757066,0.12225280270152351
6.4133,8.096829707399083,0.12212300797274359
6.415688,8.100184178443728,0.1219713504375037
6.418067999999999,8.098743052062622,0.12186836465891113
6.420471999999999,8.097813782360712,0.12177599538183422
6.422856,8.10326290195039,0.12163084406642713
6.425235999999999,8.106989460047375,0.12149668694737917
6.427639999999999,8.10964508295772,0.12137732623066512
6.430027999999999,8.115094202547397,0.12123319688317309
6.432403999999999,8.117982142883218,0.1211369282546339
6.4348,8.126364528779094,0.12096188457650665
6.437188,8.135817849861606,0.12077206793854027
6.439568,8.141686278331862,0.12060929491934953
6.441971999999999,8.14396981418987,0.12047392881628377
6.4443600000000005,8.149466155607792,0.12029560101593469
6.446739999999999,8.1524485396001,0.12012971081815962
6.449139999999999,8.162508161018296,0.11988222755037371
6.451524,8.174709652809769,0.11960745716932006
6.453907999999999,8.192637907586773,0.11928006303789057
6.456304,8.20884360087108,0.11896269464607663
6.458692,8.221836488595473,0.11868719413886378
6.461071999999999,8.234410067439285,0.11843087958982927
6.463475999999999,8.246936424454853,0.11821070260479323
6.46586,8.264118609269312,0.11795048504113499
6.468243999999999,8.278087988523858,0.11773198879334396
6.47064,8.288332705539286,0.11754615200411689
6.473028,8.302721393674414,0.11731262182656602
6.475407999999999,8.318460556249896,0.11705361383296975
6.477811999999999,8.331126682892325,0.11683044909990195
6.480199999999999,8.350730277333783,0.11653649310789789
6.48258,8.363768491028548,0.1163314376141127
6.4849760000000005,8.378529266216011,0.11611797564511667
6.487364,8.397154473269444,0.11586849874362361
6.489743999999999,8.419364572935134,0.11559621939622589
6.492147999999999,8.440363967787324,0.11534565204570943
6.494535999999999,8.464808485624905,0.11507857678079254
6.496916,8.486319737156295,0.11484253174875295
6.49932,8.505409579060684,0.11464581627901839
6.501703999999999,8.516211478725687,0.11454248764140379
6.504084,8.525942443204052,0.114451832870404
6.506479999999999,8.541167853242468,0.11428984228136785
6.5088680000000005,8.55904699033336,0.11411311058741923
6.511247999999999,8.576274501118194,0.1139322074787932
6.513652,8.592850385596968,0.11374809421471929
6.516039999999999,8.615712111568714,0.11349306586201882
6.51842,8.642438269406433,0.11320549865438267
6.520815999999999,8.6648806864976,0.11297186395562052
6.523203999999999,8.689325204335184,0.11272139499791832
6.525588,8.718984628479099,0.11241578993424442
6.52798,8.741986124077705,0.11216553463789516
6.530368,8.772204626729062,0.11184043679547534
6.532747999999999,8.801911272701219,0.11150755295589339
6.535148,8.8306867531136,0.11118395982034088
6.537532,8.857739672033283,0.11087074798696192
6.539915999999999,8.882930259833412,0.11057100020593355
6.542312,8.904675724648143,0.11028741908728076
6.5447,8.927771663903238,0.10998311525632642
6.547095999999999,8.952357847225551,0.10965123874264102
6.549492,8.984440576854333,0.10923568535732031
6.551875999999999,9.019596342416172,0.1087897462313367
6.55426,9.05340163353765,0.10837153442863261
6.556655999999999,9.081759700927318,0.10798581831269208
6.559043999999999,9.109326372384068,0.10760099174707635
6.561424,9.135961878281037,0.1072238929039506
6.563819999999999,9.156730851565621,0.10689675241519345
6.5662080000000005,9.169631191491394,0.10663466502646199
6.568587999999999,9.182950840297753,0.10635658118855226
6.570987999999999,9.190264186864857,0.10613202306831204
6.5733760000000006,9.190779835259795,0.10596157371125167
6.575755999999999,9.190364318094952,0.10579642641789337
6.57816,9.181940397944443,0.10570216598112951
6.580543999999999,9.170303672234018,0.10564248986588569
6.582923999999999,9.152660644284342,0.10563626928243969
6.585328,9.13236388928219,0.10564258886014292
6.587711999999999,9.114069235026458,0.10563080053784635
6.590091999999999,9.095774580770724,0.10561879761699632
6.592488,9.074127351328215,0.1056463913674409
6.594876,9.052340352258847,0.10567840827151216
6.597271999999999,9.027200778002701,0.10574895464384744
6.599676,9.00513423967961,0.10578898323822118
6.602064,8.98269561430418,0.10581203615811594
6.604444,8.961048384861673,0.10583532545807972
6.606848,8.938050680978806,0.10588105334473438
6.609232,8.9139820419093,0.10593781867740094
6.611612,8.892846669145987,0.10597134613593004
6.614012,8.882792735301397,0.10590781361970517
6.616395999999999,8.873669967016587,0.1058382145255496
6.618776,8.86762023466483,0.10574034179272146
6.62118,8.868507970112104,0.10558607818293299
6.623563999999999,8.875122468544907,0.1053921497548916
6.625944,8.88909374365732,0.10512599853226794
6.628339999999999,8.908279925076066,0.10481081990872648
6.630728,8.937476610226895,0.1044125222209219
6.633107999999999,8.97011841836312,0.10400318791224702
6.635511999999999,9.002760226499342,0.10359611062158566
6.6378960000000005,9.03726436575512,0.10317884802850552
6.640275999999999,9.074050145011038,0.10273523923440307
6.642672,9.10883382352054,0.10230892939752972
6.64506,9.142034710164205,0.10188235097032025
6.6474400000000005,9.16801858975512,0.10152249873659436
6.649843999999999,9.18957895897262,0.10121126756322672
6.652231999999999,9.218356335242866,0.10083762272033901
6.654611999999999,9.252348617819447,0.10041664297302165
6.657016,9.288482770769306,0.09997530014489307
6.659399999999999,9.327689959652222,0.09951238632068857
6.661779999999999,9.359168284803186,0.09910688152567
6.664179999999999,9.390506840327296,0.09870890434746354
6.666567999999999,9.42370772697096,0.09830272524496216
6.668947999999999,9.448900210628956,0.09795901925073361
6.671352,9.473301298354034,0.09761855307655218
6.673735999999999,9.49234771014592,0.09732987043728564
6.676116,9.506318985258334,0.09708223310055272
6.67852,9.516425828504772,0.09686163712025392
6.680908,9.527091750258654,0.09662259408266215
6.683288,9.534964175333199,0.09639787053188661
6.685683999999999,9.540834499661326,0.0961878293958296
6.688071999999999,9.54391132731012,0.09599203374923787
6.690452,9.549549334212772,0.09576228439401055
6.692856,9.558260377048478,0.09550876622388671
6.695244,9.568461663951405,0.09522923715184425
6.69762,9.58080482122761,0.09492912333475663
6.700019999999999,9.583137474771727,0.09470141467070897
6.7024040000000005,9.580954070143815,0.09449236546272168
6.704783999999999,9.573695528836431,0.09432099283248421
6.707188,9.556706023050683,0.09421054745412764
6.709575999999999,9.540228373944133,0.09411027631261253
6.711956,9.519746523344748,0.09403846193151559
6.714351999999999,9.496471176066029,0.09398004435628693
6.716739999999999,9.480412835840056,0.09386384230089706
6.719119999999999,9.460629833374973,0.09376543951927921
6.721516,9.44326824053689,0.09363746856231028
6.723904,9.42697758288544,0.09349955184968545
6.726283999999999,9.407613889300938,0.09338501704522578
6.728687999999999,9.382895519783242,0.09331784375709166
6.731075999999999,9.36097064694488,0.09323669386968071
6.733455999999999,9.343189745226216,0.09312205403672692
6.73586,9.326991635373384,0.09300816940729854
6.738248,9.309023742199612,0.09292837210997766
6.740628,9.290776309772122,0.0928580418376068
6.743023999999999,9.279326575516802,0.09274698318282668
6.745411999999999,9.269878942007898,0.09262221614110078
6.747792,9.267368776298023,0.09245227284571556
6.750184,9.270445603946815,0.09225741611685581
6.752572,9.282601769767913,0.09200064763945398
6.754964,9.305420065627155,0.0916833400538059
6.757364,9.330520001486535,0.09134340902324842
6.759747999999999,9.360974613279108,0.09095852669333357
6.762128,9.391429225071677,0.09057348215350118
6.764532,9.414666829811502,0.09024255350354511
6.76692,9.43948722641716,0.08991308208049982
