Time,Force,Position
4.290432,0.07080373931693953,0.0
4.292772,0.05596937413076081,0.0
4.2951120000000005,0.04285757043727853,0.0
4.297456,0.03374996823662995,0.0
4.299796,0.024642366035981373,0.0
4.3021400000000005,0.019799546781986407,0.0
4.304484,0.014835915701031736,0.0
4.306824,0.011064031633675302,0.0
4.3091680000000006,0.007152377939458659,0.0
4.311508000000001,0.005382594618519076,0.0
4.3138440000000005,0.0042833954035379,0.0
4.31618,0.005614912043996346,0.0
4.318524000000001,0.0055866480156537,0.0
4.320868,0.0055866480156537,0.0
4.323212000000001,0.0055866480156537,0.0
4.325556,0.0055866480156537,0.0
4.3279000000000005,0.0055866480156537,0.0
4.330240000000001,0.005707459842613406,0.0
4.332576,0.005707459842613406,0.0
4.334919999999999,0.005707459842613406,0.0
4.337268000000001,0.008761537975768282,0.0
4.339624,0.010744680922284628,0.0
4.341964,0.011656888682162445,0.0
4.344304,0.01391957088239921,0.0
4.346656,0.01897574976197094,0.0
4.3489960000000005,0.020838080881527582,0.0
4.351344,0.024823324574460782,0.0
4.353688000000001,0.026545886067157208,0.0
4.356039999999999,0.025214369426698763,0.0
4.35838,0.023882852786240315,0.0
4.360724,0.027868096479173512,0.0
4.3630640000000005,0.03238415465120491,0.0
4.365404000000001,0.03543823278435978,0.0
4.367752,0.041425577223709834,0.0
4.370095999999999,0.04583012979722366,0.0
4.372436,0.04595094162418336,0.0
4.37478,0.04595094162418337,0.0
4.377120000000001,0.04583012979722366,0.0
4.379464,0.04583012979722366,0.0
4.381804,0.04583012979722366,0.0
4.384151999999999,0.04277605166406879,0.0
4.386500000000001,0.04079290871755244,0.0
4.388839999999999,0.039880700957674625,0.0
4.391179999999999,0.03761801875743786,0.0
4.393528000000001,0.03256183987786613,0.0
4.395864,0.03043892730448957,0.0
4.398212,0.026453683611556374,0.0
4.400556000000001,0.023399605478401496,0.0
4.4029,0.023399605478401496,0.0
4.405244000000001,0.023399605478401496,0.0
4.407588,0.0194143617854683,0.0
4.409935999999999,0.01356678697297846,0.0
4.412272000000001,0.010512708839823583,0.0
4.41462,0.004525364400473535,0.0
4.41696,0.00012081182695970563,0.0
4.419300000000001,0.0,0.0
4.421636,0.0,0.0
4.423979999999999,0.0,0.0
4.426328000000001,0.0,0.0
4.428664,0.0,0.0
4.431004000000001,0.0,0.0
4.433348,0.0,0.0
4.435688,0.0,0.0
4.438032000000001,0.0,0.0
4.440376,0.0,0.0
4.442723999999999,0.0,0.0
4.445064,0.0,0.0
4.447408,0.0,0.0
4.4497480000000005,0.0,0.0
4.452092,0.0,0.0
4.454427999999999,0.0,0.0
4.456767999999999,0.0,0.0
4.459112,0.0,0.0
4.461455999999999,0.0,0.0
4.463795999999999,0.0,0.0
4.46614,0.0,0.0
4.4684800000000005,0.0,0.0
4.470816,0.0,0.0
4.473160000000001,0.0,0.0
4.475499999999999,0.0,0.0
4.477848000000001,0.0,0.0
4.480192,0.0,0.0
4.482532,0.0,0.0
4.484876000000001,0.0,0.0
4.487228000000001,0.0,0.0
4.489572,0.0,0.0
4.491916000000001,0.0,0.0
4.49426,0.0,0.0
4.4966,0.0,0.0
4.498944000000001,0.0,0.0
4.501283999999999,0.0,0.0
4.503620000000001,0.0,0.0
4.505968,0.0,0.0
4.508311999999999,0.0017036036927959256,0.0
4.510656,0.0024760418258135313,0.0
4.512996,0.006181746265026308,0.0
4.5153360000000005,0.012029321077516145,0.0
4.51768,0.018947831076644515,0.0
4.520024,0.022793305142717504,0.0
4.522372,0.028501110328347127,0.0
4.524712,0.03728195144703214,0.0
4.527056000000001,0.04578325331199673,0.0
4.5294,0.05442432480382152,0.0
4.531744000000001,0.06520726666892339,0.0
4.534088,0.07827184853416251,0.0
4.536428,0.08733222890656794,0.0
4.538776,0.09560121334605527,0.0
4.541124000000001,0.104149737039263,0.0
4.543463999999999,0.11684223185216466,0.0
4.545808,0.12981426591878675,0.0
4.548156,0.1419949040524907,0.0
4.550491999999999,0.1552464773728332,0.0
4.552832,0.1684980506931757,0.0
4.555176,0.17548274032044772,0.0
4.557524,0.18158159035831534,0.0
4.559864,0.18604853084423434,0.0
4.562207999999999,0.19567936409250414,0.0
4.5645560000000005,0.21931921499208418,0.0
4.566892,0.2708430191410322,0.008834712354089757
4.569232,0.33362956609019867,0.017808659571768748
4.571575999999999,0.40744653841410616,0.02662483506298002
4.573924000000001,0.5010937350313405,0.03501297139037555
4.57626,0.6143369426585549,0.04330316826202572
4.578604,0.7446149820418918,0.0516037530065937
4.580952000000001,0.8899729742631772,0.05988964732853737
4.5832880000000005,1.0565116652181485,0.06803027329102607
4.585628000000001,1.2388763789736128,0.07613614057982183
4.587972,1.4367403544476063,0.08427107508989641
4.590307999999999,1.6495445131326882,0.09237368273804164
4.592652,1.879570495028996,0.10046916563449734
4.594995999999999,2.1266332045392957,0.10849933100380883
4.597347999999999,2.385145648304917,0.11654828362094473
4.599688,2.6539896693109783,0.12472356126697069
4.602032,2.945038102409121,0.13287930682120375
4.604372000000001,3.2594563264424696,0.14089691196041754
4.606716,3.589751586820292,0.14873196221158913
4.609051999999999,3.918467847048017,0.15647061267900053
4.611396,4.228706253280646,0.16420853518843473
4.613740000000001,4.5038909210394005,0.16327721110144
4.616079999999999,4.768836559356331,0.1621957795129403
4.618424,5.0193991971117455,0.16128899944083758
4.620768000000001,5.241006946431152,0.1609324694080336
4.623107999999999,5.4353842646651165,0.16072336665337705
4.625452,5.605045109239257,0.16055915250126143
4.6278,5.757856217654509,0.1604198925763262
4.6301440000000005,5.894374772560442,0.16045545952567353
4.632484000000001,6.013065203919467,0.160577967379244
4.634828,6.11215962426851,0.16070411528000042
4.6371720000000005,6.185651731368323,0.16099040814836152
4.63952,6.244388750854282,0.1612767156776629
4.64186,6.2897192613088775,0.16165980653244505
4.644208,6.326625851612961,0.16197076112518682
4.646548,6.354039482437766,0.1620996152976606
4.648904000000001,6.363067807066092,0.16220927993446432
4.651243999999999,6.3480293884827805,0.16249190129988006
4.653588,6.3159051245993645,0.1629953255983287
4.655932000000001,6.28191852959639,0.1635145578201586
4.6582680000000005,6.252308223138585,0.1639701182025529
4.660612,6.232196563733668,0.16422143516114054
4.662956,6.207336528731239,0.1645183671250013
4.6652960000000006,6.190530222684854,0.16472716767781573
4.66764,6.1956979071629465,0.16465730106200085
4.669984,6.212736530634806,0.16447715892987672
4.67232,6.232940737838338,0.16426269147949268
4.67466,6.2543556498553725,0.16401550019606223
4.677008,6.274559857058906,0.16379951245845667
4.679355999999999,6.304028498031979,0.1634673352284222
4.681692000000001,6.341318550535617,0.16302630229858767
4.684031999999999,6.38224071747975,0.1624674093213959
4.686376,6.416319860281344,0.16195754797935888
4.688720000000001,6.448351576366144,0.1614094231920778
4.691056000000001,6.480523062077804,0.16086468365318513
4.693404,6.514369887453918,0.16034796218619882
4.695752,6.545236224695593,0.1599290662684166
4.698092,6.576893957870185,0.15949708011924377
4.700436000000001,6.609482856604557,0.15904650580158333
4.702784,6.641325685376383,0.1586922032854731
4.70512,6.678940603104115,0.15832504871559466
4.707468,6.721024357175635,0.15793931859264326
4.709808,6.763527420127736,0.1575234567638338
4.712155999999999,6.795323027071323,0.15723000775224016
4.714488,6.815619782073472,0.1570705206031596
4.716831999999999,6.833542349276867,0.1569351958544101
4.719180000000001,6.855608887599957,0.156717267864948
4.721516,6.870413092899923,0.156565220059131
4.723871999999999,6.887034303349075,0.1563061351640971
4.726216,6.898907138200716,0.15609083603006887
4.728564,6.906356462678942,0.15597551651389255
4.730899999999999,6.921487429060872,0.15577280418859052
4.733244,6.941134453614833,0.15550475198714256
4.735596,6.959710542982157,0.15525910351010533
4.737939999999999,6.973491034923728,0.15509470476495818
4.740284,6.991555267611854,0.1548479584024638
4.742628000000001,7.017627903285649,0.1544595136092148
4.744972,7.043840308586302,0.15406011166927452
4.747307999999999,7.067865517543305,0.15362914867979974
4.749648,7.091333543850738,0.15311909968650397
4.751992,7.1053973667617685,0.1527172031755405
4.754332000000001,7.115224670754487,0.15236283838673587
4.756676,7.128125010680263,0.15195332089760924
4.759016,7.146380026539231,0.15143751115121684
4.761360000000001,7.161422236838282,0.15098429391718504
4.763699999999999,7.175253742323836,0.1505625676450518
4.7660480000000005,7.1919712922873416,0.15014020944233622
4.768400000000001,7.213809304900692,0.1496965799225272
4.770744,7.237230109379879,0.14924776178736213
4.773084,7.259859517926148,0.1488070564662703
4.775428000000001,7.286912436845832,0.14828029698891276
4.777768000000001,7.309309527966626,0.14782378708114388
4.7801,7.332637784647197,0.14735749210903912
4.782448,7.354150932036453,0.14687481657199403
4.784792,7.374128509388119,0.1463600719200596
4.787132000000001,7.38372349595536,0.14599570345625024
4.789476,7.39275940401516,0.14566643696287976
4.79182,7.410175802112968,0.14523140175502733
4.7941720000000005,7.433039423942583,0.1447356074524426
4.796508,7.452550470585421,0.14430728989139552
4.798856,7.475506640213654,0.14384400102030934
4.801196,7.502280019879619,0.1433675308695418
4.803540000000001,7.533801775143091,0.1428735515952959
4.805879999999999,7.563600968913867,0.14240102205537553
4.808224,7.5935871541397475,0.1418792965635478
4.810568000000001,7.620267986007091,0.14138069513806747
4.812907999999999,7.641082285262049,0.1409686324609114
4.815259999999999,7.663666367837944,0.14050336437178126
4.817604,7.684155801868806,0.14004208256673426
4.81994,7.701898961048576,0.13957671298027768
4.822284000000001,7.711773486869538,0.13922253049052608
4.824632,7.721088934183058,0.13889618553911828
4.826968,7.728914137429362,0.1386099380578646
4.829308,7.743257499594113,0.13824795450588945
4.831648,7.760906215117394,0.13786282352873896
4.833996,7.778927017693016,0.13748912981778394
4.836332,7.792664079522084,0.1371903125307749
4.838676,7.797880881686288,0.13700094967794685
4.841024,7.7948569634393445,0.1369035128354951
4.84336,7.784803029594756,0.13687334911200014
4.8457040000000005,7.771815829443974,0.1368842843935184
4.848044000000001,7.7564544414944345,0.13690682712659655
4.850392,7.732060937200833,0.13702453982476018
4.8527320000000005,7.702732065854618,0.13721222121525098
4.855072000000001,7.674426907866798,0.1374207717008634
4.857424000000001,7.652080830289988,0.13757914398467808
4.859756,7.636252911631626,0.13765893392048753
4.862092,7.622147554465962,0.13772193631245638
4.864436,7.602268212486521,0.13789580015334854
4.866784,7.582201879051979,0.1381160167728087
4.869128000000001,7.570236496401723,0.138251706097642
4.871467999999999,7.565488120804213,0.13827487288382007
4.873816000000001,7.564371859647201,0.1382241449712388
4.876156000000001,7.553384864384965,0.1383076509756997
4.878504,7.538253898003035,0.13845519985860422
4.880844000000001,7.531782960912827,0.13849230313270355
4.883184000000001,7.531086008636396,0.13842120780436043
4.8855200000000005,7.5305288259868215,0.1383429456589851
4.887864,7.533649083748118,0.1382591741308722
4.890212000000001,7.547616567144793,0.13809624438218962
4.8925600000000005,7.57117524539297,0.13781408535978207
4.894904,7.597806959574204,0.13749019122956962
4.897248,7.631655680808188,0.13706113156390104
4.8995880000000005,7.673465583199597,0.13655786493016936
4.901932,7.715787342270205,0.13606208010895207
4.904280000000001,7.756526309474974,0.13557967542515792
4.906619999999999,7.790654569962679,0.13514474474458088
4.908976,7.8204065419052124,0.1347507607355438
4.911316,7.853883176086857,0.1343092490589188
4.913659999999999,7.893086573254034,0.13380012041716163
4.916,7.931406026689673,0.13327364342714174
4.918335999999999,7.962555694900809,0.1328228825003965
4.9206840000000005,7.988350687178748,0.13245731925514145
4.923024000000001,8.023457335054474,0.13199153178952294
4.925368,8.065082141848649,0.13145631581648728
4.9277120000000005,8.100468328978096,0.130982454810237
4.930056,8.125844012375458,0.13064041065322266
4.932404000000001,8.154944358011933,0.13026050901279987
4.934743999999999,8.183393077342352,0.1298758133679408
4.937092000000001,8.212168557754733,0.1294472792514853
4.939431999999999,8.232191461076772,0.1290936613220023
4.941776,8.245975744734082,0.12879468084896567
4.944120000000001,8.250261381338508,0.1286312477677924
4.946464,8.249891190144037,0.12851485007401617
4.948811999999999,8.253153113390065,0.12833302177872324
4.951160000000001,8.250967812904285,0.12819979276503096
4.953504,8.251156700217257,0.12805797313776246
4.9558480000000005,8.25530256719482,0.12790239477808638
4.958184,8.264523570851857,0.1276830377338356
4.960527999999999,8.2702994515235,0.12748868884681597
4.962879999999999,8.269929260329034,0.12737357681739223
4.965216000000001,8.264856019507432,0.12733839364680147
4.967555999999999,8.264066519432385,0.127241599755222
4.9699,8.256758860438888,0.12720793276519352
4.972244000000001,8.246565156967439,0.12717179285614827
4.974583999999999,8.234648892003293,0.1271472941122197
4.976924,8.227016367785701,0.12706165019783253
4.979272000000001,8.213377541328857,0.12704950609781668
4.9816080000000005,8.203091290058788,0.12698434095171193
4.983948000000001,8.188940606922747,0.12696062223288315
4.986292,8.175301780465903,0.12694681958347295
4.988639999999999,8.163897372180955,0.12693150991060276
4.990972,8.15649716538884,0.12686779339451895
4.993315999999999,8.14858510191753,0.12679382361338754
4.995672,8.135086045087547,0.1267740826490534
4.998008,8.127453520869956,0.12668677417284152
5.000352,8.119029600719449,0.12660198220100222
5.002692000000001,8.10450683053107,0.12656129608836886
5.005036,8.082674505491326,0.12658580546542875
5.007371999999999,8.05977124526494,0.1266254812131233
5.009716,8.039801251344752,0.12663223522612477
5.012068,8.03040083966409,0.12649034053787672
5.014408,8.014714586490454,0.12643463860192306
5.016751999999999,8.003684161115713,0.12633356126488762
5.019092,7.99209465723353,0.12625776519380008
5.0214360000000005,7.987163081896654,0.1261126136877585
5.023776000000001,7.984885233612253,0.12594729391876425
5.026115999999999,7.9918264931270215,0.12566465602399937
5.02846,7.997557047828289,0.12540519051789667
5.0308,8.005010164022256,0.12513516822224044
5.033143999999999,8.014744920216357,0.12482950322523675
5.035488,8.022757114917763,0.12453403737252813
5.037824,8.034261654432804,0.12418226865524101
5.040164,8.046417820253902,0.12383355404473506
5.042508000000001,8.062158878687255,0.1234564228608391
5.044848000000001,8.072545261187413,0.12315368404150003
5.047184000000001,8.082000478127792,0.12285962476504128
5.049532,8.09904478917326,0.12249133683969778
5.051872,8.122327719883456,0.12207594736368514
5.054215999999999,8.14868368652671,0.12162410135903737
5.056552000000001,8.17625035798346,0.12115310488329162
5.058896,8.195389317573962,0.12079613375533241
5.061240000000001,8.221325975336635,0.12036723215214454
5.063576,8.246611006793247,0.11993749779394938
5.0659160000000005,8.271104642316942,0.11950987537626263
5.06826,8.287589874854968,0.11917394504119852
5.070612,8.30207300664658,0.11886227472721302
5.072952,8.31041006657208,0.11862665044475107
5.075304,8.317676191310943,0.1184058532020393
5.077652,8.321869280116749,0.11822130114530789
5.079996,8.324432355228476,0.11807585214297016
5.082339999999999,8.331791027765954,0.11788490202429144
5.084684,8.337519686609353,0.11773352187444204
5.087032,8.350185813251782,0.11751141690822155
5.089368,8.362712170267349,0.1172964378226351
5.09172,8.383806008776025,0.11697383490983695
5.094067999999999,8.407553574337175,0.11663564248596453
5.096407999999999,8.427296938405494,0.11634246965387028
5.098752,8.441593078742,0.11608859849970307
5.101095999999999,8.452536643891733,0.11588133502360959
5.103435999999999,8.462549043481687,0.11568239717192765
5.10578,8.476705414191334,0.11543571758313005
5.108123999999999,8.488208057848507,0.11520663855106501
5.110475999999999,8.497568831132401,0.11500432266205597
5.112812000000001,8.51158543221519,0.11476733657160841
5.115156,8.533610436283645,0.11444974971220509
5.117503999999999,8.557777310725378,0.11410810169781709
5.119836,8.583946285913525,0.11374706053878354
5.1221760000000005,8.609323865168754,0.11338740060807873
5.12452,8.637774480357042,0.11299460718930597
5.126872,8.668506735545463,0.1125717816328958
5.129207999999999,8.698447594800967,0.11215504105577112
5.131552,8.72959915886997,0.11172248718224449
5.133895999999999,8.75167138476667,0.11138296999941988
5.13624,8.773883380290227,0.11103942033997502
5.138588,8.79181163506723,0.1107496997833014
5.140928,8.80708616279176,0.11047504936463472
5.14328,8.825433726449345,0.1101714122332568
5.145612000000001,8.853232715331572,0.10980041191397544
5.147956,8.884384279400576,0.10938897106645996
5.150308,8.914185369029223,0.10900073907634193
5.152652000000001,8.947059494590922,0.10858707668702669
5.154996,8.983146425712539,0.10814208382400381
5.157336,9.021375227207429,0.10767485791052546
5.159684,9.052014934597237,0.10726354419064935
5.162019999999999,9.080000914934566,0.10686990020327808
5.164364,9.108918060831677,0.10647457252920829
5.166704,9.139977077102063,0.10606051204221567
5.169052,9.171687719678507,0.10565112958913202
5.1713960000000005,9.204469297441593,0.10523368199426547
5.173736000000001,9.23473691777906,0.10482507874803963
5.17608,9.261931502183472,0.10444579120143427
5.17842,9.28740352509519,0.10407473758107627
5.180768,9.3170195191266,0.10366421574455065
5.183115999999999,9.345564577971372,0.10326591629230175
5.18546,9.37010543532331,0.10290014862026627
5.187804000000001,9.395577458235028,0.10252898986237778
5.190143999999999,9.415322718161214,0.10219782674608378
5.192488,9.425616552862758,0.10192985923274178
5.194824,9.432325494952044,0.10167930492365894
5.197171999999999,9.440384911481695,0.10140754155017707
5.199520000000001,9.438433824279262,0.10121633885912365
5.201864,9.430057125956997,0.10108925325740689
5.204208,9.418467622074814,0.10099401075281068
5.206548000000001,9.411533945991522,0.10087125486727287
5.208900000000001,9.404320730654511,0.10075897450128837
5.211236,9.387097011585416,0.10072704714834105
5.213584,9.364518616583128,0.10074802758574301
5.215932,9.341288595274781,0.10076384994524128
5.218272,9.316847869152939,0.10079447356959972
5.220612,9.29385016527007,0.10082932948700571
5.222956000000001,9.270712691760341,0.10086959931879518
5.2253,9.247295678996894,0.1009197396950089
5.227647999999999,9.223087270300526,0.10096909588356771
5.229988,9.198878861604157,0.10101816689783942
5.23234,9.178674654400623,0.10103580139826387
5.23468,9.15940161275687,0.10104759642463432
5.237024000000001,9.142782298165589,0.10104884867768887
5.239368,9.13053927211948,0.10103413196051056
5.241712000000001,9.121461829805042,0.10101900084792774
5.244064000000001,9.115038114543081,0.10099318084395814
5.246408,9.118345363759483,0.10089997214178448
5.2487520000000005,9.12472564890894,0.10078038364908178
5.251088,9.137252005924509,0.10060956018779993
5.253431999999999,9.149126736634019,0.10043416667128384
5.255780000000001,9.160861697716669,0.1002646802292093
5.258120000000001,9.187682299210875,0.0999785116719559
5.260464,9.214782439958803,0.0996802738024242
5.262808000000001,9.244815847012923,0.09936303434801655
5.265144,9.27326646220121,0.09904648515130071
5.2674840000000005,9.297852645523523,0.09875466645289005
5.269828,9.322578598472695,0.0984570070668429
5.27218,9.345442220302312,0.09816903899320249
5.274515999999999,9.370168173251484,0.09787283500823724
5.276856,9.396384370267876,0.09755258764302538
5.2792,9.423671502470906,0.09722461551786321
5.281543999999999,9.453240274674073,0.09687491319502385
5.283884,9.484950917250519,0.09650726612659424
5.286231999999999,9.514566911281928,0.09613036672372458
5.288576,9.543950587887862,0.09573568177384921
5.290916,9.569749371881542,0.09535685230446991
5.293259999999999,9.590240701770272,0.09499794334229593
5.295604,9.610080405352946,0.09463386294123691
5.297952,9.623122410763452,0.09431305781449126
5.300287999999999,9.637095581733735,0.0939887960491703
5.302636000000001,9.65041712639796,0.09365999468541367
5.30498,9.652936771397181,0.093401996270903
5.307324,9.657458517142821,0.09312992785109092
