Time,Force,Position
9.634239999999998,0.11105794127211996,0.0
9.636636,0.11813517869800905,0.0
9.639024,0.12255868907142338,0.0
9.6414,0.12511986832528105,0.0
9.643795999999998,0.12810035645971937,0.0
9.646183999999998,0.13215177978079623,0.0
9.64858,0.13541180716895498,0.0
9.650976,0.13746112974361502,0.0
9.65336,0.13471485489252322,0.0
9.655744,0.13518138560134696,0.0
9.658148,0.13443721149667198,0.0
9.660532,0.1334134981382766,0.0
9.662912,0.13238978477988123,0.0
9.665308,0.1322972369812642,0.0
9.667696,0.1247081428761774,0.0
9.670075999999998,0.12005231507728582,0.0
9.67248,0.11280452606767503,0.0
9.674868,0.10648790261784256,0.0
9.677248,0.10003150954114991,0.0
9.679652,0.09574776879459578,0.0
9.68204,0.09341890696621535,0.0
9.68442,0.08671186073479449,0.0
9.686816,0.0810266320038998,0.0
9.689204,0.08828138159554602,0.0
9.691584,0.1127126284280442,0.0
9.693988,0.15185363690402287,0.0088848792518055
9.696376,0.19774322586605783,0.017852351061573075
9.698756,0.24851906419459238,0.027148542915322232
9.701152,0.31358535528602677,0.036214575162581406
9.70354,0.38837881914008665,0.04522344800180829
9.70592,0.47974437575718365,0.05378470920163785
9.708324,0.582142253606891,0.062088391589229235
9.710712,0.6864931145169029,0.07071671003914223
9.713092,0.7996872044580048,0.07944593711173652
9.715488,0.9310361790279802,0.08803736412075526
9.717876,1.0748132752412989,0.09659460613423707
9.720256,1.2288620787111713,0.10508317355946174
9.722656,1.393803433786794,0.1134421438944431
9.725044,1.5622333419603138,0.12210237192515563
9.727424,1.7434326768726531,0.13066730890318898
9.72982,1.9367352682042414,0.13904669843252332
9.732208,2.1483363055073017,0.1470110780607228
9.734588,2.363431583481867,0.15485658207404066
9.736984,2.565494335335275,0.16267126985708225
9.739372,2.7477268628953553,0.17055420368048885
9.741768,2.9197656869839874,0.1694480362947823
9.744164,3.0854280176389004,0.1682747293044471
9.746552,3.2480664300468707,0.16672711244473315
9.748932,3.395203684878442,0.16552753565070083
9.751335999999998,3.528889104708275,0.16441947170295482
9.75372,3.64586266214821,0.16380937239832014
9.756104,3.750872732795757,0.16347006963892824
9.758499999999998,3.8567233170623343,0.16271062238599407
9.760888,3.9526597371111825,0.16191069664964391
9.763268,4.035144322158293,0.16120935444051684
9.765672,4.107994282241394,0.1605080539936568
9.768059999999998,4.172884957024941,0.15984182216275972
9.77044,4.22474120982946,0.15937763229994228
9.772835999999998,4.278743124722994,0.15840863059025553
9.775223999999998,4.319153434987931,0.15750992161206676
9.777604,4.339359538049334,0.15697107031194651
9.78,4.334424170996721,0.15712249568326508
9.782388,4.3274867031976925,0.15733059252504877
9.784768,4.323575049503476,0.1575067718588958
9.787164,4.323248288421512,0.15760145272621892
9.789552,4.3144012676746835,0.1579266862646169
9.791936,4.30890682211463,0.15812338856207314
9.794328,4.3012705061813,0.15839223776499017
9.796716,4.29498466468833,0.15860444389882425
9.799096,4.285486017635444,0.15893884136929523
9.8015,4.275335744276499,0.15927634610962887
9.803888,4.263183370171138,0.15968365840354365
9.806268,4.2462353986400245,0.16022865820179547
9.808664,4.235153959721303,0.16058924549451328
9.811052,4.226586478228195,0.16089565298900885
9.813436,4.215225500055751,0.16127629794840576
9.815832,4.205866622629725,0.16158678652592712
9.81822,4.2011635730025905,0.16177612921889506
9.820616,4.189615603375043,0.16222105430309347
9.823012,4.17592576337422,0.1627421028016955
9.825399999999998,4.17210665747862,0.16297415078402305
9.827784,4.184444127181215,0.1627008915474842
9.830188,4.195850431324032,0.16245686857989025
9.832572,4.205114865093573,0.16228817393557043
9.834952,4.215450234049751,0.16208506961898028
9.83736,4.228207012632927,0.16177555688409898
9.839748,4.236959589723269,0.16159173654074588
9.842128,4.252929173866361,0.1611905223904122
9.844524,4.2763480824876785,0.16061217669712669
9.846912,4.311919365214359,0.15968190725809928
9.849296,4.352286245366791,0.15863073196393393
9.851692,4.39959059331825,0.15739491593382487
9.85408,4.447546567575769,0.1561496444816798
9.856459999999998,4.496433707393065,0.15492980493207933
9.858856,4.542387580904166,0.15380336171705355
9.861244,4.5871779714300125,0.1526458556431486
9.863623999999998,4.624519037477631,0.1516627224031893
9.866024,4.657064506099498,0.15079767036763753
9.868412,4.693334636960478,0.14984809180035938
9.870791999999998,4.734679904500932,0.14876144929700885
9.873192,4.770997257190156,0.14777044427338754
9.87558,4.7937192135350415,0.14712803466215024
9.877959999999998,4.813507903573733,0.14655946401437586
9.880356,4.833948219918482,0.1459933443951396
9.882744,4.856250867382788,0.1453975367814205
9.885127999999998,4.882557716339927,0.14470225127759617
9.887524,4.907793630110429,0.1440339345392516
9.889916,4.926324393507378,0.1435933258854418
9.892295999999998,4.946437948770163,0.14315654073107403
9.894692,4.958822640301002,0.1429003471494858
9.897075999999998,4.9649687121671136,0.14274858279163283
9.899452,4.965388021047693,0.14271596938568995
9.901856,4.97474689847372,0.14248697146456568
9.904239999999998,4.980101574406912,0.14235052062598827
9.90662,4.985223932914628,0.14217854419906623
9.909024,4.997516076646848,0.14189752432106206
9.911407999999998,5.013253343364463,0.14156613974440543
9.913799999999998,5.03965274012022,0.14102870144170496
9.916192,5.06540051056992,0.14049452948374624
9.91858,5.086352683593866,0.14005604869973778
9.92096,5.108188800349349,0.13965610033869716
9.92336,5.143061234941727,0.13903245129356184
9.925743999999998,5.183380893265914,0.13832698642496072
9.928124,5.228263831590378,0.13751216349437237
9.93052,5.270353273235505,0.13675656888144927
9.932904,5.304526859693582,0.13620224790775348
9.935296,5.342425108390773,0.1355861056234952
9.937691999999998,5.377669630035489,0.13499737606700554
9.940076,5.403882035336142,0.1345531309219087
9.942472,5.431677232502633,0.13410030808712595
9.944864,5.46422080526663,0.13361076371819114
9.947247999999998,5.495925760269467,0.13317385864463077
9.949628,5.517620211540221,0.13295269016148653
9.952023999999998,5.5385232668780535,0.13273752505951955
9.954408,5.559658639641365,0.13255788554589723
9.9568,5.573716774978787,0.1325264228168123
9.959196,5.5901490981149635,0.13247854397380138
9.961583999999998,5.5971299960264975,0.1325915326198352
9.963964,5.603738806885693,0.13268106295493054
9.966364,5.610719704797226,0.1327944267375064
9.968747999999998,5.61770060270876,0.13290741538354023
9.971144,5.617371945768927,0.13312554974984708
9.973548,5.611084208418086,0.13340464162666674
9.975932,5.599209477708577,0.13376400976939634
9.978312,5.583702632558571,0.13422568686362832
9.980716,5.578485830394369,0.13448066035222384
9.9831,5.572617401924109,0.13472850011351326
9.98548,5.570660627148067,0.13485969514261534
9.987884,5.573639219424636,0.1349019530977238
9.990272,5.576338272447485,0.1349628865217785
9.992648,5.579596403977774,0.13498655385139796
9.995044,5.5866264195754205,0.13490355749112082
9.997428,5.591841325881754,0.13479557244812249
9.999807999999998,5.596264836255168,0.13469213595171192
10.002199999999998,5.602410908121279,0.13457040168876783
10.004587999999998,5.612700951107084,0.13436412790787514
10.00698,5.622386589615074,0.1341042340378981
10.009384,5.636216199242757,0.13376283740627473
10.011768,5.647484629616582,0.13349609516784772
10.014148,5.661826095923464,0.13316982077180256
10.016552,5.679659907043983,0.13275972306584347
10.01894,5.69763348779136,0.1323408377877943
10.02132,5.717748938912014,0.1318756267423609
10.023724,5.737305311525228,0.13144570025768426
10.026108,5.760633568205799,0.13090522281146622
10.028488,5.781867176341335,0.13037293093698676
10.030884,5.798864265558561,0.12988032970565458
10.033268,5.812648549215871,0.12945584935435367
10.035647999999998,5.8232200273132655,0.1291002541509765
10.038044,5.82941521686549,0.12879063035839283
10.040428,5.833375988245819,0.12848589253938325
10.042824,5.8349625718273925,0.1281944175457199
10.04522,5.842927544700556,0.12782093710423684
10.047608,5.850752747946859,0.12745517587536245
10.049988,5.8543414322748495,0.12712707715813265
10.052384,5.8574182599236435,0.1267873321182977
10.054772,5.85835321719916,0.12649186547477778
10.057147999999998,5.853980720369727,0.12625493657364395
10.059552,5.849236136487957,0.1259938695833151
10.06194,5.842257134434294,0.12573510004234148
10.06432,5.827409499021822,0.1256038837108275
10.066724,5.809628597303156,0.12552016503620117
10.069112,5.792499321890547,0.12544050935726458
10.071492,5.771785153865685,0.12540524333764758
10.073892,5.749860281027324,0.1254002563101778
10.07628,5.7241635241216065,0.12549503668904186
10.07866,5.7017721205744225,0.12556601155155164
10.081064,5.684176314452991,0.12556259063108163
10.083448,5.666720277958418,0.12555056296953254
10.085828,5.654991004449377,0.1254525527056842
10.088232,5.643354278738951,0.12539594943242266
10.09062,5.6320896400808635,0.12536257222578484
10.093,5.612956368063968,0.12545936308893216
10.095396,5.59610473604721,0.12550219136412574
10.097784,5.583908931829344,0.12548073532076687
10.100164,5.567010077984342,0.12557494364124738
10.102567999999998,5.5519735552589,0.12564251777172658
10.104956,5.537029580332073,0.12575439149986137
10.107336,5.522317922830723,0.12590104232423616
10.10974,5.511051388314765,0.12601206511502097
10.112123999999998,5.507513717530755,0.12600228957781937
10.114504,5.507700708985858,0.12594094195723202
10.1169,5.509750031560519,0.12585461929244168
10.119288,5.520319613800044,0.12564419991070774
10.121668,5.533962231972625,0.12537895673655938
10.12406,5.548815554958703,0.12508185356205975
10.126448,5.5628774820118645,0.12478935348449216
10.128828,5.574006142758831,0.12454661363792185
10.131224,5.586065969065575,0.12429125199519121
10.133612,5.59705486018568,0.12406003620957608
10.136008,5.608183520932646,0.1238195314462134
10.138404,5.6202433472393905,0.12356740493876531
10.140792,5.643105073211137,0.12314610992267754
10.143172,5.663685159182745,0.12277759861137998
10.145575999999998,5.681983605154218,0.12246260634947262
10.147963999999998,5.706567892618661,0.1220298174068428
10.15034,5.732223115269743,0.12158229048725369
10.152736,5.762301848294239,0.12104305783233803
10.15512,5.799737357998344,0.12037724510275309
10.1575,5.8300956302765625,0.11982744115394718
10.159896,5.861524837741417,0.11927076087571348
10.16228,5.892442188527073,0.11870266117987396
10.164672,5.91777254595406,0.11820337130194039
10.167075999999998,5.939518010768794,0.11774622973819285
10.169464,5.960052770770029,0.11732199233069708
10.171844,5.978445660397988,0.1169346016117756
10.174248,5.998840650772363,0.11652003315482727
10.176631999999998,6.019095871519879,0.11611434001663112
10.179012,6.041353193013811,0.11568194974508621
10.181408,6.062679348947963,0.1152620861008311
10.183792,6.085216209695616,0.11481667385565157
10.186172,6.108172379323849,0.11434959617380829
10.188576,6.121677123727439,0.11399819218945073
10.19096,6.139325839250722,0.1135836033233412
10.193344,6.158325029214365,0.11313539975425135
10.195744,6.174810261752393,0.11270587204077892
10.198132,6.1868719839170065,0.11235725603476868
10.200512,6.1937187997752865,0.11209069635780781
10.202912,6.19348837820768,0.11192754312192202
10.2053,6.196470762199986,0.1117090753937206
10.20768,6.194378009512822,0.11156496331557966
10.210083999999998,6.191865947945076,0.11144513265363272
10.212471999999998,6.191216217496889,0.11130517079152355
10.214848,6.192568587795117,0.11113834641561746
10.217244,6.196062828466622,0.11093783963481207
10.219628,6.203980579511541,0.11065980101137732
10.222024,6.210035999436904,0.11040214390310751
10.22442,6.217441893802627,0.11011227676046888
10.226807999999998,6.219912421115737,0.10988435569402422
10.229188,6.222382948428845,0.10965659982299408
10.231583999999998,6.2229911446224,0.10944750423296935
10.233968,6.221177931188956,0.10928846946727301
10.236348,6.2274656685397956,0.10906371855867204
10.238744,6.2316115355173585,0.10887468499752688
10.241132,6.233755301748505,0.10871151597727106
10.243528,6.237202320591766,0.10856270690453419
10.245932,6.241720274621668,0.10839613865110263
10.248316,6.253175696450597,0.10814449573426604
10.250696,6.265841823093025,0.1078681964110607
10.2531,6.283303547161205,0.10754272551102975
10.255484,6.3018362064160245,0.10720024982415795
10.257867999999998,6.320508635297702,0.1068502911542344
10.260264,6.342905726418493,0.10646769368391001
10.262648,6.363952343098927,0.10612045558129443
10.265031999999998,6.379364744592447,0.10587032289319924
10.267428,6.391796657951528,0.10569961698344653
10.269811999999998,6.403529723176309,0.10556704522085622
10.272192,6.414424170639927,0.10548099202361033
10.274588,6.432767942581774,0.1053282322068946
10.276979999999998,6.451623571202818,0.10519010341160749
10.27936,6.473644783555534,0.1050497766824593
10.281764,6.498739031841306,0.10486977840900044
10.284147999999998,6.518106517141548,0.10474879147034329
10.286528,6.537985859120988,0.10464308043883187
10.288923999999998,6.562381259272458,0.1045057158655674
10.291312,6.581841292371316,0.10442294890877052
10.293692,6.60423459177637,0.10430841990482374
10.296088,6.62234415043487,0.1042574586427526
10.298472,6.640174169839648,0.10422172427823398
10.300868,6.652649513311235,0.10426318770767898
10.303264,6.666567879021797,0.1043108876830979
10.305647999999998,6.683000202157975,0.10434992892857868
10.308028,6.698361590107512,0.10440480389598113
10.310424,6.714374604363108,0.10446641170850772
10.312808,6.738023934552035,0.10441737094668962
10.315204,6.763582817688761,0.10431049671978278
10.317608,6.791702880079344,0.10415314383978695
10.319992,6.816797128365116,0.10398913464052428
10.322371999999998,6.840308584785052,0.10383049286081267
10.324776,6.866381220458844,0.1036239860601988
10.327164,6.888077567587465,0.10344031279158901
10.329539999999998,6.9080513532233905,0.10326599039996966
10.331944,6.930306778859454,0.10305628191038223
10.334328,6.952190117443178,0.10282747740943152
10.336707999999998,6.9696971674817325,0.10262276869471558
10.339112,6.994421224573037,0.10233412110078403
10.3415,7.020775295358419,0.1020088154552277
10.34388,7.048899149464741,0.10163679538876466
10.34628,7.077302542824784,0.10125178623108731
10.348668,7.109897129132764,0.10077999892098172
10.351048,7.14067660614943,0.10028334098586442
10.353452,7.16428629794159,0.09982630793064917
10.355836,7.184730406002078,0.09937068404270856
10.358216,7.204570109584751,0.0988706339121886
10.36062,7.216680949435477,0.0984406053385501
10.363004,7.227069227793507,0.09801838088292604
10.365384,7.2369456494723385,0.09758579132711515
10.367788,7.253759538950199,0.09709062520230075
10.370176,7.261122003203415,0.09666368643076383
10.372556,7.263828639657741,0.0962698107792008
10.374959999999998,7.270167390552563,0.09581742885779579
10.377348,7.275714745514467,0.09536474330209986
10.379728,7.2787481430507555,0.0949175790089819
10.382132,7.278476187228512,0.09447472590165337
10.384519999999998,7.275550504353794,0.09404127551958397
10.3869,7.267177597747266,0.09363908539311282
10.389304,7.256942360021182,0.0932505165361323
10.391687999999998,7.24484479117554,0.0928734574482018
10.394068,7.235028862330036,0.09246596654956347
10.396472,7.222651754230674,0.09210280348740964
10.398856,7.2090639413178135,0.09175672418688373
10.401236,7.201761969897926,0.09134301106995564
10.403631999999998,7.197113725530512,0.09091881472610437
10.406019999999998,7.1896247626555185,0.09055021826357453
10.4084,7.183066965340305,0.09017401271919194
10.410796,7.178091959890926,0.08979995492795623
10.41318,7.170835314441412,0.08945634839727767
10.41556,7.158503532312423,0.08915969865174296
10.417956,7.156973649848438,0.08877796366641659
10.420344,7.15623516331737,0.08839627037469115
10.422724,7.1541462023459435,0.08804015829318151
10.425128,7.152848637307436,0.0876851364667696
10.427516,7.1520629289481255,0.08734325200164172
10.429896,7.150438602827652,0.08703793490644662
10.432299999999998,7.152119630065714,0.08672992352765278
10.434684,7.153241578796335,0.08644676155263215
10.437064,7.148869081966903,0.08622830474507033
10.439467999999998,7.147150312189945,0.0860012186428925
10.441856,7.141008032039571,0.08582733250769985
10.444236,7.1348657518891985,0.08565335743615624
10.44664,7.130306263604663,0.08548188204483595
10.449027999999998,7.125187696812686,0.08533668625677927
10.451408,7.121791691513406,0.08518875496466617
10.453803999999998,7.119466621400763,0.08502896709447262
10.456191999999998,7.121145752780954,0.08483704114236842
10.458572,7.120822783414729,0.08466131079340587
10.460968,7.121430979608284,0.08448070712664425
10.463356,7.122690802107894,0.08430807103203354
10.465736,7.115383143114398,0.08422502237194772
10.468132,7.10779594486718,0.0841546641492223
10.47052,7.0977873369929645,0.08411950585498153
10.472896,7.0884303554248085,0.08409234056810597
10.4753,7.0815873312822655,0.08406389204936474
10.477684,7.081030148632694,0.08397496565796976
10.480068,7.083685771543037,0.08385333516280728
10.482468,7.092347696692632,0.08368561266391793
10.484856,7.10594498889484,0.08348117310133404
10.487236,7.119402511470187,0.08328529517875972
10.48964,7.132720264418673,0.08309429525511572
10.492024,7.146689643673216,0.082912153424078
10.494404,7.160379483674039,0.08274277715502741
10.496807999999998,7.179656317033532,0.0825498757822582
10.499196,7.192926848153776,0.08240256926076851
10.501576,7.208851106326493,0.0822487838364119
10.503972,7.221143250058713,0.08214634822930729
10.50636,7.237299825656907,0.08202119511754875
10.50874,7.251034991628106,0.08192926347360621
10.511143999999998,7.265980862412803,0.08182099210527133
10.513528,7.289354445063747,0.08163467823708882
10.515912,7.314869898087968,0.08142774564566402
10.518304,7.343458387045245,0.0811949429280849
10.520692,7.371115710442743,0.08096690760607482
10.523072,7.397330011601266,0.08072989556345184
10.525468,7.419260572013235,0.08053650587697876
10.527856,7.437838557238428,0.0803818028943943
10.530236,7.454274672090343,0.08024992875509013
10.532632,7.471641952502037,0.0801151272778252
10.53502,7.482723391420759,0.08003429506280597
10.537416,7.498879967018954,0.07991541941516396
10.539815999999998,7.511963506684094,0.0798203112310328
10.542203999999998,7.5242556504163165,0.07972283405997749
10.544584,7.524954498550616,0.07969239787026967
10.546983999999998,7.5295177785508915,0.07963955807469951
10.549368,7.531567101125552,0.07958678803506787
10.551748,7.533104567021013,0.0795194584319069
10.554151999999998,7.5306378314236415,0.07948066260747205
10.556539999999998,7.530452735826409,0.07941534708755112
10.558916,7.5264032083632015,0.0793722228325658
10.561319999999998,7.518069940153441,0.07936936849180849
10.563707999999998,7.506663636010623,0.07939050739565823
10.566088,7.497259432614223,0.0793971512348811
10.568488,7.492138969964377,0.07936390011097515
10.570875999999998,7.489160377687807,0.07931098730325073
10.573256,7.492188087650489,0.07921819076475273
10.57566,7.4967060416803895,0.0790982135957316
10.578043999999998,7.495497232724761,0.07900603628292723
10.580424,7.491494927089795,0.07892497226777084
10.582824,7.4948493981344395,0.07878249530878853
10.585207999999998,7.496341538059529,0.07864820039913785
10.587592,7.501465792425113,0.07846760354465633
10.589987999999998,7.51180495309703,0.07824681437152788
10.592375999999998,7.528150416008198,0.07798569222625933
10.594756,7.5427733174266685,0.07772599594245158
10.597152,7.561260650711114,0.07744791238673
10.59954,7.587476847727505,0.07713289168553804
10.60192,7.614112353624478,0.07680009475575235
10.604323999999998,7.642749960267867,0.07645644426663126
10.606711999999998,7.678045495456565,0.07608452098703164
10.609092,7.713620569898982,0.07570163165172425
10.611488,7.754131011394011,0.07529151984500917
10.613872,7.791708186582846,0.0749003216820267
10.616256,7.822068354718932,0.07456264682941775
10.618652,7.8500071132280205,0.07425657104090944
10.62104,7.873010504684497,0.07398108494591416
