Time,Force,Position
11.072568,0.1419723275977558,0.0
11.074964,0.13191460203742839,0.0
11.077352,0.12120525017104306,0.0
11.079736,0.10972346017164016,0.0
11.08214,0.09623956942582042,0.0
11.084528,0.08354707461291874,0.0
11.086911999999998,0.07471901166599058,0.0
11.089308,0.06589094871906243,0.0
11.091696,0.055060785025717415,0.0
11.094079999999998,0.04637249170564947,0.0
11.096476,0.0402264198395387,0.0
11.098864,0.036222218346705,0.0
11.101244,0.036501757600425414,0.0
11.10364,0.04213597278733849,0.0
11.106027999999998,0.042555281667919116,0.0
11.108412,0.044185295361998486,0.0
11.110808,0.03994877644368752,0.0
11.113196,0.03799389752551382,0.0
11.115576,0.04360915491252639,0.0
11.11798,0.049364181926399166,0.0
11.120368,0.051906403380356354,0.0
11.122751999999998,0.05167408595487909,0.0
11.125148,0.053955725955016354,0.0
11.127536,0.05635817778211333,0.0
11.129916,0.059831564795848835,0.0
11.132312,0.06609844848891931,0.0
11.134704,0.07250510180884998,0.0
11.137083999999998,0.0769096543823638,0.0
11.13948,0.07838094064968246,0.0
11.141868,0.07943291803642048,0.0
11.144248,0.07901360915583985,0.0
11.146643999999998,0.07432951732860563,0.0
11.149031999999998,0.0700457765820515,0.0
11.151416,0.06362016546222031,0.0
11.153812,0.0589643376633287,0.0
11.156196,0.055891301730273325,0.0
11.15858,0.05724177617063227,0.0
11.160975999999998,0.0583127113572708,0.0
11.163364,0.055938523558516466,0.0
11.165744,0.053005257252321296,0.0
11.168143999999998,0.057428767625735636,0.0
11.170532,0.06264367393206809,0.0
11.172928,0.0661360187457041,0.0
11.175324,0.07163046430575697,0.0
11.177712,0.07391210430589425,0.0
11.180091999999998,0.06967558538758326,0.0
11.182488,0.0662304624021904,0.0
11.184876,0.06399604423029627,0.0
11.187256,0.07014211609640705,0.0
11.189652,0.07712680572367907,0.0
11.192044,0.08341264721665005,0.0
11.194424,0.09130954460379989,0.0
11.196828,0.09610514202955171,0.0
11.199216,0.09931794758946728,0.0
11.201596,0.10569633688105533,0.0
11.203992,0.10876937281411071,0.0
11.20638,0.11100379098600482,0.0
11.208759999999998,0.11430914434453747,0.0
11.21116,0.11533285770293283,0.0
11.213544,0.11598448400899072,0.0
11.215927999999998,0.10901875218161922,0.0
11.218324,0.10312395554088621,0.0
11.220712,0.09722915890015324,0.0
11.223092,0.08933226151300341,0.0
11.225488,0.08357723449913063,0.0
11.227875999999998,0.08154686972437114,0.0
11.23026,0.07858533938983331,0.0
11.232664,0.07641520498821361,0.0
11.235048,0.06879784685478421,0.0
11.237431999999998,0.06076117984077416,0.0
11.239828,0.05328359133420494,0.0
11.24222,0.0453866939470551,0.0
11.244604,0.03911981025398463,0.0
11.247,0.03350455286697206,0.0
11.249388,0.026166733987263054,0.0
11.251767999999998,0.020411706973390276,0.0
11.254168,0.015075988840098127,0.0
11.256556,0.0077381699603891255,0.0
11.258936,0.0034733870137355076,0.0
11.261336,0.0,0.0
11.263724,0.0,0.0
11.266104,0.0,0.0
11.2685,0.0,0.0
11.270892,0.0,0.0
11.273272,0.0,0.0
11.275672,0.0,0.0
11.27806,0.0,0.0
11.280444,0.0,0.0
11.28284,0.0004003510806801257,0.0
11.285228,0.00040035108068012563,0.0
11.287612,0.00040035108068012563,0.0
11.290012,0.0004003510806801257,0.0
11.2924,0.0004003510806801257,0.0
11.294784,0.0004003510806801257,0.0
11.29718,0.003082342161497523,0.0
11.299564,0.004553628428816179,0.0
11.301944,0.006956080255913156,0.0
11.304348,0.012431568016065514,0.0
11.306732,0.01711565984329976,0.0
11.309112,0.019146024618059258,0.0
11.311519999999998,0.019146024618059258,0.0
11.313904,0.019146024618059258,0.0
11.316288,0.019146024618059258,0.0
11.318684,0.019146024618059258,0.0
11.321068,0.019146024618059258,0.0
11.323448,0.019146024618059258,0.0
11.325844,0.019146024618059258,0.0
11.328232,0.020617310885377917,0.0
11.330616,0.021688246072016446,0.0
11.333012,0.025953029018670064,0.0
11.335396,0.03156828640568263,0.0
11.337775999999998,0.039977040472030156,0.0
11.340191999999998,0.04759439860545958,0.0
11.342579999999998,0.056142922298667325,0.0
11.34496,0.060007354164640814,0.0
11.347356,0.06829529640402864,0.0
11.349744,0.07565207308363814,0.0
11.352124,0.07621115159107898,0.0
11.354527999999998,0.07928418752413437,0.0
11.356912,0.08794421681585966,0.0
11.359292,0.1037097475618167,0.0
11.3617,0.12068598312127246,0.0
11.364083999999998,0.13738267942700783,0.0
11.366464,0.15314821017296487,0.0
11.368859999999998,0.16877397129206168,0.0
11.371248,0.18146646610496334,0.0
11.373628,0.19415896091786503,0.0
11.376032,0.2027264424109733,0.0
11.378419999999998,0.20836065759788636,0.0
11.3808,0.21134114573232465,0.0
11.383195999999998,0.2117604546129053,0.0
11.385584,0.20552183494817744,0.0
11.387964,0.19790447681474801,0.0
11.39036,0.18935595312154027,0.0
11.392744,0.18280953017474935,0.0
11.395124,0.1730503016680429,0.0
11.397524,0.1632910731613364,0.0
11.399908,0.15725650689374318,0.0
11.402292,0.14949937913345357,0.0
11.404688,0.1388089850669688,0.0
11.407076,0.12304345432101177,0.0
11.409472,0.106067218761556,0.0
11.411876,0.08937052245582067,0.0
11.414264,0.07360499170986362,0.0
11.416643999999998,0.057979230590766796,0.0
11.41904,0.045286735777865135,0.0
11.421428,0.03259424096496348,0.0
11.423811999999998,0.02255547320453658,0.0
11.426216,0.01544997175030485,0.0
11.4286,0.008372734324415765,0.0
11.430984,0.0035771368986639517,0.0
11.43338,0.005719007271941013,0.0
11.435768,0.01203311279325463,0.0
11.438147999999998,0.01727628312792972,0.0
11.440548,0.02652365495543851,0.0
11.442936,0.033629156409670236,0.0
11.445315999999998,0.04473885935673567,0.0
11.447712,0.05398623118424446,0.0
11.4501,0.06495616450444969,0.0
11.452483999999998,0.07420353633195848,0.0
11.45488,0.08359067778632748,0.0
11.457268,0.0899047833076411,0.0
11.459651999999998,0.09435655770939806,0.0
11.462048,0.09508366987204177,0.0
11.464436,0.09508366987204175,0.0
11.466816,0.09508366987204175,0.0
11.469216,0.09508366987204175,0.0
11.471604,0.09508366987204177,0.0
11.473983999999998,0.09508366987204177,0.0
11.47638,0.0949156362168389,0.0
11.478768,0.09367666737499752,0.0
11.481148,0.08936466260010076,0.0
11.483543999999998,0.08305055707878714,0.0
11.485931999999998,0.07780738674411204,0.0
11.488316,0.06856001491660325,0.0
11.490716,0.06145451346237154,0.0
11.493099999999998,0.0503448105153061,0.0
11.495484,0.04109743868779731,0.0
11.49788,0.03012750536759209,0.0
11.500267999999998,0.0208801335400833,0.0
11.502648,0.011492992085714296,0.0
11.505052,0.005178886564400676,0.0
11.50744,0.0007271121626436962,0.0
11.50982,0.0,0.0
11.512216,0.0,0.0
11.514604,0.0,0.0
11.516988,0.0014712862673186564,0.0
11.519384,0.0014712862673186562,0.0
11.521767999999998,0.0020114069748589924,0.0
11.524152,0.0020114069748589924,0.0
11.526556,0.0020114069748589924,0.0
11.528944,0.0020114069748589924,0.0
11.531324,0.0020114069748589924,0.0
11.53372,0.004134319548235549,0.0
11.536112,0.007607706561971055,0.0
11.538491999999998,0.011081093575706562,0.0
11.540888,0.01362331502966375,0.0
11.543276,0.016305306110481147,0.0
11.545656,0.018987297191298543,0.0
11.548051999999998,0.02180905789897615,0.0
11.550439999999998,0.025561984166432076,0.0
11.55282,0.033319111926721705,0.0
11.555224,0.04093647006015112,0.0
11.557612,0.04962476338021907,0.0
11.559992,0.06045492707356409,0.0
11.562388,0.07021415558027057,0.0
11.564775999999998,0.07971280263315714,0.0
11.56716,0.09375577188641773,0.0
11.569556,0.10818978599191632,0.0
11.57194,0.12437462561845399,0.0
11.574324,0.14149063080476998,0.0
11.576719999999998,0.1561852263640885,0.0
11.579107999999998,0.1692025864010845,0.0
11.581504,0.17716187170063946,0.0
11.5839,0.18502481748583896,0.0
11.586284,0.196468864167553,0.0
11.588667999999998,0.22532172551559626,0.0
11.591072,0.2681382785445758,0.010410808979600967
11.59346,0.32324318359003845,0.0202495254700338
11.59584,0.38770317434578877,0.030010302577109665
11.598236,0.4624021945433623,0.03976486052196441
11.600628,0.5463618567947375,0.04945827005799585
11.603008,0.6490808081528006,0.05866153362943284
11.605408,0.7676730041396,0.06747271347311364
11.607796,0.8966912210233258,0.07614600738356792
11.610176,1.0359956891771176,0.08489754675184757
11.612576,1.1855391867727325,0.09367974815041151
11.614964,1.3449024049295901,0.10247054072192907
11.617344,1.5192077021554051,0.11108156979353734
11.61974,1.7051497250916454,0.11958082657432272
11.622128,1.9027284737383108,0.12800852636988752
11.624508,2.115389071080794,0.13642409386763818
11.626904,2.34415712633536,0.14473412265212504
11.629292,2.589965700919656,0.15287002692398147
11.631671999999998,2.8460662143476263,0.16078878022989196
11.634072,3.106082173185552,0.16850496313833366
11.63646,3.3465946688121146,0.17624274265905468
11.638839999999998,3.5730037031308797,0.17356971320017467
11.64124,3.7913609043514738,0.17140906021306274
11.643628,4.007160718033948,0.16917528921690292
11.646007999999998,4.210394536304088,0.16690059336415572
11.648408,4.3938925739373875,0.16475454565447706
11.650792,4.553323868359049,0.1631950438232523
11.653175999999998,4.695391674084757,0.16205855672280983
11.655572,4.825403445219457,0.1610726686388612
11.65796,4.945268734710953,0.16002684947089096
11.66034,5.05182195882757,0.1589873801541279
11.66274,5.143061016822891,0.15801911397104443
11.665128,5.217308673174595,0.1573156744777392
11.667507999999998,5.281315404226608,0.15673148620607735
11.669912,5.332614474381556,0.15622943783987045
11.672296,5.368878917668929,0.1557660445470946
11.67468,5.389130346700705,0.15542613882900405
11.677076,5.395276418566815,0.15526035762354387
11.679464,5.390388273342445,0.1553242185393184
11.681843999999998,5.380285221811745,0.15551938307681712
11.68424,5.371904731773739,0.15568919313439922
11.686628,5.36087051468326,0.15590721407237712
11.689024,5.345832096099947,0.1562191449862426
11.69142,5.325671319008919,0.15669794477850654
11.693808,5.313005192366489,0.15711954965324565
11.696188,5.309603499493602,0.15741709469764717
11.698584,5.312580195912302,0.15759964392894982
11.700972,5.318070849756616,0.15774707461418616
11.703356,5.324724986586185,0.15790806164733104
11.705752,5.337757512707342,0.15795268774370325
11.70814,5.351581434761419,0.15798798477485287
11.71052,5.370527715323211,0.15784900538360705
11.712924,5.388869591407188,0.1576500124343543
11.715312,5.4063275237596295,0.1574184909224191
11.717692,5.427370348724325,0.1571271891921401
11.720095999999998,5.453860397420829,0.15673980790206835
11.72248,5.481141842050251,0.15634154629620006
11.72486,5.51014584817237,0.15591968549943414
11.72726,5.542734746906742,0.15544154512712002
11.729644,5.577790381238485,0.15499470987658753
11.732024,5.617454621540877,0.1545166222298166
11.73442,5.6584221144553855,0.15403314920642247
11.736808,5.696363793265081,0.1535628826673355
11.739192,5.730488262037046,0.15311820572381987
11.741588,5.7571634063307835,0.1528221845134167
11.743976,5.781324593198907,0.1525639939664299
11.746356,5.803111592268275,0.1523290022980177
11.74876,5.8196383590609395,0.15212656187215073
11.751148,5.834769325442869,0.15187883092387974
11.753528,5.848177730332104,0.15166354076424138
11.755932,5.868942911900947,0.15127964621092474
11.75832,5.885144813469516,0.15102126968976046
11.7607,5.90427998134428,0.15070404294241557
11.763096,5.921413048472629,0.15043010041315083
11.765484,5.934681683735002,0.1502327707125831
11.767864,5.945668678997238,0.1500985415956171
11.770267999999998,5.962382437245006,0.1498627274839741
11.772656,5.975371533253659,0.14968975293451733
11.775036,5.982681088105026,0.14957309848800537
11.777432,5.986872281052964,0.14943604999174115
11.77982,5.984033458403254,0.149395141267836
11.782204,5.984035354261122,0.14925968260213066
11.7846,5.988320990865545,0.1490256072893816
11.786988,5.994748497843245,0.1487411448557398
11.789368,6.002806018515025,0.14839441835586478
11.791764,6.013237726985559,0.1480309944085496
11.794152,6.027766184747543,0.14762814898425913
11.796536,6.046251622174119,0.14719130088783605
11.798932,6.064457520346974,0.14677347388264111
11.80132,6.0772161947880186,0.14644136830023385
11.8037,6.084620193295873,0.1462357076194123
11.8061,6.093095126990364,0.14600467894791297
11.808488,6.098636794378661,0.14582773391900603
11.810868,6.103946144341478,0.1456205741106496
11.813264,6.10902317687882,0.14538286470136152
11.815652,6.114519518296743,0.1451193189477518
11.818032,6.115360031915772,0.14493262474229512
11.820432,6.11876172478866,0.1446714567370441
11.822816,6.119881777661411,0.14446452582186714
11.825195999999998,6.114296680160611,0.14441981327755216
11.827596,6.115229741578259,0.14426868065019838
11.82998,6.115603724488466,0.14415436166352183
11.83236,6.114487463331454,0.14409125888109425
11.834775999999998,6.115233533293998,0.14399867307191058
11.837164,6.114629128816183,0.14394768440254546
11.839544,6.111510766912754,0.14392316700003088
11.841948,6.104947282023931,0.14393927112341362
11.844332,6.09880310601569,0.1439283938091494
11.846716,6.093218008514889,0.14388187496292157
11.849111999999998,6.087353371760368,0.14385338714644885
11.851499999999998,6.079346864632568,0.14387216284832563
11.853884,6.07092104862419,0.14391832224056889
11.856279999999998,6.065288729295146,0.14392017301751142
11.858667999999998,6.058725244406324,0.14393674605222828
11.861052,6.054955256196837,0.14390866450238923
11.863447999999998,6.049695023920131,0.14393086906039915
11.865835999999998,6.042013382016427,0.14401870063764247
11.86822,6.036566158284618,0.14409700139042037
11.870615999999998,6.038335941605558,0.1440291161775892
11.873003999999998,6.048253897539025,0.1437991336137993
11.875384,6.056589061606657,0.14358303788178875
11.877788,6.0650639953011485,0.1433593381805513
11.880176,6.075680799368916,0.14309107140020363
11.882559999999998,6.081781545264653,0.1428850118470649
11.884956,6.088953226347028,0.14265530242356167
11.887344,6.098918404108739,0.14238513755417262
11.889724,6.111677078549784,0.14207391400808522
11.892119999999998,6.122573421871273,0.14179162845414492
11.894507999999998,6.1341213914988195,0.14151482178178415
11.896892,6.14981333224606,0.14115695799149783
11.899288,6.167647143366578,0.14075340498318795
11.901675999999998,6.191627026353206,0.14023703058284787
11.90406,6.21867994527289,0.13967132683277458
11.906456,6.24717588643155,0.1391028810181583
11.908843999999998,6.271388086843655,0.13862272452386298
11.911224,6.296950761696119,0.13810425779222535
11.913628,6.326797177295137,0.13749759234799241
11.916016,6.353338239535623,0.136923621402602
11.918399999999998,6.375735330656416,0.13643302246368938
11.920796,6.394128220284374,0.13601469473908853
11.923184,6.41317273621839,0.13560376589941495
11.925564,6.433288187339045,0.1351757210454402
11.927964,6.451541307340143,0.13477637368363454
11.930348,6.472308384766856,0.13435328816070397
11.932732,6.494937793313125,0.1339069513357319
11.935128,6.512352295553062,0.1335570913142268
11.937512000000002,6.528835632233221,0.1332228294612944
11.939892,6.545970595219437,0.1328922500264895
11.942284,6.5580304215261815,0.13264711043282523
11.944672,6.568739773392567,0.13244094749353735
11.947052,6.579588894885814,0.1322278071818006
11.949448,6.584199396714331,0.13208618039570852
11.951836,6.580010099624262,0.13207807691809098
11.954216,6.574749867347557,0.13209039256316168
11.956628000000002,6.572562671003906,0.13204993680201313
11.959016000000002,6.569444309100477,0.13202164933336377
11.9614,6.567396882383686,0.13197314359483311
11.963804,6.56772364346565,0.1319130133046681
11.966188,6.570843901226948,0.13181757555804965
11.968572000000002,6.574755554921164,0.13171802647435268
11.970968,6.578015582309323,0.1316150777253914
11.973352000000002,6.580344444137702,0.13152455442485694
11.975732,6.5793207307793065,0.13150029293287638
11.978136,6.57936795260755,0.13145649356564446
11.980524,6.578763548129735,0.1314086620922055
11.982904,6.5827224236521955,0.13126758209030195
11.985308,6.585889903241737,0.13113058207582923
11.987696,6.591059483577695,0.13096360229667459
11.990076000000002,6.602886992458962,0.13070850059154523
11.992472,6.61513381022081,0.13043127426455903
11.99486,6.627520397609517,0.13014805370941793
11.99724,6.643072568729897,0.12985192457971134
11.999644,6.664071963582087,0.12949263044089718
12.002032,6.688004624740473,0.12909204419221057
12.004412000000002,6.714079156272136,0.12865808327085532
12.006808,6.741084853363576,0.12821478595392222
12.009192000000002,6.763667040081603,0.1278568018789543
12.011572,6.782524564560516,0.12754300402963967
12.013968000000002,6.800311153852791,0.12725028549784367
12.016356000000002,6.823312649451397,0.12687726488231899
12.018748000000002,6.8429615698632285,0.12656620586724543
12.021152,6.864193282140895,0.12625240939566656
12.02354,6.889429195911396,0.12587834440471476
12.02592,6.915596275241675,0.12549703624161393
12.028316,6.944836390505009,0.12507619038169057
12.030704,6.974867901701263,0.1246594322049279
12.033080000000002,7.006482204763351,0.12423984333755528
12.035484,7.037305111892522,0.12382725087380922
12.037872,7.068547327902274,0.12339995357597097
12.040252,7.100441170218083,0.12298106118110938
12.042648,7.129913602906896,0.12261049978352671
12.045036,7.159386035595707,0.12224345655542725
12.047416000000002,7.191279877911517,0.12183309842123449
12.049812,7.224524194667684,0.12139808509647156
12.0522,7.251901978811463,0.12103412113055849
12.05458,7.280071158888159,0.12067066436326236
12.056984,7.309730583032075,0.12026903618513596
12.059372,7.341392107922406,0.11984026692788415
12.061752000000002,7.3739847983725175,0.11940507547722852
12.064152,7.397637920277183,0.11908250489708101
12.066536,7.424643617368623,0.11870357444862757
12.068916000000002,7.447133256288033,0.11836479311651604
12.07132,7.47083360002094,0.11800572011841207
12.073708,7.491600677447654,0.11768180095814354
12.076088000000002,7.5031486470752,0.11748073336113987
12.078492,7.511763350396551,0.11731498826132442
12.08088,7.517724326665428,0.11716950934079369
12.08326,7.51968110144147,0.11707315108222005
12.085664,7.519635775471095,0.11700194487127956
12.088052,7.517867888008025,0.11694157921820146
12.090432,7.517869783865894,0.11683155600987166
12.092828,7.51442655673837,0.11674279866996953
12.095216,7.508841459237569,0.11668493948823393
12.097596,7.50218542655013,0.1166420471156092
12.099988,7.5067506024082755,0.11646148625715338
12.102376,7.510012525654303,0.11627172395191536
12.10476,7.511923974459971,0.11610976313368515
12.107156,7.517979394385335,0.11589698074493586
12.10954,7.519518756138666,0.11571777359922696
12.11192,7.525341858638552,0.11547879554458987
12.114324,7.5273005292724635,0.1152785806577989
12.116712,7.529119430279516,0.11508399164306836
12.119092000000002,7.529076000167011,0.11490639732050019
12.121488,7.531453979681505,0.11468632044187389
12.123872000000002,7.537975930315691,0.11441147456201603
12.126268,7.542775319457181,0.11414594004309335
12.128664,7.547434938971811,0.11388642758915823
12.131048,7.555027824792636,0.1135941751397357
12.133432,7.557545573933989,0.11336283615239806
12.135828,7.559271927142424,0.11313299278388506
12.138212,7.562581072216695,0.11290101579347012
12.140596000000002,7.567752548410523,0.11265214251581451
12.142992,7.568268196805459,0.11244389361937787
12.14538,7.566130118147921,0.1122541085463873
12.147776,7.5498375646386044,0.11223228567565642
12.150172,7.533125702248707,0.1122298061731916
12.15256,7.519906184672446,0.1121692584543347
12.15494,7.499749199297155,0.11218384768969634
12.157336,7.484946889855058,0.11212459883532556
12.159724,7.471075745972739,0.11205671014132887
12.162104,7.467215105822503,0.11187808801233658
12.164508,7.467638206418823,0.11164264684456808
12.166896,7.471134342948197,0.11137270763692741
12.169276,7.473419774664073,0.11112404165826724
12.171672,7.479988947126503,0.11082107811689115
12.17406,7.48734951552185,0.11051619889044881
12.17644,7.5002045294772515,0.11013821807665143
12.178844000000002,7.514410017873011,0.1097352163032995
12.181232,7.53597228294838,0.10924315772058961
12.183612,7.559536648770166,0.10873161125689282
12.186008,7.580167748285757,0.10824966282765976
12.188396,7.601730013361126,0.10776240397956324
