Time,Force,Position
12.581592,0.04557340526502545,0.0
12.583992,0.045201318212687976,0.0
12.586387999999998,0.04590016634698903,0.0
12.588772,0.04487105592763155,0.0
12.591156,0.041700075134997,0.0
12.593552,0.037458159155723925,0.0
12.59594,0.031353912056894216,0.0
12.59832,0.023107794584787438,0.0
12.60072,0.01751540416515542,0.0
12.603108,0.01392511449194025,0.0
12.605488,0.01457674079799815,0.0
12.607884,0.01937233822374996,0.0
12.610272,0.028829160509355474,0.0
12.612656,0.03618593718896498,0.0
12.615052,0.04754691536140818,0.0
12.617436,0.060398137601070545,0.0
12.61982,0.07711379170670642,0.0
12.62222,0.09462084174526038,0.0
12.624608,0.11422793738981035,0.0
12.626988,0.13397480266122055,0.0
12.629384,0.14612717676658185,0.0
12.631772,0.16000211236463957,0.0
12.634156,0.17094378165650218,0.0
12.636552,0.18533597099471974,0.0
12.63894,0.19693466365360235,0.0
12.641324,0.2083935866856247,0.0
12.64372,0.21892134415786876,0.0
12.646108,0.23024049756303092,0.0
12.648503999999996,0.23876615428885808,0.0
12.650899999999998,0.24822297657446363,0.0
12.653287999999998,0.2503648469477407,0.0
12.655668,0.2482229765744636,0.0
12.658063999999998,0.23876615428885808,0.0
12.660451999999998,0.23071052947494752,0.0
12.662832,0.2180409016294264,0.0
12.665228,0.20416056897040658,0.0
12.667616,0.18734697000519154,0.0
12.669996,0.1685312702935597,0.0
12.672392,0.1489241746490097,0.0
12.67478,0.12917730937759953,0.0
12.677164,0.11450558078566156,0.0
12.67956,0.09904245626080549,0.0
12.681948,0.08651259804214459,0.0
12.684343999999998,0.07212040870392705,0.0
12.68674,0.06276153127790068,0.0
12.689127999999998,0.05247148829209602,0.0
12.691508,0.04232121493315155,0.0
12.693903999999998,0.03338164638770582,0.0
12.696291999999998,0.02923767526801191,0.0
12.698672,0.020298106722566184,0.0
12.701076,0.015502509296814368,0.0
12.703464,0.012848782244339618,0.0
12.705844,0.014576740797998146,0.0
12.708239999999998,0.013827169632361087,0.0
12.710627999999998,0.018628164119075002,0.0
12.713011999999996,0.02249799304601059,0.0
12.715407999999998,0.02422595159966912,0.0
12.717795999999998,0.02422595159966912,0.0
12.720176,0.024882974966689116,0.0
12.722571999999998,0.024882974966689116,0.0
12.724959999999998,0.024882974966689116,0.0
12.72734,0.024882974966689116,0.0
12.729743999999998,0.024882974966689116,0.0
12.732127999999998,0.02488297496668912,0.0
12.734508,0.0226431597338329,0.0
12.736903999999996,0.02147427968761521,0.0
12.739288,0.021096795574315635,0.0
12.741683999999998,0.018717210714599204,0.0
12.74408,0.014335525108465924,0.0
12.746463999999998,0.013818271368306136,0.0
12.748844,0.01330101762814635,0.0
12.751248,0.012783763887986561,0.0
12.753635999999998,0.01105580533432803,0.0
12.756016,0.01105580533432803,0.0
12.758407999999998,0.006254810847614119,0.0
12.760795999999996,0.002384981920678528,0.0
12.763191999999998,0.0006570233670199986,0.0
12.765588,0.0006570233670199986,0.0
12.767976,0.0,0.0
12.770355999999998,0.0,0.0
12.772752,0.0,0.0
12.775135999999998,0.0,0.0
12.777516,0.0,0.0
12.77992,0.0,0.0
12.782308,0.0,0.0
12.784687999999996,0.0,0.0
12.787092,0.0,0.0
12.78948,0.0,0.0
12.791859999999998,0.0,0.0
12.794256,0.0,0.0
12.796639999999998,0.0,0.0
12.79902,0.0,0.0
12.801419999999998,0.0,0.0
12.803803999999998,0.0031237589643913874,0.0
12.806188,0.010249823563747231,0.0
12.808592,0.02766213943316927,0.0
12.81098,0.06364675295417609,0.0
12.813359999999998,0.12127670005982302,0.007690056634209971
12.815756,0.19715407959296044,0.015077178972694134
12.818139999999998,0.2857391200231615,0.022417714154463735
12.820524,0.3858211165369276,0.029823563169529155
12.822928,0.4985163302912709,0.037448785961539575
12.825316,0.6300633809509194,0.04502408579631596
12.827695999999998,0.7885178933297836,0.052158787648957594
12.8301,0.9664777647778804,0.059084423602814955
12.832488,1.1514185341375107,0.06617070438844354
12.834867999999998,1.3433855273790485,0.07354321288187432
12.837264,1.5539720401004138,0.08086411866565568
12.839652,1.7826662156224096,0.08812591555529445
12.842031999999998,2.0231368864816908,0.09539600710195975
12.844428,2.266863793013392,0.10285258556250758
12.846816,2.515382505255107,0.11053237388231466
12.849195999999996,2.779959557722792,0.11823921912249978
12.851596,3.0568667869742407,0.1259158458941409
12.853984,3.341642649584497,0.13348283493203864
12.856363999999996,3.618693440178544,0.140970160413002
12.858768,3.8668837859930716,0.14854823554177018
12.861152,4.089471818558369,0.14847293210777182
12.863531999999998,4.293253340188734,0.14874022580807722
12.865936,4.483907892041456,0.1490839580207112
12.868324,4.6600396737058,0.14938328669703993
12.870703999999998,4.817786149173663,0.1494858219001787
12.873108,4.951001246578934,0.14970629211296982
12.875496,5.051674667078075,0.15053993558527293
12.877876,5.130653636306465,0.15170169588773663
12.880279999999996,5.203443103556238,0.15269327174942998
12.882668,5.273677079125761,0.15320823368031017
12.885048,5.320775477043426,0.1538630714840095
12.887444,5.348927594399299,0.1546429752628011
12.889832,5.364696916082203,0.15551567877220818
12.892212,5.382517456197636,0.15610094920495884
12.894615999999996,5.399038535416691,0.15635008526003077
12.897004,5.394613129185409,0.15663680483958412
12.899384,5.372080060153495,0.15700347179145882
12.901787999999998,5.338048139180147,0.15750333484746154
12.904175999999998,5.30117549969922,0.1581048825094718
12.906556,5.273939381040174,0.1586142036370247
12.908951999999998,5.241767895328512,0.15926608728381805
12.911336,5.206942682564376,0.15998036213543473
12.91372,5.179938881330804,0.16054629277994023
12.916116,5.165504867225306,0.16091699352656993
12.918504,5.158285964314687,0.16125728184623456
12.920884,5.157677768121133,0.16150957088537013
12.92328,5.162564017487633,0.1616000173261134
12.925668,5.171082381294629,0.16156373952011543
12.928052,5.183977033646796,0.16145171118309373
12.930448,5.192261184170445,0.16154050249369253
12.932836,5.20375814025401,0.16153765600065983
12.935216,5.211437886299845,0.1615669733080187
12.93762,5.223308825293617,0.16142696662934702
12.940004,5.237181865033806,0.16124657943399986
12.942388,5.251706531080052,0.16107620002738854
12.944791999999998,5.2720977297386895,0.16077148743681496
12.947176,5.2942114898900225,0.16043466542399332
12.94956,5.314183379668079,0.1601522359738068
12.951955999999996,5.33638968761803,0.15985398130184345
12.954344,5.36869904709868,0.159373930682173
12.956724,5.4168382210955635,0.15857192169469714
12.95912,5.471263236585417,0.15760217123293863
12.961504,5.5170754446117884,0.1567849429124313
12.963888,5.554135075547819,0.15613553995136573
12.966284,5.592824720177927,0.1554292473936265
12.968672,5.625275745143308,0.15481798082602835
12.971051999999998,5.6525590856306,0.15427375476078553
12.973459999999998,5.68119290055825,0.15368860151420574
12.975844,5.706521362127368,0.15315684778644692
12.978228,5.733572385189182,0.152601609382198
12.980624,5.764580387915587,0.15201214034436494
12.983008,5.804108650306858,0.1512544657938026
12.985388,5.840052020085874,0.15056502084162873
12.987795999999998,5.870408396506222,0.149995897005184
12.99018,5.900205694419128,0.14947958151779192
12.99256,5.930467627182989,0.14903019620157854
12.99496,5.963802595879906,0.14851699360255308
12.997348,6.004122254204094,0.1478215467102699
12.999728,6.048353566222499,0.14702235927224355
13.002124,6.0819227482027625,0.14643633459603483
13.004512,6.109485627943773,0.1459797302451985
13.006896,6.13532594619209,0.14555080247327581
13.009292,6.15879207664165,0.14513246589334614
13.01168,6.178254005598378,0.14478648512001152
13.01406,6.197296625674525,0.1444728787009556
13.016456,6.229235793960707,0.14397059915245197
13.018844,6.270067308964093,0.14334773519212274
13.02124,6.307453700982086,0.14276997351750637
13.023635999999998,6.3428379922536635,0.1422321651365745
13.026023999999998,6.381295319458295,0.14164507667691212
13.028404,6.420311725170367,0.14103549240076932
13.030803999999998,6.457093712710545,0.1404450826758074
13.033191999999998,6.4913617428251085,0.1398747272400706
13.035572,6.517249282901667,0.13941876142194165
13.037967999999998,6.5383412255524735,0.13904153509834682
13.040355999999996,6.559852477083861,0.13864203810580603
13.042736,6.5805723326823315,0.13825238423525685
13.045132,6.5917009934292965,0.1380131601249852
13.04752,6.595100790444316,0.1378968009423035
13.0499,6.599431753019113,0.13776687244952476
13.052296,6.6016208452206335,0.13767947359832355
13.054684,6.601528297422015,0.1376430430817714
13.057079999999996,6.609304382982207,0.13747816158445844
13.059475999999998,6.621643748542671,0.13721069119508503
13.061863999999998,6.628768207796804,0.13704118317915603
13.064244,6.627232637759211,0.13700623344850751
13.066643999999998,6.622950792870526,0.13696517481687073
13.069031999999998,6.617225925742865,0.1369248737227952
13.071412,6.609918266749368,0.13689385793311365
13.073807999999998,6.595812909583702,0.1369675979168655
13.076195999999998,6.577144272417762,0.13713955796903682
13.078576,6.556054225624824,0.13736729193991845
13.080975999999998,6.53896838032472,0.1375284014736139
13.083363999999998,6.533336060995676,0.13752357866477402
13.085744,6.532639108719246,0.13744004756424272
13.088139999999996,6.53394425718923,0.13732464888926316
13.090531999999998,6.532036600099298,0.13726989185755128
13.092912,6.535855705994899,0.13713295231740077
13.095316,6.542608078196693,0.1369507491087416
13.097699999999998,6.5532248822644625,0.1367126931289042
13.100084,6.56998775819834,0.13637219479707138
13.102479999999998,6.588240878199438,0.1359881101862226
13.104867999999998,6.596763033722173,0.1357487478163399
13.107248,6.60179284443127,0.13558516906304768
13.109647999999998,6.613388035887061,0.13529382406147378
13.112035999999998,6.628987428835685,0.13493972293042852
13.114416,6.645098678463505,0.13460043137560085
13.11682,6.662233641449722,0.1342826882927754
13.119208,6.681882561861552,0.13394402920861634
13.121587999999996,6.704464748579579,0.13355939405174128
13.123988,6.7286769489916844,0.13312142800658675
13.126371999999998,6.752237523097732,0.13267801227893533
13.128755999999996,6.772445522017003,0.13230357940465104
13.131151999999998,6.786786988323886,0.13202069914914374
13.133539999999998,6.797543562018515,0.1317801900284612
13.13592,6.804063616794833,0.13157707807084817
13.138315999999998,6.811282519705451,0.131333684345825
13.140703999999998,6.815428386683015,0.13114125538546262
13.143084,6.816640987354382,0.13099165990474038
13.145488,6.8137568387343,0.13086962253557116
13.147875999999998,6.804634070449489,0.13081243490427544
13.150256,6.7913673310449845,0.1308244932787857
13.152651999999998,6.784478980932066,0.13076394449310413
13.155039999999998,6.783736702685262,0.13060249821145267
13.15742,6.780200927759122,0.13047631107246455
13.159815999999998,6.77149746835489,0.13039466065958427
13.162203999999996,6.758789807457828,0.1303735223758864
13.164588,6.747292851374263,0.13032568276759926
13.166983999999998,6.734073333798002,0.13029291980324734
13.169371999999996,6.720621498796264,0.1302320927675447
13.171767999999998,6.707728742301967,0.13013924382610662
13.174168,6.696698316927226,0.13002345821018504
13.176552,6.690603258605096,0.12983647593345496
13.178931999999998,6.68278563879027,0.12966362455720568
13.18134,6.674316392669387,0.1294861447393626
13.183728,6.661563405801949,0.12938456147328975
13.186108,6.649973901919767,0.1292989730106506
13.188511999999998,6.639036024343643,0.12921792852705244
13.190899999999996,6.630891643446853,0.12910249478302666
13.19328,6.623538658482982,0.1289831150875799
13.195676,6.618559861317865,0.12885279425202364
13.198064,6.622241093444473,0.12860472324973693
13.200448,6.626201864824802,0.12834200577735128
13.202844,6.623644477286683,0.12815824654976407
13.205232,6.620295693815646,0.1279780327561655
13.207616,6.623185530009336,0.12773681344866059
13.210012,6.628868862882363,0.12746153992964923
13.2124,6.634552195755388,0.12718651364549308
13.214784,6.645310665307885,0.1268357469498744
13.217179999999995,6.6545788907931644,0.12652684386114044
13.219568,6.664731060009977,0.12625222696851357
13.221952,6.6741843810924895,0.12601615582856054
13.224347999999996,6.681635601428585,0.1258111681144881
13.226736,6.697886620683266,0.12549107124253076
13.229116,6.717442993296481,0.1251542483372689
13.231512,6.745379855947698,0.12472299596104912
13.2339,6.773176948972056,0.12429891092161305
13.236284,6.805909409049027,0.12381094849991364
13.23868,6.837850473193081,0.1233274123760841
13.241064,6.869651767710272,0.12285272880603279
13.243443999999998,6.900242357413966,0.12240441424029153
13.245844,6.925618040811327,0.12204230557409251
13.248232,6.951645350514746,0.12168822338991805
13.250612,6.9809780135766974,0.12131494042304389
13.253008,7.00854089331771,0.12099525983985482
13.255396,7.029817931565752,0.12077370889043891
13.257775999999998,7.050675660933212,0.12057405052630871
13.260176,7.073255951793369,0.12036330800879515
13.26256,7.094765307466887,0.12017504115950614
13.264943999999998,7.119347699073462,0.11994444408639425
13.26734,7.144209629933757,0.11970197862597551
13.269728,7.1702822656075496,0.11943562934128464
13.272107999999998,7.199939793893596,0.11914334219435413
13.274504,7.223591019940391,0.11893302897469847
13.276891999999998,7.244728288561572,0.11873822403186357
13.279288,7.264282765316918,0.11855093245423783
13.281684,7.287050047632178,0.11831798679072893
13.284072,7.304090566961908,0.11814611773225916
13.286456,7.3207117774110575,0.1179947140206696
13.288852,7.338124383793125,0.11784198694648843
13.29124,7.355816529428913,0.11767551340293568
13.29362,7.374067753572141,0.11748195951933924
13.29602,7.3915275817824515,0.11729182984545322
13.298404,7.411269049992899,0.11706612019118504
13.300788,7.4365049637634,0.11675870995396911
13.303184,7.4650934527206765,0.11639716760745362
13.305572,7.493961480931674,0.11602138531323256
13.307951999999998,7.5197564732096165,0.11568512011535702
13.310348,7.543689134368002,0.1153698243894386
13.312736,7.567202486645806,0.11507749698663454
13.315115999999998,7.586711637430778,0.114832014343109
13.317512,7.608502428215885,0.11455281630929226
13.3199,7.622843894522767,0.1143404525177908
13.322283999999998,7.6363939648967305,0.11412942621344095
13.32468,7.647522625643697,0.11396065891437362
13.327068,7.658651286390663,0.11379370805329204
13.329451999999998,7.667638076764352,0.11365745574483273
13.331848,7.680629068630873,0.113476262448075
13.334236,7.696460779004974,0.1132346546530678
13.336632,7.715505294938991,0.11295293023141566
13.339028,7.735480976432786,0.11266435642948791
13.341416,7.759832946471751,0.1123537934248389
13.343796,7.784324686137578,0.11203883123308002
13.346192,7.80481222431057,0.11176855219710827
13.34858,7.819572999498034,0.1115515140792462
13.350964,7.837686349872271,0.11129032402820524
13.35336,7.860362980246784,0.1109659511553287
13.355748,7.890675926554625,0.11054621226132165
13.358132,7.916705132115914,0.11017833148493626
13.360528,7.942362250624863,0.10979538266611659
13.362916,7.972163340253507,0.10936590871725761
13.3653,8.000893494695516,0.10895477511764685
13.367703999999998,8.033627850630355,0.1085026198479721
13.370087999999996,8.07022663843117,0.10801921863918575
13.372472,8.110317771045615,0.1074838786185481
13.374867999999998,8.145473536607454,0.10699535090288141
13.377255999999996,8.178115344743677,0.10651523448452484
13.37964,8.206892721013928,0.10606983586639812
13.382035999999998,8.232317522097402,0.1056717861701666
13.384423999999996,8.253738121688041,0.10531642192072938
13.386804,8.2754382605324,0.10495106579212021
13.389203999999998,8.288757909338756,0.10464632917746723
13.391591999999996,8.302077558145111,0.10434309707678228
13.393976,8.316747681391826,0.10401538296887537
13.396371999999998,8.335142466877654,0.10366225333374443
13.398759999999998,8.347251410870511,0.10337957637736335
13.40114,8.353726139676453,0.10317194535522878
13.403539999999998,8.35126129993695,0.10304548380218591
13.405927999999998,8.351078100197585,0.10288820672994188
13.408308,8.34567999415189,0.1027858007072117
13.410707999999998,8.33655722586708,0.10270852013114695
13.413095999999998,8.320636759410101,0.10268726532681437
13.415476,8.303924897020202,0.10266572147231394
13.417875999999998,8.282417437204554,0.10268084902868524
13.420263999999998,8.259839042202266,0.1027070965416446
13.422644,8.241264848692811,0.10269679692464931
13.425039999999996,8.22776579186283,0.10263716557517463
13.427431999999998,8.218131166898823,0.1025469744611879
13.429816,8.213431908987424,0.10241480932045154
13.432211999999998,8.204076823277138,0.10231249905582737
13.434599999999998,8.191648701633794,0.10223990376498109
13.436984,8.182014076669788,0.10214882345802132
13.439379999999998,8.169585955026443,0.10207582643727464
13.441771999999998,8.152874092636546,0.10205104740672961
13.444152,8.133508503194173,0.10203797535543403
13.446547999999998,8.116424553751937,0.10199476626339
13.448935999999998,8.098968517257365,0.10193391700322697
13.451319999999996,8.08323504225549,0.10186660896373037
13.45372,8.07178530800017,0.10175049898665904
13.456108,8.066621415237817,0.10156783276518444
13.458487999999996,8.063180083968163,0.10137857556750655
13.460883999999998,8.066024594191479,0.10112202012583683
13.463271999999998,8.0671465429221,0.100871479851651
13.465655999999996,8.070410362025997,0.10059640937967206
13.468051999999998,8.075816051503171,0.10029851345421723
13.470439999999998,8.081501280234065,0.09999006245738602
13.472823999999996,8.079969501912212,0.09975268418300634
13.475219999999998,8.075923766164742,0.09952145627399488
13.477607999999998,8.065359871498824,0.09933099408658823
13.479988,8.061453905378215,0.0990934810810733
13.482387999999998,8.061552140750441,0.0988211457019492
13.484775999999998,8.068075987242498,0.09848136400526158
13.487159999999998,8.076601934480971,0.09812407937247772
13.48956,8.095557694332108,0.0976658852233655
13.491948,8.11730695086258,0.09719298198662435
13.494327999999998,8.139056207393054,0.0967214850423595
13.496732,8.167603162095695,0.09620444661888236
13.499116,8.198291987171611,0.09566623729961711
13.501495999999998,8.224976610754698,0.09516476458325114
13.5039,8.251661234337783,0.09466833967112162
13.506288,8.279696332361226,0.09415178739966787
13.508667999999998,8.308103517437008,0.0936566034301292
13.511072,8.337813955124904,0.09317351916278477
13.51346,8.365801831320107,0.09269540477875209
13.51584,8.389645736395615,0.09225554137906519
13.518236,8.41241870628448,0.09182848646020376
13.520624,8.439475416919903,0.09135753213901181
13.523008,8.466392357928465,0.09089267663113668
13.525404,8.493960925243085,0.0904318400582683
13.527788,8.518875765505229,0.08998207721496608
13.530172,8.539134777968481,0.08955747479074051
13.532568,8.55017468263257,0.08921193128359291
13.534956,8.561214587296657,0.08886717927395493
13.53734,8.563035384161578,0.08860003433903552
13.539736,8.562993849906942,0.08834299870158428
13.542124,8.564023250838945,0.08807649911096059
13.544503999999998,8.555973313598644,0.0878783595195791
13.546908,8.546340584492505,0.08767792035396686
13.549296,8.537639020946143,0.08747274665321093
13.551676,8.526004191093586,0.0872860576526925
13.554072,8.513438195681253,0.08710343036567217
13.55646,8.496495911723748,0.08693082111289457
13.558835999999998,8.482906202953018,0.08672394393386722
13.561244,8.471690681981043,0.08652038063393026
13.563628,8.462337492128622,0.08630805129662611
13.566007999999998,8.452844532649344,0.08610101579114866
13.568404,8.443723660222402,0.08591155947477562
13.570796,8.437116745221074,0.08572071286038017
13.573175999999998,8.432511930966166,0.08551593534215081
13.575572,8.43056084376373,0.08530466172958354
13.57796,8.430052778800272,0.08510067753355506
13.580339999999998,8.43112750570265,0.08489803844030278
13.582736,8.430711988537809,0.0847211369573566
13.585124,8.434952299171858,0.08452361005898042
13.587503999999996,8.435048638686212,0.08435817350304964
13.589899999999998,8.43272356857357,0.084222872038782
