Time,Force,Position
11.009612,0.10219587181685806,0.0
11.012,0.10205610218999785,0.0
11.014396,0.10261518069743869,0.0
11.016792,0.10624729513793492,0.0
11.01918,0.1046645032720987,0.0
11.021564,0.10987940957843113,0.0
11.023967999999998,0.11760827331037813,0.0
11.026355999999998,0.124545741109407,0.0
11.028736,0.13455624484149126,0.0
11.031132,0.14349581338693698,0.0
11.03352,0.1515042163726044,0.0
11.035904,0.16472752566460425,0.0
11.0383,0.17566919495646682,0.0
11.040688,0.19382787130107867,0.0
11.043068,0.20290720947338461,0.0
11.045471999999998,0.21878424581785919,0.0
11.047856,0.2315882462292784,0.0
11.050236,0.2473255129468928,0.0
11.052632,0.25798764298503496,0.0
11.05502,0.26520465003778426,0.0
11.0574,0.2714904915307553,0.0
11.059796,0.27321305302345167,0.0
11.062184,0.27437653600870726,0.0
11.064564,0.27325837899382555,0.0
11.06696,0.2714885956728859,0.0
11.069348,0.26264157492605733,0.0
11.071732,0.2543536326866695,0.0
11.074136,0.24378405044714446,0.0
11.076524,0.22885678513172905,0.0
11.0789,0.21500045500295217,0.0
11.081307999999998,0.2011441248741753,0.0
11.083692,0.18221265806592615,0.0
11.086076,0.16556283125781435,0.0
11.088472,0.14490880295686878,0.0
11.090856,0.12839874577561716,0.0
11.09324,0.1094958953263303,0.0
11.095636,0.0947370159967374,0.0
11.09802,0.0809093022269228,0.0
11.100404,0.07681255293547204,0.0
11.1028,0.07429859550985747,0.0
11.105188,0.07979304106991036,0.0
11.107584,0.08598633476426426,0.0
11.109979999999998,0.08952590140614343,0.0
11.112367999999998,0.09092359767474553,0.0
11.114748,0.09297292024940552,0.0
11.117144,0.09115781095809203,0.0
11.119532,0.09199642871925329,0.0
11.121916,0.09697901760010845,0.0
11.124311999999998,0.10603975030313352,0.0
11.126696,0.11696281412571523,0.0
11.129076,0.1268149427616584,0.0
11.131472,0.13624776251702095,0.0
11.13386,0.14381825115282684,0.0
11.136256,0.15231990534841106,0.0
11.138656,0.1578882932378001,0.0
11.141044,0.16105387696947254,0.0
11.143424,0.15900455439481254,0.0
11.145815999999998,0.1583057062605115,0.0
11.148203999999998,0.14987799439426347,0.0
11.150584,0.1426609873415142,0.0
11.152976,0.12929790842265418,0.0
11.155364,0.11581366534621473,0.0
11.157744,0.10482477422610903,0.0
11.16014,0.10012172459897427,0.0
11.162528,0.0987712501586153,0.0
11.164924,0.10528940907706356,0.0
11.167319999999998,0.11087640243573349,0.0
11.169707999999998,0.11339035986134802,0.0
11.172088,0.11390221654054569,0.0
11.174492,0.10947870616713137,0.0
11.176875999999998,0.10426379986079894,0.0
11.17926,0.09867680650212902,0.0
11.181651999999998,0.09588330982279406,0.0
11.18404,0.09015654683726393,0.0
11.18642,0.09015654683726392,0.0
11.188812,0.09136725165076266,0.0
11.1912,0.09765309314373362,0.0
11.193599999999998,0.10058635944992879,0.0
11.195996,0.10552172650254082,0.0
11.198384,0.10431102168904208,0.0
11.200767999999998,0.10353823122540484,0.0
11.203172,0.10353823122540484,0.0
11.205556,0.10290521038862781,0.0
11.20794,0.0991991536187954,0.0
11.210332,0.09335122647568593,0.0
11.21272,0.08478374498257768,0.0
11.2151,0.07400045078685621,0.0
11.217504,0.06428809177777324,0.0
11.219892,0.05506898397860708,0.0
11.222271999999998,0.05013361692599506,0.0
11.224676,0.05092501285891317,0.0
11.227064,0.051436869538110865,0.0
11.229444,0.049946625470891695,0.0
11.23184,0.05152941733672792,0.0
11.234228,0.04845638140367254,0.0
11.236608,0.04310170547047989,0.0
11.239004,0.03546538953714997,0.0
11.241392,0.028826066461122377,0.0
11.243771999999998,0.023117908944873113,0.0
11.246168,0.022484888108096082,0.0
11.248556,0.02255883043743227,0.0
11.250936,0.024914412766905737,0.0
11.25334,0.025639981402299825,0.0
11.255728,0.026597867463171186,0.0
11.258107999999998,0.028020388374997082,0.0
11.260512,0.028575675166699437,0.0
11.2629,0.028575675166699434,0.0
11.26528,0.03357550525930144,0.0
11.26768,0.04897273988986756,0.0
11.270064,0.08163901955990266,0.0
11.272448,0.12733782535109572,0.01131797691947725
11.274844,0.1937054731967767,0.021117914091174347
11.277232,0.276737761604112,0.03040942280342627
11.279611999999998,0.3703811665056077,0.03977600303554541
11.282008,0.4805022205136543,0.0490004695733767
11.284396,0.6100814117626903,0.05788146301384674
11.286775999999998,0.7540908254014861,0.06657968777489766
11.28918,0.9131162604385761,0.07511007978705805
11.291568,1.085873069731125,0.08356713350272035
11.293948,1.2758063762645258,0.09187440354754188
11.296344,1.4809799065898857,0.10010921849957005
11.298732,1.697463401543707,0.1083177523656229
11.301111999999998,1.92921573664845,0.11644036121923063
11.303508,2.1751659767174756,0.1244767426020639
11.305896,2.4332194732057504,0.13247633622412652
11.308279999999998,2.70347066976976,0.14041832491070794
11.310676,2.988131587396379,0.14815927296832876
11.313064,3.276312934595263,0.15573797746360032
11.315444,3.5563045749269824,0.1632372615332434
11.31784,3.814371342420342,0.17078268568767463
11.320227999999998,4.054098129687595,0.16701458923068824
11.322608,4.269571182288105,0.16484834164432627
11.325008,4.46400330578179,0.16328482602951788
11.327392,4.642005001997168,0.16169350397209856
11.329772,4.803436501307378,0.16023790443469013
11.332168,4.94461846744368,0.15919142519250545
11.334556,5.072161607123141,0.15834004387211373
11.336936,5.184343358853063,0.15768752827945626
11.339352,5.283585132260444,0.15709992140798432
11.341736,5.366441804359891,0.1566537175424268
11.344116,5.43435639739038,0.15630245652473354
11.34652,5.491984739150803,0.15593407224004333
11.348908,5.537557046320221,0.15563533550723369
11.351287999999998,5.5666970303534615,0.15546958230635768
11.353684,5.580755165690885,0.15537596919375374
11.356068,5.585690532743497,0.15526200471456955
11.358448,5.580849609347371,0.15526678636918123
11.360848,5.565486325539964,0.1554797066621838
11.363231999999998,5.54691023617264,0.15576997943655338
11.365612,5.533921140163987,0.15595813213027437
11.368008,5.519813887140453,0.15622813349228432
11.370396,5.51445921120726,0.15636434645083477
11.372776,5.520790378670604,0.15630375852103492
11.375172,5.53531504471685,0.15614749075321432
11.37756,5.555239712666664,0.1559503341633048
11.37994,5.579680438788508,0.15567365457258228
11.382356,5.604121164910353,0.15539643552552052
11.38474,5.631914466218973,0.1550306134105719
11.38712,5.657845436408036,0.1546984639087116
11.38952,5.680610822865427,0.1543952323370104
11.391908,5.70463413596456,0.15400682513957817
11.394304,5.722558599025826,0.15371018885572768
11.396696,5.737969104661476,0.15344615684533913
11.399084,5.759525682163238,0.1530428905646257
11.401464,5.783735986717474,0.15259502773516959
11.403868,5.803522780898296,0.15226628759741545
11.406256,5.8200967695192025,0.15202241846223993
11.40864,5.84211798187192,0.15168764512692262
11.411036,5.8654424468367505,0.15135757313323606
11.413424,5.886625041428305,0.15108348113540992
11.415804,5.9095774193408,0.15072962978518087
11.4182,5.926570716842287,0.15045744705433026
11.420588,5.936533998746128,0.15029446766703478
11.422968,5.946544502478212,0.15008656167173223
11.425368,5.953668961732345,0.14988947500454844
11.427756,5.961771808374499,0.14963063537231913
11.430136,5.970573503150953,0.14932713491756766
11.432532,5.9764419316212125,0.14908120455185925
11.43492,5.987525266397804,0.14872490590515006
11.4373,6.002705350465846,0.14832813328029776
11.439696,6.014113550466534,0.14804035381190256
11.442084,6.030037808639252,0.14768409775921804
11.444463999999998,6.049407189797362,0.1472860950137496
11.44686,6.065284226141837,0.14698370798234298
11.449248,6.085817090285203,0.146612318527629
11.451648,6.110354155921403,0.146164071704752
11.454044,6.132517033758848,0.1457319928360956
11.456428,6.153656198237899,0.14528420965031769
11.458808,6.171490009358416,0.144865812288833
11.461204,6.187741028613098,0.14445771101982213
11.463592,6.208415558241192,0.14395203073735044
11.465976,6.231231958242567,0.14339793557535058
11.468372,6.255259063057438,0.142812100742207
11.47076,6.273512183058537,0.14237119556810165
11.47314,6.290926685298475,0.14198359770237245
11.475536,6.304569303471054,0.14170202138613416
11.477924,6.318072152016773,0.1414313577388167
11.480304,6.333577101308912,0.14112558399177078
11.482704,6.346148784294854,0.14087504798933403
11.485088,6.355275344295403,0.1406624673441153
11.487488,6.368034018736447,0.14035703818096534
11.489883999999998,6.378837814259318,0.14004315318087254
11.492271999999998,6.386895334931099,0.1397260808376052
11.494652,6.391927041498066,0.13941976584194413
11.497048,6.389649193213668,0.13921424823636785
11.499436,6.383646682690156,0.13906249051553882
11.501816,6.377644172166644,0.13891025640339477
11.504216,6.366286985709937,0.1388681534582714
11.5066,6.360516792611903,0.1387446135656865
11.508984,6.35912288805904,0.13857074178633355
11.51138,6.349813128319125,0.13857587359852833
11.513768,6.338361498205935,0.1386252407248652
11.516148,6.324488458465747,0.13873624125584283
11.518548,6.31610986428561,0.13872796330047263
11.520936,6.309221514172695,0.13867198979257642
11.523316,6.305825508873414,0.13853314161171007
11.525719999999998,6.302848812454714,0.13836915978667416
11.528104,6.29721838898354,0.13823647917822177
11.530484,6.289446095139088,0.13814682994293634
11.532884,6.285538233160608,0.13799610650241845
11.535268,6.28121106230155,0.13787061668108222
11.53766,6.276976439241108,0.13778207381848626
11.540064,6.273765529539063,0.13771764367394385
11.542452,6.274511599501607,0.13763039651406564
11.544832,6.279494188382462,0.13750349638690476
11.547232,6.288061669875572,0.13733339822118076
11.54962,6.299282878421154,0.13713257582453778
11.552,6.317441554765766,0.13681710713131562
11.554396,6.335740000737237,0.13649919396373128
11.556784,6.352455654842874,0.13619368742290766
11.559164,6.3788097256282565,0.13570368482865153
11.561559999999998,6.409447537160192,0.13513306315075133
11.563947999999998,6.44595188130452,0.1344746477513305
11.566332,6.48031435507557,0.13386565312250828
11.568727999999998,6.512674728100202,0.13329066446880553
11.571115999999998,6.539820194818502,0.13280819223645138
11.573496,6.564404482282946,0.13239141764653994
11.5759,6.5893608567997255,0.13199379069409578
11.578283999999998,6.616039792809202,0.1315796511376803
11.580664,6.640437088818543,0.13121622675144154
11.583068,6.665905320014521,0.13083693473943867
11.585456,6.6917928600910805,0.13043407470086849
11.587836,6.718891104981138,0.130006646477016
11.59024,6.743615162072441,0.12959129747871947
11.592628,6.76596503136499,0.12918865666359441
11.595007999999998,6.7859407128587845,0.12879916215635825
11.597404,6.805124998419661,0.1284145579067181
11.599792,6.819513686554785,0.12809830796300734
11.602172,6.828687468383578,0.12787074300141776
11.604568,6.837721480585509,0.12765233801060566
11.606955999999998,6.8404696512944705,0.1275412867270582
11.609336,6.84358990905577,0.12745103757755982
11.611731999999998,6.840843634204678,0.1274410778026022
11.614119999999998,6.8379575897267255,0.12743859340900435
11.6165,6.8389359771147475,0.12738589301816472
11.618896,6.843127170062684,0.12727815570574685
11.62128,6.847737671891202,0.12714730673718821
11.623676,6.8550491226004375,0.12695044445048204
11.626072,6.859986385510919,0.1267626900074994
11.62846,6.868415993235036,0.12650691624592328
11.630843999999998,6.873772565026098,0.12629843983701247
11.63324,6.880991467936717,0.1260702729709916
11.635623999999998,6.884345938981362,0.12589126033082723
11.638004,6.890633676332202,0.12567433149064391
11.640403999999998,6.902648176668572,0.12539111029894598
11.642788,6.919830361483032,0.12507240349822554
11.645172,6.938595338163328,0.12474966030021858
11.647567999999998,6.957080775589903,0.12444018208957251
11.649952,6.977847853016615,0.12408681078233338
11.652332,6.994470959323634,0.12379443946453018
11.654732,7.014027331936848,0.12346517039704685
11.657116,7.032000912684226,0.12314468276817038
11.659496,7.055329169364797,0.12273940088684816
11.661896,7.0780057997393095,0.12233097226969682
11.664284,7.0976093941807665,0.1219696025870646
11.666664,7.117864614928282,0.12161420649171752
11.66906,7.139702627541634,0.12125433350533397
11.671448,7.159910626460905,0.1209431021600864
11.673828,7.184494913925349,0.12059952721244445
11.676228,7.201582655083322,0.12037268280245214
11.678612,7.218670396241295,0.12014478572054621
11.680996,7.233756036652851,0.11994480355086697
11.683392,7.250192151504766,0.1197129031802821
11.68578,7.263695000050486,0.11951785330723737
11.688159999999998,7.272262481543594,0.11938651150413288
11.690556,7.274731112998836,0.1192998111435921
11.692944,7.276176031095682,0.11918976885430334
11.695324,7.284046560312358,0.11898473142216465
11.697724,7.294058959902312,0.11874916792456307
11.700107999999998,7.309426035425458,0.11843393709998502
11.702488,7.322791010202186,0.11814477616922259
11.704883999999998,7.335085049792278,0.11787241097492565
11.707271999999998,7.344817910128511,0.11765413955528863
11.709652,7.354131461584164,0.11745652407119259
11.712048,7.3626536171069,0.1172605285566083
11.714436,7.3734574126297705,0.11702868296441599
11.716816,7.381327941846447,0.11682894877978915
11.719212,7.388686614383927,0.1166178522750531
11.721604,7.392460394309151,0.11643490621726466
11.723984,7.4015888501675695,0.11617398795335042
11.72638,7.413790341959042,0.11587446302308335
11.728768,7.423849963377238,0.11560476461388751
11.731152,7.432931197407414,0.11538187930452909
11.733548,7.441732892183869,0.11517193452227388
11.735936,7.449323882146824,0.11498408661219683
11.73832,7.4590095206548135,0.11480418188383361
11.740736,7.467716771774781,0.11467273656376334
11.74312,7.46892747658828,0.11465047301459069
11.745504,7.466925375841864,0.11467439130568098
11.747915999999998,7.463433031028228,0.11473367665191014
11.750303999999998,7.461942786961009,0.11476910417978313
11.752684,7.4613837084535675,0.11479605447348318
11.75508,7.457379506960734,0.11484324244982913
11.757468,7.456727880654676,0.11483813241819557
11.759848,7.457147189535257,0.11481795752531555
11.762248,7.454633232109643,0.11482923673246821
11.764636,7.4584051161769995,0.1147582097514513
11.767016,7.46497049692369,0.11466360762551542
11.769412,7.474469143976577,0.11453881056624361
11.7718,7.486901057335659,0.11438567272708673
11.77418,7.498122265881243,0.11425454631965477
11.77658,7.51842281259913,0.11402382566490607
11.778968,7.545568279317431,0.11369180038851545
11.781348,7.575926551595646,0.11331870948705007
11.783744,7.608706233500862,0.11290543577280089
11.786132,7.642324533167236,0.11245610811950402
11.788512,7.674779349848356,0.11198847521698686
11.790928,7.706722309850278,0.1115043503381102
11.793311999999998,7.739875974665698,0.11099944225075671
11.795708,7.770143595003167,0.11048595924651036
11.798104,7.796034926795463,0.109998192396451
11.800492,7.818061826721787,0.10954612675229908
11.802876,7.8439531585140845,0.10905618585181731
11.805272,7.865048892880629,0.10861308912175893
11.80766,7.885073692060537,0.10818407174723421
11.810044,7.903887786426946,0.10777535438965298
11.81244,7.917626744113881,0.10742646715078641
11.814828,7.923636838068871,0.10714950067101442
11.817208,7.928064140158024,0.1068758553775713
11.819608,7.925833513701868,0.10666057050901726
11.821996,7.923370569820236,0.10642103540555939
11.82438,7.908383164780902,0.10629427324455264
11.826776,7.888320623062099,0.10622094239784088
11.829164,7.869608555783654,0.10612054568963934
11.831544,7.849965322945431,0.10602615144848365
11.833944,7.827249054174154,0.10596377305096041
11.836332,7.8101197787615435,0.10585990491741927
11.838716,7.797786100774688,0.10571605803818859
11.841116,7.78638358834761,0.10556534790184827
11.8435,7.780940156331537,0.10539282313733574
11.84588,7.778010681741081,0.10521229590490562
11.848272,7.776431681590983,0.1050056435021633
11.85066,7.775783847000664,0.10479320951626044
11.853056,7.7768585739030405,0.10457339611994564
11.855452,7.781006336738473,0.10432216323810077
11.857836,7.784502473267849,0.10406431444739819
11.860216,7.7879986097972225,0.1038059436768521
11.862619999999998,7.798432214125627,0.10348200477706204
11.865008,7.8073755743868105,0.10318953787062651
11.867388,7.822837093566444,0.10285223145012001
11.869792,7.836668599051997,0.10255272949674064
11.872179999999998,7.857809659388916,0.10220515986811889
11.87456,7.880161424539334,0.10184065220292068
11.876955999999998,7.898229448943198,0.10152918230390265
11.879343999999998,7.913224437414007,0.10124860027547275
11.881724,7.929010821817732,0.10096690112735915
11.88412,7.938930673609068,0.10073745200295393
11.886508,7.945125863161294,0.10053384128350833
11.888888,7.952531757527016,0.10031311787151696
11.891288,7.955421593720708,0.10011841869050203
11.893672,7.958451199541258,0.09991780590359764
11.896056,7.962923827600785,0.09972282431641627
11.898452,7.965534124540755,0.09954082621540271
11.90084,7.968144421480725,0.09935893215204997
11.90322,7.966610747301,0.09921955906291378
11.905624,7.969732900920168,0.09905038046756605
11.908012,7.974065759352834,0.09886312785219876
11.910392,7.976396517039084,0.09869455151324011
11.912792,7.979658440285113,0.09851983096907738
11.915176,7.97733337017247,0.09838099958786146
11.91756,7.977150170433105,0.09821849224390379
11.919956,7.97766581882804,0.09802711413672355
11.922344,7.973897726476422,0.09788227827339271
11.924724,7.967987763751527,0.09776046798555374
11.927124,7.969666895131719,0.09758676997711849
11.929508,7.974279292818106,0.09739029508279433
11.931892,7.9788916905044935,0.09719290919663412
11.934288,7.986297584870215,0.09697830807228024
11.936676,7.989419738489383,0.09681081195274918
11.93906,7.992541892108551,0.09664309109789043
11.941456,8.001390808713248,0.09643748346880807
11.943844,8.010519264571668,0.09622023833101875
11.94624,8.020718655616724,0.09599240544370449
11.948636,8.033059917035057,0.09574299684428657
11.951019999999998,8.050616084759724,0.09544388106841512
11.9534,8.065378755805055,0.09516294557773113
11.955804,8.080793053156443,0.09488935876542302
11.958192,8.099140616814028,0.09459625426382728
11.960572,8.11883865491197,0.0942815997135377
11.962967999999998,8.143332290435668,0.09393676037557788
11.965355999999998,8.16861732189228,0.09359484706602528
11.967736,8.190410008535258,0.09329841745992334
11.970128,8.216858522977127,0.09297611457215091
11.972516,8.252386375591302,0.09258226287761295
11.974908,8.280976760406448,0.09224270640182512
11.977303999999998,8.307704814102038,0.0919151315948406
11.979691999999998,8.341230565969797,0.09154463705679405
11.982072,8.378480980076667,0.09115969167323841
11.984467999999998,8.41959582604951,0.09075027671764319
11.986856,8.462433233515053,0.090337885284372
11.989236,8.49647084206201,0.08998778252877086
11.991632,8.532231012101663,0.08963583521572682
11.99402,8.5635676717679,0.08932942395824901
11.996415999999998,8.59290223068772,0.08904005411060051
11.998812,8.616882113674349,0.08880228013692641
12.0012,8.63764919110106,0.08859387351784132
12.00358,8.658556038154632,0.08838116094204275
12.005984,8.674247978901876,0.08821372629103619
12.008368,8.691662481141812,0.08804450805197615
12.010748,8.704933012262055,0.08791020205338294
12.013156,8.712616550023625,0.08780221436159621
12.01554,8.721371022971839,0.0876842747628163
12.017919999999998,8.728822243307935,0.08755407012635394
12.02032,8.727333895098583,0.08748513138147172
12.022708,8.726264855769815,0.08739968512252345
12.025087999999998,8.727058147560603,0.0873058263395022
12.027484,8.72184513711214,0.08725403952067506
12.029872,8.711184902931866,0.0872220215042403
12.032251999999998,8.698802107258897,0.08719277130396234
12.034656,8.689632117145845,0.08713501286702967
12.037044,8.682603997406066,0.0870583187789309
12.039424,8.678648913599345,0.0869593426294515
12.04182,8.682050606472233,0.08680113474665828
12.044208,8.687314630464677,0.08663557539368794
12.046587999999998,8.696862395203677,0.08643353845441183
12.048992,8.712556231808788,0.08618726849603864
12.051376,8.725177032480842,0.08596313562022993
12.053755999999998,8.74101063871281,0.0857113847581126
12.056156,8.753119582705665,0.0854763854828243
