Time,Force,Position
14.141616,0.0,0.0
14.144004,0.0,0.0
14.146384,0.0,0.0
14.14878,0.0,0.0
14.151164,0.0,0.0
14.153543999999998,0.0,0.0
14.15594,0.0,0.0
14.158328,0.0,0.0
14.160724,0.0,0.0
14.163119999999996,0.0,0.0
14.165508,0.0,0.0
14.167884,0.0,0.0
14.17028,0.0,0.0
14.172668,0.0,0.0
14.175052,0.0,0.0
14.177448,0.0,0.0
14.179832,0.0,0.0
14.182216,0.0,0.0
14.184612,0.0,0.0
14.187,0.0005586422109360935,0.0
14.189396,0.004050550728067359,0.0
14.191791999999998,0.007682228872058834,0.0
14.194176,0.010754828508609468,0.0
14.19656,0.013455341092822624,0.0
14.198956,0.014945148863537037,0.0
14.20134,0.020067071074747676,0.0
14.203724,0.024909454032237894,0.0
14.20612,0.03403557773628223,0.0
14.208508,0.039297269574353075,0.0
14.210888,0.04749222771861909,0.0
14.213284,0.05196252362377183,0.0
14.215668,0.060297251394898055,0.0
14.218064,0.06183428099385562,0.0
14.220459999999996,0.06495410245864941,0.0
14.222844,0.06663090168446718,0.0
14.225228,0.0709614279627597,0.0
14.227624,0.07450055830813412,0.0
14.230008,0.07962248051934476,0.0
14.232392,0.08516371161113602,0.0
14.234795999999998,0.08828396937243455,0.0
14.23718,0.08479206085530329,0.0
14.23956,0.0811603827113118,0.0
14.24196,0.07808778307476118,0.0
14.244344,0.07538727049054804,0.0
14.24674,0.07389746271983362,0.0
14.249135999999998,0.06877554050862299,0.0
14.251523999999998,0.06393315755113278,0.0
14.253904,0.05480703384708843,0.0
14.256308,0.049545342009017584,0.0
14.258696,0.04135038386475156,0.0
14.261075999999996,0.03688008795959883,0.0
14.263471999999998,0.028545360188472597,0.0
14.265859999999998,0.027008330589515035,0.0
14.268243999999996,0.02388850912472125,0.0
14.270639999999998,0.022211709898903476,0.0
14.273027999999998,0.017881183620610946,0.0
14.275408,0.014342053275236532,0.0
14.277808,0.009220131064025895,0.0
14.280195999999998,0.00437731181003093,0.0
14.282576,0.0006984118377963036,0.0
14.28498,0.0006984118377963036,0.0
14.287368,0.00554079479528652,0.0
14.289747999999998,0.012385278499193587,0.0
14.292144,0.022302798136156033,0.0
14.294531999999998,0.03622451926595219,0.0
14.296912,0.04935484446283023,0.0
14.299316,0.06127446484620953,0.0
14.301704,0.07040058855025386,0.0
14.304083999999998,0.07952671225429819,0.0
14.306475999999998,0.08478840409236905,0.0
14.308863999999998,0.08511472887782788,0.0
14.311244,0.08511472887782788,0.0
14.313639999999998,0.08511472887782788,0.0
14.316027999999998,0.08511472887782788,0.0
14.318408,0.08511472887782788,0.0
14.3208,0.08511472887782788,0.0
14.323188,0.08511472887782788,0.0
14.32558,0.08511472887782788,0.0
14.327975999999998,0.08441631704003158,0.0
14.33036,0.08441631704003158,0.0
14.332755999999998,0.08441631704003158,0.0
14.335152,0.07957393408254136,0.0
14.337535999999998,0.07272945037863429,0.0
14.339916,0.06281193074167185,0.0
14.342311999999998,0.04889020961187569,0.0
14.344696,0.03575988441499765,0.0
14.347091999999998,0.023840264031618354,0.0
14.349496,0.014714140327574012,0.0
14.35188,0.005588016623529671,0.0
14.354259999999998,0.00032632478545882414,0.0
14.356656,0.0,0.0
14.359044,0.0,0.0
14.361423999999998,0.0,0.0
14.36382,0.0006965159799270623,0.0
14.366203999999998,0.008141612445910384,0.0
14.368588,0.026245047234297388,0.0
14.370992,0.061013122584338594,0.0
14.373376,0.10173838248751796,0.0
14.375756,0.1420424376522475,0.0
14.37816,0.18625435479545516,0.011526304623633639
14.380548,0.2408450710073461,0.022777305875465878
14.382927999999998,0.3100983270344744,0.033186888825463584
14.385332,0.39597089765288296,0.042545790400407804
14.387716,0.4888715880110682,0.051884105875646465
14.390095999999998,0.5857273621759749,0.06146657471913722
14.392492,0.6892844949986946,0.0712157031236816
14.39488,0.8087148724501505,0.08055256261198415
14.397259999999998,0.9471387522916409,0.08929169879267515
14.399651999999998,1.100087298179378,0.09764246853326014
14.402039999999998,1.2609951293666697,0.10599093783118935
14.404436,1.4321892118240278,0.11437586005653144
14.406832,1.6156716462978689,0.1227162840731609
14.409216,1.809255236444542,0.13096835675217175
14.411599999999998,2.0066111469550765,0.13917089895559306
14.414004,2.1953561458599977,0.14742854020182397
14.416388,2.3733502586438986,0.15562641024389315
14.418767999999998,2.532026003813671,0.16389327840389423
14.421172,2.6907036448413115,0.17202575915030632
14.42356,2.858602289525988,0.17988642076597217
14.42594,3.0247821644337063,0.17607650844775616
14.428343999999996,3.182772332474262,0.17240060147257127
14.430728,3.321863441781269,0.1696419536148941
14.433112,3.437118229444246,0.16817328579451274
14.435508,3.545344897367447,0.1667252040738369
14.437896,3.650966955924285,0.1649660545330341
14.440276,3.748956490263532,0.16306531071257538
14.442672,3.8273481177349296,0.16167945662358982
14.445056,3.884883911696736,0.16094409915748492
14.447435999999998,3.925613399612159,0.16069480580997159
14.44984,3.955590105548692,0.16053127960666017
14.452228,3.968902170923571,0.16052027616889908
14.454608,3.967272157229491,0.16062973608125872
14.457004,3.9539581959967434,0.16085800744779621
14.459392,3.9341732976737904,0.16121558402735517
14.461771999999998,3.9176012049107536,0.1614375943748897
14.464172,3.8973969977072205,0.16184815801556182
14.46656,3.8802658264367427,0.16214017684679535
14.468939999999998,3.8568960355015367,0.1625995879926979
14.471344,3.8272404030733598,0.16326650304212556
14.473732,3.7981891751229973,0.16398326389281012
14.476112,3.7641553582917804,0.1649357462812562
14.478516,3.733938751498293,0.16586123933257926
14.4809,3.7170380017954234,0.16637618070556393
14.48328,3.7051651669437824,0.16677472964560705
14.485683999999996,3.697249311756732,0.16710050986736968
14.488072,3.696410693995571,0.16718438306657094
14.490452,3.698086033660024,0.16721971161697724
14.492848,3.6990625251901768,0.16732683511459512
14.495236,3.7046948445192203,0.16729897363534874
14.497616,3.721780689819324,0.16693165555163011
14.500012,3.7560468240760185,0.1660703998114287
14.502396,3.7936183116912456,0.1651366194992902
14.504775999999998,3.8378005060235383,0.16409415462883564
14.50718,3.891154586326754,0.16283355688865808
14.509568,3.9432507399882266,0.16170439283304192
14.511948,3.9985124773813734,0.1604937929146621
14.514344,4.0538667625731355,0.15934816038951916
14.516732,4.111502687765036,0.15811780526608823
14.519111999999998,4.1663451162776015,0.15697522507603498
14.521516,4.219976839976668,0.15591087270336917
14.523904,4.27612252110135,0.15477543490780876
14.526279999999998,4.333898215920111,0.15354818684315716
14.528688,4.387716931074281,0.1524304706139145
14.531072,4.43757866656386,0.15139870087526028
14.533452,4.479711538321492,0.15059086226971113
14.535856,4.512625302279959,0.1500823852013526
14.538244,4.547960475865422,0.14947651413283317
14.540624,4.5889298646378,0.14866453448850342
14.543027999999998,4.629387396730979,0.14785177596247337
14.545415999999998,4.660486051398132,0.1473519689700172
14.547796,4.679572101586783,0.1471993513725623
14.550191999999996,4.700427935096373,0.146959263887949
14.55258,4.713881665955982,0.14682030728072953
14.55496,4.721376316404582,0.14677779919387846
14.557356,4.7377179876000115,0.1464762563225913
14.559744,4.761044348422712,0.14596174367492193
14.562124,4.784697470327377,0.145369047113444
14.56452,4.804765699619789,0.14483954527812595
14.566904,4.82590486409884,0.14428082737963854
14.569287999999998,4.848254733391389,0.1436902321969812
14.571684,4.880894645669742,0.14287405292191993
14.574068,4.915676428321372,0.14201888384064315
14.576464,4.945010987241192,0.14125313794573788
14.57886,4.970992970974237,0.14057645910553737
14.581244,5.004052192133171,0.13974334805465222
14.583624,5.0439091114642745,0.1387717394224593
14.586028,5.084185339675958,0.137782281271982
14.588416,5.118083178596054,0.1369003619583992
14.590796,5.1476972767695965,0.136122983394164
14.593192,5.180803719756775,0.13524671205597796
14.59558,5.217262737930728,0.13428174008536128
14.59796,5.252930360171762,0.13334015325096965
14.600356,5.2860368031589395,0.13246242822940538
14.602744,5.314300426892123,0.13172712827685323
14.60514,5.334276108385917,0.13120512238823534
14.607539999999998,5.3508992146929355,0.130786859924564
14.609927999999998,5.363890206559458,0.13047370397281918
14.612308,5.375530723985621,0.13020219414103903
14.614712,5.385029371038508,0.12998095483322475
14.617095999999998,5.391454982158339,0.12982774612313372
14.619479999999998,5.384005657680113,0.1299475021823236
14.621876,5.371760735776135,0.13014947764626317
14.624263999999998,5.361890001670912,0.1303392926510374
14.626644,5.355371842752463,0.13044471760146248
14.629035999999996,5.344337625661982,0.13061211045454652
14.631424,5.329346428906912,0.1307997901537383
14.633804,5.310211261032148,0.1310743271590294
14.6362,5.291308410582861,0.13139088413878233
14.638588,5.274687200133712,0.13165145018729488
14.640968,5.256343428191866,0.13192755919612362
14.643364,5.233204058824268,0.13228764140740926
14.645748,5.203639078336839,0.1328014702545482
14.648144,5.180871796021579,0.13319514540481822
14.650548,5.163878498520092,0.13343419668289708
14.652931999999998,5.14437124359299,0.13370071444228074
14.655315999999996,5.116715816053361,0.1341459290508946
14.657711999999998,5.08999155407351,0.13458358394169959
14.660095999999998,5.0671317239596325,0.1349506571155042
14.662476,5.046693303472752,0.1352449113317838
14.664879999999998,5.025743026306675,0.13552546163976173
14.667267999999998,5.008936720260292,0.13571329282544015
14.669648,4.991291796452747,0.1359688193232404
14.672043999999998,4.975509203764759,0.1361912636784109
14.674431999999998,4.957444971076634,0.1364793056297183
14.676812,4.938309803201869,0.13679534795828632
14.679207999999996,4.923271384618555,0.13706576943799365
14.681596,4.915402751259748,0.13722582657518376
14.683976,4.913260880886471,0.1372791601664539
14.686379999999998,4.911119010513193,0.13733261309832265
14.688764,4.906975039393498,0.13742886115969027
14.691144,4.9082782920056145,0.1374387514386853
14.693547999999998,4.918241573909456,0.1372817333023201
14.695935999999998,4.930486495813434,0.13706626396733226
14.698316,4.942591648090552,0.1368650716508186
14.70072,4.960423563353201,0.136563136099858
14.703108,4.987334816788155,0.13606863736033492
14.705488,5.021043768395278,0.1354524786307758
14.707883999999998,5.056894590375678,0.13479569940788014
14.710271999999998,5.093536808288996,0.13414148772440987
14.712652,5.135626249934123,0.13341815135797183
14.715047999999998,5.17850708751217,0.13269549587874277
14.717435999999998,5.225020039530712,0.13186584561632345
14.719816,5.269391121175977,0.13108378232732595
14.722215999999998,5.320327583567934,0.13015785930787718
14.724603999999998,5.372474750773389,0.12919664292445496
14.726984,5.417824219806676,0.12836070820412604
14.729387999999998,5.456655529921515,0.1276333084559923
14.731775999999998,5.495114752984016,0.1268942225182112
14.734156,5.537206090487014,0.12606607508240938
14.73656,5.580368363176648,0.12521283694083493
14.738943999999998,5.618083412134474,0.12443399215745007
14.741327999999998,5.650071698106769,0.12375212898112205
14.743723999999998,5.679918113705787,0.1231301597430968
14.746111999999998,5.709624759677945,0.12252520863913194
14.748492,5.734023951545153,0.12198487116132024
14.750892,5.75511779005383,0.12147669697329117
14.753275999999998,5.7684827648305586,0.12108936265546798
14.75566,5.781987509234148,0.1207000942113429
14.758055999999998,5.793257835465844,0.12031296329291873
14.760439999999996,5.797498146099894,0.11999590714455828
14.762824,5.799876125614386,0.11970259809827628
14.765228,5.804907832181355,0.11938681240251851
14.767611999999998,5.814642588375457,0.11896620351354872
14.769992,5.817160337516811,0.11867074218974351
14.772396,5.823262979270417,0.11834240449174072
14.774784,5.835511692890133,0.11791446882357347
14.777164,5.8505539031891844,0.11745265611461728
14.779559999999998,5.864385408674738,0.11702304642634918
14.781947999999998,5.873793403786877,0.11668182015028598
14.784328,5.880268132592821,0.11637942281460543
14.786723999999998,5.890327754011017,0.11604137918293553
14.789108,5.9042518072951875,0.11565186976090332
14.791503999999998,5.912449097593828,0.11533450017112484
14.7939,5.918272200093714,0.11502497191841325
14.796283999999998,5.927121116698412,0.11471537094439563
14.798667999999996,5.935922811474866,0.11445592816484719
14.801063999999998,5.950730808490571,0.11410790804526101
14.803447999999998,5.962046460692641,0.11383632988464522
14.805832,5.976108387745803,0.11358346189830543
14.808227999999998,5.99612939520997,0.11329281258503142
14.810615999999998,6.018804129726613,0.11298071502953816
14.813012,6.030397425324534,0.11283054426127231
14.815408,6.042083268721071,0.11272381823238144
14.817796,6.056422839170082,0.11259432290124302
14.820175999999998,6.066897977753121,0.11251521327609114
14.822576,6.0760226418958005,0.11247236900874666
14.82496,6.082353809359146,0.11245890393572018
14.827343999999998,6.088545207195631,0.11245391655899681
14.829748,6.096459166524812,0.11243738966554982
14.832132,6.110891284772442,0.112352569024912
14.834516,6.128256669326266,0.11223278974482324
14.836912,6.147484384999648,0.1120973147669111
14.8393,6.1740216555243945,0.1118938938440834
14.841679999999998,6.201582639407539,0.11171946918241929
14.844076,6.226629665865067,0.11155736748352112
14.846464,6.253958332322733,0.11135485969336048
14.848839999999996,6.277794653966762,0.11122205776831594
14.851248,6.302050284491372,0.1110652778573764
14.853636,6.32314033128431,0.11091453228155454
14.856016,6.341856190278493,0.11077061042311658
14.85842,6.359640883712898,0.11063712088210013
14.860804,6.387436080879388,0.1103703097235159
14.863184,6.40778195356765,0.11017631907918529
14.865588,6.426405264763217,0.10999261846519344
14.867976,6.446890907078339,0.10979169233942142
14.870356,6.463232578273769,0.10965003905688607
14.872752,6.485301012454729,0.10944699863735596
14.87514,6.508440381822327,0.10922931743666826
14.87752,6.532790456003423,0.10898919116311792
14.879924,6.554486803132044,0.10877162791414956
14.882312,6.5713875528349135,0.10860736736278968
14.884692,6.581630373992476,0.10851207000487066
14.887095999999998,6.590709712164782,0.10839838031376359
14.889483999999998,6.597694401792053,0.10827239048117875
14.891864,6.606820961792602,0.10811465257612465
14.894268,6.611291693994259,0.10799975737723784
14.896655999999998,6.616041965449639,0.10786977019106346
14.899036,6.622794337651433,0.10771630492946807
14.901431999999998,6.633550911346061,0.10751589255064509
14.903819999999998,6.64509888097361,0.10731636611696717
14.9062,6.655715685041377,0.10712542797812545
14.908595999999998,6.667822733176364,0.10690122104593343
14.910983999999996,6.688077953923879,0.10657799386221509
14.913368,6.7132685417240054,0.10620371148407076
14.915763999999998,6.735153776165601,0.10584014367641362
14.918151999999996,6.758948563554995,0.10541615347490166
14.920532,6.777435896839439,0.10502753107908479
14.922928,6.791267402324992,0.10467754008377125
14.925316,6.801514015198293,0.10435190668207525
14.927696,6.809758527325177,0.10404903235693877
14.930092,6.817211643519141,0.10374532128859447
14.93248,6.826806630086384,0.10340973941510047
14.93486,6.835051142213267,0.10310602361493716
14.937264,6.84874287807196,0.10276520381806226
14.939648,6.863365779490431,0.10241956650057613
14.942032,6.883063817588375,0.10201710380362243
14.944428,6.905043495686455,0.10158101521907854
14.946812,6.919945936358646,0.10122295906358061
14.949196,6.92697974367203,0.10094508722879264
14.951596,6.926284687253467,0.10073970430247509
14.953984,6.925077774155707,0.10052016821436356
14.956359999999998,6.916653854005198,0.10038856751606143
14.958764,6.903015027548356,0.10032183491071242
14.961152,6.882578502919347,0.10031977626742054
14.963532,6.862793604596394,0.10032442516999004
14.965935999999996,6.845382894072195,0.10032741879758111
14.968324,6.832348472093169,0.10030789932086814
14.970704,6.823038712353253,0.10025972472646338
14.973096,6.816382679665814,0.10019696831661835
14.975484,6.814941553284707,0.10007079659688548
14.977864,6.818575563583073,0.09988904242832934
14.98026,6.820859099441077,0.09973458378509112
14.982648,6.8169965634329746,0.09965000673419336
14.98504,6.809549134812617,0.09958663513450715
14.987439999999998,6.798097504699426,0.09956506838628182
14.989824,6.781151429026182,0.09961987936095651
14.992208,6.76299464853944,0.09969398869661233
14.994604,6.752986040665224,0.09967865331290968
14.996992,6.749775130963178,0.09960108686690232
14.999372,6.75429308499308,0.0994533594941343
15.001775999999998,6.759322895702177,0.09931978528316023
15.004163999999998,6.7670064334637505,0.09917141205506093
15.006544,6.775621136785101,0.0990157025478071
15.008947999999998,6.7893109767859245,0.09880355477546376
15.011335999999998,6.804723378279443,0.0985846155383068
15.013716,6.819064844586326,0.09838128437369405
15.016111999999998,6.826888151974758,0.09822662379792514
15.018499999999998,6.834059833057134,0.09806552079967593
15.02088,6.842302449326148,0.09789181068677615
15.023275999999996,6.843467828169273,0.0977939567444871
15.025664,6.841560171079343,0.09773041818548517
15.028044,6.8450071899226055,0.09759957158681602
15.03044,6.856742151005256,0.0973738727003809
15.032828,6.864472910595072,0.09718740098691064
15.035208,6.873414374998387,0.09697949747785832
15.037611999999998,6.886779349775116,0.09671002831980204
15.039999999999996,6.899492698245788,0.09643451159825814
15.04238,6.907130910036987,0.09621376234345183
15.044783999999998,6.913698186641547,0.09600788027786308
15.047171999999998,6.920824541753548,0.09577659648146893
15.049552,6.927159500932632,0.09554455650839347
15.051951999999998,6.936986804925351,0.09526103046472764
15.054335999999996,6.9473731874255105,0.094950890989131
15.056716,6.951613498059562,0.09470483988994022
15.059124,6.955341952014413,0.09444522318206088
15.061507999999998,6.957627383730289,0.09417782511469391
15.063888,6.96792121843183,0.09383490710959944
15.066283999999998,6.977004348319876,0.09351176112168746
15.068671999999998,6.982362815968807,0.09321340119908454
15.071056,6.991865254737431,0.09286996778008122
15.073451999999998,7.002298859065835,0.09252172521663407
15.075839999999998,7.010730362647823,0.09219528062787348
15.07822,7.014366268804056,0.09190567158697956
15.080615999999996,7.02507941238618,0.09154896937250682
15.083004,7.035932325595165,0.0911853275451331
15.085384,7.043060576565035,0.09084549144940633
15.087787999999998,7.049117892348267,0.0905181344351222
15.090172,7.058527783318276,0.09014725919877221
15.092552,7.068496752795724,0.08975197809566317
15.094944,7.076323851899895,0.0893832967699838
15.097332,7.08950562693726,0.08895791652784574
15.099728,7.100685301228209,0.08855345482140214
15.102123999999998,7.1135875370118535,0.08814766855619989
15.104507999999996,7.136779815781302,0.08764855869960791
15.106888,7.156759288990836,0.08718250052464913
15.109287999999998,7.179672028506564,0.08669764650722794
15.111672,7.195367760969543,0.08628156272565325
15.114067999999998,7.2121344286191595,0.0858541894257028
15.116472,7.2296924922016945,0.08542700241032979
15.118856,7.243106584664536,0.08503812927729054
15.121235999999998,7.25423903712724,0.0846785115673154
15.123636,7.263089849589807,0.08434837020813479
15.12602,7.275805093918349,0.08399324982576245
15.128399999999996,7.284376367127195,0.08367823051167272
15.130804,7.295321828134796,0.08336899982716348
15.133192,7.306499606567874,0.0830856551662905
15.135571999999998,7.320331112053427,0.08279546423358325
15.137976,7.334674474218179,0.08252188069173617
15.14036,7.345106182688712,0.08231264351616724
15.142739999999998,7.353907877465167,0.08213946223517873
15.145144,7.3570753570547085,0.08203431679557621
15.147532,7.359171901457611,0.0819402978418963
15.149912,7.354982604367542,0.08190435083107989
15.152316,7.343296760971006,0.08194262632347252
15.1547,7.3364065150002205,0.08195275654565211
15.15708,7.326023924215798,0.08200678751852535
15.159476,7.321228326790046,0.08203473481786845
15.161864,7.320297161230269,0.08203899377053858
