Time,Force,Position
13.954168,0.05889893362315206,0.0
13.956552,0.0724325641257338,0.0
13.958952,0.08610596425517578,0.0
13.96134,0.09842888994425879,0.0
13.96372,0.1118227508199803,0.0
13.96612,0.12642731650920058,0.0
13.968508,0.1451758533181148,0.0
13.970888,0.16299322456725066,0.0
13.973288,0.18174176137616488,0.0
13.975676,0.20063006781193926,0.0
13.97806,0.21658510794151847,0.0
13.980456,0.23174875213817958,0.0
13.982844,0.24473974400470216,0.0
13.985228,0.25759096624436456,0.0
13.987635999999998,0.2689519444168078,0.0
13.99002,0.27444638997686066,0.0
13.9924,0.2770075692307183,0.0
13.994792,0.27835804367107725,0.0
13.99718,0.2744936118051038,0.0
13.999555999999998,0.2674163743792147,0.0
14.00196,0.258476805833769,0.0
14.004348,0.24581257504921,0.0
14.006728,0.2337999705707089,0.0
14.009132,0.2244883149729257,0.0
14.011516,0.21109445409720418,0.0
14.013896,0.1972195184991464,0.0
14.0163,0.17971246846059244,0.0
14.018684,0.16220541842203842,0.0
14.021064,0.1434568816131242,0.0
14.023468,0.12594983157457024,0.0
14.025856,0.11123627821535123,0.0
14.028236,0.09731412078905034,0.0
14.030639999999998,0.08753593448244337,0.0
14.033024,0.0778975178026966,0.0
14.035404,0.06574514369733525,0.0
14.037807999999998,0.05838836701772575,0.0
14.040195999999998,0.04837786328564149,0.0
14.042576,0.040229690673113876,0.0
14.04498,0.037948050672976616,0.0
14.047368,0.041812482538950105,0.0
14.049748,0.0496811158977573,0.0
14.052152,0.05498857000270679,0.0
14.054536,0.05764229705518155,0.0
14.056916,0.056384370413439654,0.0
14.059311999999998,0.059627957930216725,0.0
14.061699999999998,0.05986027535569399,0.0
14.06408,0.059860275355694,0.0
14.066475999999998,0.060651671288612104,0.0
14.068863999999998,0.06682852511158435,0.0
14.071244,0.06547805067122539,0.0
14.073648,0.06841131697742057,0.0
14.076031999999998,0.07320691440317238,0.0
14.078412,0.07600041108250734,0.0
14.080808,0.07171667033595323,0.0
14.083196,0.07288015332120881,0.0
14.085576,0.07125013962712945,0.0
14.087972,0.07692968078441643,0.0
14.09036,0.07916409895631055,0.0
14.092736,0.08139851712820467,0.0
14.095132,0.07897710750120718,0.0
14.09752,0.07455359712779286,0.0
14.099899999999998,0.0759040715681518,0.0
14.102304,0.08004804268784571,0.0
14.104692,0.09024553787503332,0.0
14.107072,0.0966711489948645,0.0
14.109468,0.10579770899541359,0.0
14.111856,0.11143192418232666,0.0
14.114235999999998,0.11720590899609994,0.0
14.116632,0.11669405231690225,0.0
14.119015999999998,0.12526153381001048,0.0
14.121412,0.1275431738101478,0.0
14.123815999999998,0.12596038194431156,0.0
14.1262,0.12223571970519828,0.0
14.12858,0.12731085638467052,0.0
14.13098,0.1303838923177259,0.0
14.133364,0.13159459713122465,0.0
14.135744,0.12504565625591493,0.0
14.13814,0.12007950724644141,0.0
14.140528,0.1132510271174113,0.0
14.142907999999998,0.10814510848107757,0.0
14.145304,0.10303918984474385,0.0
14.147692,0.09551186158141266,0.0
14.150084,0.08705336775830314,0.0
14.152487999999998,0.07510252912155763,0.0
14.154875999999998,0.06543333048494937,0.0
14.157256,0.05534482296776048,0.0
14.15966,0.04846912101048718,0.0
14.162043999999998,0.04159341905321389,0.0
14.164424,0.03592842190943934,0.0
14.166819999999998,0.027330158459469622,0.0
14.169208,0.02087376538277696,0.0
14.171588,0.016419473052501146,0.0
14.173984,0.014107051095502397,0.0
14.176372,0.009001132459168682,0.0
14.178752,0.0031038178899168603,0.0
14.181148,0.0,0.0
14.183536,0.0,0.0
14.185916,0.0,0.0
14.188312,0.0,0.0
14.1907,0.0,0.0
14.193084,0.0,0.0
14.195484,0.000589860464302319,0.0
14.197872,0.0022506561152431694,0.0
14.200252,0.004842617325962339,0.0
14.202656,0.006363643350042979,0.0
14.20504,0.0063636433500429785,0.0
14.20742,0.006363643350042979,0.0
14.209816,0.006363643350042979,0.0
14.212204,0.006363643350042979,0.0
14.2146,0.006363643350042979,0.0
14.216995999999998,0.006363643350042979,0.0
14.219383999999998,0.008577829934816946,0.0
14.221768,0.019402928125203812,0.0
14.224163999999998,0.041585212772295405,0.0
14.226548,0.07763864130170625,0.0
14.228932,0.12747066591481931,0.009454624982384705
14.231327999999998,0.18791570287996218,0.018481780589952375
14.233716,0.25496955070430105,0.027648083615198188
14.236096,0.33272895867928676,0.03667110435402072
14.238492,0.4234283449768135,0.04551512647901815
14.24088,0.5271149314251242,0.05408398885162032
14.24326,0.6436181664404972,0.06236525154656941
14.245656,0.7699430178749822,0.07049713934955748
14.248044,0.9004552705416655,0.07886919507368648
14.250436,1.0455375152249693,0.0871094184821488
14.252836,1.2049882164562773,0.09523783126618192
14.255223999999998,1.3773335700397527,0.10318654927208334
14.257604,1.55419308593739,0.11123627886029265
14.259999999999998,1.7391516567614425,0.1192816404015041
14.262387999999998,1.9337920743777466,0.1272981112841864
14.264768,2.139744352480381,0.13519454913234316
14.267172,2.3526071081409223,0.14293374137500656
14.269559999999998,2.558861052942267,0.15061425736546752
14.27194,2.749800831622316,0.15834490055213643
14.274335999999998,2.9214222426882364,0.16620557368565603
14.276723999999998,3.079265057670455,0.16461162183679098
14.279104,3.2264948603006434,0.16344513936274296
14.281508,3.3676749305790765,0.16208558187600575
14.283891999999998,3.4979171232813857,0.16082621631116287
14.286276,3.611913984302622,0.15980253619160026
14.288671999999998,3.7118527099864345,0.15909257096781046
14.291059999999998,3.797174221825384,0.1587230634326542
14.293444,3.8723945779915017,0.15849151555566682
14.295839999999998,3.944126381059721,0.157926123815032
14.298227999999998,4.000496796178402,0.15754218969047717
14.300608,4.043460702265719,0.15732553206623687
14.303003999999998,4.073250416747149,0.15731641721645512
14.305392,4.1005280696608315,0.1571419290241315
14.307776,4.119986206901821,0.1569443216462019
14.31018,4.129390410298221,0.1567454754638142
14.312563999999998,4.124829026155817,0.1567279272120391
14.314944,4.110211812310954,0.1568930838892412
14.317348,4.093872036973394,0.15708888550038913
14.319736,4.082699946113923,0.1571814758548001
14.322116,4.080467423799898,0.15700206935404676
14.324512,4.077955362232153,0.15684978583386355
14.326895999999998,4.0798195892095785,0.1566061025612301
14.329276,4.080286119918403,0.1564960782621395
14.33168,4.083498925478318,0.15638543104842564
14.334063999999998,4.090668710702824,0.15622122865562812
14.336444,4.102494323726222,0.15594046817381205
14.338848,4.113249001562981,0.15569105849346998
14.341231999999998,4.123072513839961,0.15546611232528484
14.343616,4.130055307609363,0.1553843044918372
14.346011999999998,4.140111137311822,0.15520340896574528
14.348399999999998,4.151145354402302,0.15492795399397338
14.35078,4.1652526074258365,0.1545569814113787
14.353175999999998,4.179080321195652,0.15421888495194713
14.355564,4.190486625338469,0.15397821745488594
14.35796,4.202125246906763,0.1537805313460784
14.360356,4.216277825900672,0.15353444893416685
14.362744,4.231082031200639,0.15328869451775584
14.365123999999998,4.243976683552806,0.1531589450831325
14.367528,4.260456228517226,0.15295549638743197
14.369916,4.271301558294733,0.15296462445214473
14.372296,4.285499463259016,0.15285385390869857
14.3747,4.29331897893171,0.15289177987033567
14.377088,4.304118982738844,0.15278005530482025
14.379468,4.313895273187582,0.15264007114375655
14.381864,4.322368311024205,0.15249353011788058
14.384252,4.327535995502293,0.15239998672148547
14.386632,4.3369874207269365,0.15216730857218058
14.389028,4.344296975578304,0.15200151340112633
14.391416,4.355331192668783,0.1517469363993531
14.393795999999998,4.368879367184878,0.15145844049850632
14.396192,4.383870563939949,0.15116836715644913
14.39858,4.3969994295754615,0.15092587558817663
14.400959999999998,4.411990626330532,0.1506478064143746
14.403364,4.43377952125777,0.15020454734269126
14.405748,4.457989825812007,0.14967754895253896
14.408131999999998,4.483550604806602,0.14909715225790304
14.410524,4.510461858241556,0.14846194628581255
14.412912,4.542076161303646,0.14766414188476837
14.415292,4.565262752499486,0.14711228501242543
14.417687999999998,4.59366425000166,0.146414463647896
14.420075999999998,4.6175496893318,0.14581146669977496
14.422472,4.6434372294083595,0.145151172999021
14.424868,4.668905460604337,0.14453681987852462
14.427256,4.692324369225656,0.14403834935542678
14.429636,4.719188400832367,0.1434911356598736
14.432032,4.74498149725244,0.14297529189801758
14.43442,4.769843428112735,0.1424863365435584
14.436804,4.79950095639878,0.14188812033665107
14.4392,4.833581995058241,0.1411834945959013
14.441588,4.8632867451725295,0.14055740504535633
14.443967999999998,4.889686141928286,0.13997262972596533
14.446372,4.914502746818206,0.13940304644807783
14.448756,4.933592588722595,0.13895378303297537
14.45114,4.946955667641457,0.1386267369730099
14.453536,4.9578973369333195,0.1383811999394132
14.455924,4.968047610292264,0.13814436316987755
14.458303999999998,4.973262516598597,0.13801381539473576
14.4607,4.974193682158375,0.13799660246738685
14.463088,4.986113738838258,0.13768030925661842
14.465467999999998,4.994448902905888,0.13742394438957317
14.467864,5.003156154025856,0.13719208233831134
14.470252,5.011863405145825,0.13696022028704954
14.472648,5.019779260332875,0.1367362651703842
14.475044,5.029464898840867,0.13643159256966927
14.477432,5.0359849536171835,0.1361531894846559
14.479812,5.041713612460583,0.1358791141533729
14.482216,5.043438069811149,0.13569185085562063
14.484604,5.041717404176322,0.13555025219350336
14.486984,5.030126004436271,0.1356149807649814
14.489384,5.019465770255998,0.13566286759389679
14.491772,5.010388327941561,0.1356992862814283
14.494152,5.001543203052602,0.13577311253306473
14.496555999999998,4.997773214843115,0.13573308390325173
14.49894,4.997216032193544,0.13561237007120358
14.50132,4.997078158424553,0.13545991425825304
14.503716,4.9953102709614825,0.13537652449185672
14.5061,5.001131477603499,0.13515211387968692
14.50848,5.011236424992069,0.13482183812016968
14.510876,5.012913660514391,0.1346971246664342
14.51326,5.014031817529273,0.1346136998806699
14.515656,5.019293945663848,0.134436998471838
14.518048,5.026558174544841,0.134220065632047
14.520432,5.032611698612335,0.13403946883248677
14.522816,5.038245913799248,0.13389084903152595
14.525212,5.0450436119714155,0.13376332668625848
14.527596,5.057148764248534,0.13356649727358977
14.529992,5.0748409098843235,0.13327778777223767
14.532388,5.096537257012946,0.13291131158496844
14.534776,5.122098036007541,0.13247047002520224
14.537156,5.1461685709349165,0.13208439100939723
14.539552,5.1679574658621545,0.13175663389556516
14.54194,5.1932387056030285,0.13133502026702049
14.54432,5.215586679037709,0.13097400489974054
14.546724,5.235932551725972,0.1306570866192835
14.549108,5.254927949973876,0.1303847553840303
14.551488,5.27406311784864,0.13009884136010041
14.553884,5.290265019417209,0.12987237599327603
14.556272,5.303114345799003,0.12973245454260368
14.558652,5.316243211434516,0.12957125368167655
14.561048,5.333236508936004,0.1293422814668805
14.563432,5.345014900131158,0.12922728597090888
14.565828,5.355862125766534,0.1291288023680102
14.568231999999998,5.367268429909352,0.12899074677632172
14.570616,5.37909404293275,0.1288245014516012
14.572996,5.3901282600232285,0.1286630575403818
14.575399999999998,5.3945045485684,0.12861148270556072
14.577787999999998,5.399439915621011,0.12852261115506528
14.580168,5.402233412300347,0.12848159180967342
14.582563999999998,5.401162477113708,0.1285050082146437
14.584948,5.401302246740568,0.12849534891931508
14.587332,5.405585987487122,0.12840110344512984
14.589735999999998,5.4058655267408415,0.1283818755139083
14.592119999999998,5.40707623155434,0.12834897478953847
14.5945,5.4090783323007585,0.12831211355254746
14.596899999999998,5.41429323860709,0.1282060297285886
14.599287999999998,5.423791885659978,0.12800897967279232
14.601668,5.431847510473888,0.127810546793803
14.60406,5.442184775287936,0.12755786304031635
14.606448,5.455315536781319,0.1272664463872617
14.608823999999998,5.465140944916168,0.12700199452092376
14.611224,5.477108223424295,0.12669029095422588
14.613608,5.486793861932286,0.12643319729479635
14.616008,5.49792252267925,0.12617946504385477
14.6184,5.5109135145457735,0.12590360466707975
14.620788,5.526046376785572,0.12558568502274592
14.623168,5.549047872384179,0.1251402303941859
14.625571999999998,5.569907497609509,0.12474501297161032
14.627959999999998,5.5901154965287825,0.12434600402576268
14.63034,5.617400732873943,0.12382596428088985
14.632744,5.647898774779019,0.12324812166629957
14.635127999999998,5.6802591478036515,0.1226569854984627
14.637508,5.715552787134481,0.12202335733014344
14.639912,5.752057131278808,0.1213668192751594
14.6423,5.788841014676856,0.1206976650298786
14.64468,5.825485128448044,0.12004653141177184
14.647084,5.861989472592371,0.11941780453808798
14.649468,5.899424982296476,0.1187789241343794
14.651848,5.9332755993883275,0.11817805786138307
14.654243999999998,5.965124115733763,0.11761155766875231
14.656631999999998,6.00106938137065,0.11703014193684007
14.659012,6.038225351821034,0.11642377416249612
14.661404,6.074078069659303,0.11579869469760232
14.663792,6.1064856645121806,0.11520043076186917
14.666172,6.133678353058724,0.11469226330664951
14.668568,6.158868940858852,0.1142181617794887
14.670952,6.174608103434335,0.11386078117320066
14.673348,6.186622603770706,0.11354512226809826
14.675752,6.195424298547161,0.11328536194060065
14.67814,6.203294827763838,0.11304103881482175
14.680519999999998,6.205159054741262,0.11288456667460747
14.68292,6.201576057986879,0.11278215223845801
14.685308,6.1949200252994405,0.11272712246795326
14.687687999999998,6.184399560746027,0.11272091589407186
14.690092,6.172668391379116,0.11274090495149854
14.69248,6.1572125597730905,0.11280101220841135
14.694855999999998,6.135750425927815,0.11294629014077506
14.697264,6.114800148761739,0.11310529591260521
14.699648,6.100507800140969,0.1131835231892804
14.702028,6.085563825214141,0.11325523112612337
14.704424,6.063170525809087,0.11340679610679344
14.706808,6.039706291217396,0.11357479627327184
14.709191999999998,6.021549510730653,0.11369941002971418
14.711596,6.0092592628562995,0.11374759368101822
14.71398,5.999390424608945,0.11374430049353075
14.716359999999998,5.990173212667649,0.11374736112371796
14.718756,5.9871946203910795,0.113698541586145
14.721144,5.98952348221946,0.11360719429498595
14.723524,5.996647941473592,0.11345817400725206
14.725928,5.996415624048114,0.11342711886051392
14.728316,6.004051939981444,0.11329348903270946
14.730695999999998,6.016204314086806,0.11312013552192746
14.733092,6.029707162632527,0.11291238049267083
14.73548,6.0461432774844415,0.11266745298177998
14.737859999999998,6.062579392336358,0.11242252547088907
14.740256,6.083531565360304,0.11213816410798916
14.742644,6.110490040623502,0.11177155583113361
14.745024,6.136936659207502,0.11139168457289432
14.747419999999998,6.157376975552251,0.1110981422998097
14.749807999999998,6.178468918203058,0.11081111936655734
14.752188,6.207848803093252,0.11040165134794078
14.754583999999998,6.238159853543225,0.10998478105868173
14.756972,6.26889021287378,0.10955198450313061
14.759367999999998,6.293614269965083,0.10920106513373092
14.761764,6.318338327056386,0.10885169741324639
14.764152,6.341759131535573,0.10848965506666972
14.766531999999998,6.362665978589146,0.10813969323930468
14.768936,6.380127702657326,0.10781134635555531
14.771324,6.394935699673032,0.1075027917962447
14.773704,6.416169307808568,0.10709245499083651
14.776108,6.429534282585297,0.10677892523396101
14.778492,6.44103692624247,0.10648578334064757
14.780876,6.457474936952253,0.10613906570251302
14.783272,6.4708399117289845,0.10583290289276809
14.78566,6.485555360946073,0.10549675459582965
14.78804,6.497896622364406,0.1051655616954525
14.790444,6.507584156730264,0.10485431137543054
14.792828,6.5172716910961235,0.10454377592033984
14.795212,6.527238764715704,0.10421742108528248
14.797608,6.536414442402365,0.10389127203702206
14.799996,6.539024739342335,0.10366759462514902
14.802376,6.537910374043193,0.10347563598219528
14.804772,6.5327918072512166,0.10333113344041335
14.80716,6.531817211578932,0.10313243098822128
14.809539999999998,6.532565177399345,0.1029260915756585
14.811944,6.535966870272234,0.10270440734365514
14.814328,6.544723239078315,0.10240952202589634
14.816707999999998,6.556692413444311,0.10207133134650705
14.819104,6.574667890049559,0.10167027234416218
14.821488,6.58957033072175,0.1013076401601369
14.823868,6.606335102513498,0.10092742860279186
14.826272,6.622448247999189,0.10054184173624237
14.82866,6.629761594566293,0.10024548655391072
14.831036,6.64187053855915,0.09990632132264736
14.83344,6.650766676992092,0.09961050726320725
14.835828,6.6595230457981724,0.09932268436692104
14.838204,6.664926839417478,0.09908420989870087
14.840599999999998,6.670982259342842,0.09885360652117815
14.842987999999998,6.676897909641344,0.09862979419248276
14.845384,6.687748926992458,0.09835787972546724
14.84778,6.701952519530348,0.09803542798287752
14.850164,6.7238849758001855,0.09764457276272842
14.852543999999998,6.746748597629801,0.09724654822499423
14.854948,6.765468248339723,0.09689894546867495
14.857336,6.781394402370309,0.09657337215735513
14.859716,6.793316354908063,0.09629015878508929
14.86212,6.799324553005183,0.09610683429217169
14.864504,6.800909240728889,0.09598624407370504
14.866884,6.7962080869596235,0.09594153106704648
14.86928,6.793229494683054,0.09589051393710611
14.871664,6.796257204645736,0.09577947280092468
14.874043999999998,6.797794670541197,0.09570278158155693
14.87644,6.802637489795192,0.09562016299911576
14.878828,6.803755646810073,0.09556423648992504
14.881211999999998,6.809669401250707,0.09546878666874176
14.883608,6.81516384681076,0.0953943418008024
14.885991999999998,6.826664594610064,0.09525997221244668
14.888388,6.838444881663088,0.09511258155745944
14.890784,6.853810061328365,0.09494721917364642
14.893172,6.866102205060588,0.09481700557967405
14.895552,6.8763922480463915,0.09470659186568164
14.897948,6.883749024726001,0.09462346600748298
14.900336,6.892036966965389,0.09453464418550372
14.90272,6.904329110697611,0.09440842387510831
14.905116,6.918343815922529,0.09427704756641417
14.907504,6.937293888200059,0.0941028911780431
14.909883999999998,6.957873974171667,0.09388839180942474
14.912288,6.981666865703193,0.09363531603914728
14.914672,7.006810231675077,0.0933556478089453
14.917056,7.03358361134104,0.09303967064811491
14.919452,7.0543506887677525,0.09278233968960616
14.921836,7.074466139888408,0.09251596918682074
14.924215999999998,7.095000899889643,0.09222925655181285
14.92662,7.116327055823796,0.0919430390289206
14.929008,7.1340683191456975,0.0916754259532726
14.931387999999998,7.151018186534679,0.09140627094239841
14.933784,7.1661057228041045,0.09115147121704673
14.936172,7.18105348944667,0.09090476455665646
14.938568,7.192556133103843,0.09066875887187893
14.940964,7.20098574082796,0.09046252926728741
14.943352,7.214350715604689,0.09021675669371515
14.945732,7.220778222582389,0.09002892114633228
14.948128,7.228276664746729,0.08983017475355053
14.950516,7.234564402097569,0.08965107899113221
14.952896,7.238338182022794,0.08947527357104358
14.955296,7.239038926014965,0.08932954725893603
14.957684,7.238948274074217,0.08918269829032731
14.960064,7.237646917319971,0.089054353017243
14.962467999999998,7.236345560565724,0.08892606051880095
14.964856,7.231551858997842,0.0888458558912868
14.967236,7.229970962989876,0.08873080251330796
14.969632,7.232114729221022,0.08859503345151694
14.97202,7.235469200265667,0.08844172238104957
14.9744,7.242316016123949,0.08824245875104153
14.976803999999998,7.251956328661565,0.0880288662398261
14.979192,7.269372726759371,0.08772754364828292
14.981572,7.286649355230317,0.08743406336503343
14.983975999999998,7.304065753328122,0.08713592161599652
14.986359999999998,7.323484252172346,0.08682310880765451
14.988744,7.345184391016706,0.08648129793062463
14.991139999999998,7.361157766875536,0.08617614585995356
14.993524,7.383137444973617,0.08582221862005147
