Time,Force,Position
14.372468,0.03921201282951603,0.0
14.374871999999998,0.0369650137394312,0.0
14.377259999999998,0.034543604112433714,0.0
14.37964,0.03663825265746763,0.0
14.382035999999998,0.037941505269583425,0.0
14.384423999999996,0.03780173564272321,0.0
14.386808,0.037661966015862997,0.0
14.389203999999998,0.04045546269519796,0.0
14.391591999999996,0.04418012493431124,0.0
14.393972,0.04632199530758829,0.0
14.396368,0.050465966427282204,0.0
14.398756,0.056332499039672544,0.0
14.40114,0.06472556999586813,0.0
14.403536,0.07166303779489702,0.0
14.405924,0.07967144078056443,0.0
14.408304,0.08940240525892826,0.0
14.4107,0.1004492032675986,0.0
14.413088,0.11256693646290747,0.0
14.415472,0.12215813131441108,0.0
14.417868,0.12895582948657974,0.0
14.420256,0.13814029637569344,0.0
14.42264,0.149326864011224,0.0
14.425036,0.15761480625061183,0.0
14.427424,0.16231785587774658,0.0
14.429808,0.16567043106452237,0.0
14.432204,0.16874346699757775,0.0
14.434592,0.17246812923669103,0.0
14.436976,0.17004671960969353,0.0
14.439372,0.16734577072897566,0.0
14.44176,0.16836948408737104,0.0
14.44414,0.16618039188585085,0.0
14.44654,0.16133757263185589,0.0
14.448924,0.1563549837510007,0.0
14.451323999999998,0.14978960300430932,0.0
14.45372,0.14601771893695292,0.0
14.456108,0.1417339781903988,0.0
14.458491999999998,0.13544813669742783,0.0
14.460888,0.12566995039082082,0.0
14.463276,0.12017550483076797,0.0
14.465655999999996,0.11640362076341154,0.0
14.468056,0.10876730483008161,0.0
14.470444,0.09758073719455104,0.0
14.472827999999998,0.08839627030543734,0.0
14.475224,0.08107413453588028,0.0
14.477612,0.07403153802004364,0.0
14.479995999999998,0.0679201070639853,0.0
14.482392,0.06008611461523054,0.0
14.48478,0.054393992539752856,0.0
14.487159999999998,0.04898140971799558,0.0
14.48956,0.042497891709599785,0.0
14.491948,0.03708530888784251,0.0
14.494327999999998,0.03353505718564189,0.0
14.496724,0.030124575110301467,0.0
14.499111999999998,0.02857642415451769,0.0
14.501488,0.023163841332760417,0.0
14.503892,0.017471719257282727,0.0
14.50628,0.012710762741583358,0.0
14.508663999999998,0.010371215852881468,0.0
14.511055999999998,0.005889798590902519,0.0
14.513443999999998,0.0015481509557837784,0.0
14.515824,0.0,0.0
14.518228,0.0,0.0
14.520616,0.0,0.0
14.522995999999996,0.002339546888701888,0.0
14.5254,0.005889798590902518,0.0
14.527788,0.010371215852881466,0.0
14.530167999999998,0.016063337928359157,0.0
14.532572,0.024037100003974122,0.0
14.53496,0.02814643021361559,0.0
14.53734,0.033326695609895596,0.0
14.539744,0.038506961006175594,0.0
14.542132,0.041545356029178526,0.0
14.544512,0.04723747810465622,0.0
14.546908,0.04999633387393874,0.0
14.549296,0.04999633387393873,0.0
14.551676,0.04999633387393873,0.0
14.55408,0.05033378001622378,0.0
14.556464,0.05033378001622377,0.0
14.558848,0.05033378001622377,0.0
14.56124,0.05095076541222923,0.0
14.563628,0.05095076541222924,0.0
14.566007999999998,0.05356985155465154,0.0
14.568404,0.05356985155465155,0.0
14.570792,0.05123030466594966,0.0
14.573171999999998,0.047680052963749026,0.0
14.575568,0.043198635701770086,0.0
14.577956,0.03750651362629239,0.0
14.580335999999996,0.02953275155067743,0.0
14.582731999999998,0.025423421341035958,0.0
14.585119999999998,0.021371998019959104,0.0
14.587516,0.01652917876596414,0.0
14.589912,0.01797220100494015,0.0
14.5923,0.014247538765826866,0.0
14.59468,0.016389409139103927,0.0
14.597076,0.02329223602808036,0.0
14.599464,0.028192962170639938,0.0
14.601843999999998,0.03275624217091448,0.0
14.60424,0.040590234619669235,0.0
14.606628,0.051497263001479374,0.0
14.609007999999998,0.05978520524086719,0.0
14.611408,0.07069223362267733,0.0
14.613796,0.07511574399609168,0.0
14.616175999999998,0.08402067163148495,0.0
14.618572,0.09399653445351677,0.0
14.620959999999998,0.10197029652913175,0.0
14.623356,0.10980428897788651,0.0
14.625752,0.12071131735969665,0.0
14.62814,0.128964618689032,0.0
14.63052,0.134144884085312,0.0
14.63292,0.1330160420101089,0.0
14.635308,0.13267859586782385,0.0
14.637688,0.1281971786058449,0.0
14.640084,0.1262297187694805,0.0
14.642472,0.13199422429390756,0.0
14.644851999999998,0.14883637702131894,0.0
14.647252,0.17987643471301312,0.0
14.64964,0.21915531695798277,0.010114473707315233
14.652019999999998,0.259828103755816,0.02076252706899734
14.654416,0.30664317070402153,0.031297374641733385
14.656804,0.3698433389601608,0.0412579491924487
14.659188,0.44454046329986513,0.0507422553229872
14.661584,0.5366482981637679,0.05973253269317533
14.663972,0.632850986461252,0.06881587658515174
14.666351999999998,0.7372452774837684,0.0778403062132341
14.668752,0.8568611868289632,0.08669079238652981
14.67114,0.9909545403921611,0.0952350668528837
14.673519999999998,1.130073912948719,0.10374725860691776
14.675916,1.2756623267376126,0.1124532437227941
14.678299999999998,1.4351691062370684,0.12110373496393798
14.680696,1.6141466038957046,0.12960901274174325
14.683092,1.8113262080114572,0.13778892636755075
14.68548,2.0241486351883373,0.14562069232764768
14.687864,2.2401838679251336,0.1533432672453398
14.690256,2.441736658957213,0.1611038292813607
14.692644,2.6282076012934743,0.1689251867558763
14.695028,2.8067192583301805,0.17666799858532445
14.697424,2.9796458178660856,0.17424042093422876
14.699812,3.15108592505051,0.171145907426378
14.702191999999998,3.3125665420468327,0.1681075089158009
14.704588,3.4578490491903238,0.1656201391987476
14.706976,3.585907837264721,0.16369751013526904
14.709372,3.697207541120977,0.1623768754038237
14.711767999999998,3.804552161170512,0.16090387546021725
14.714152,3.9018428473754576,0.15949962205948345
14.716532,3.9861935552578633,0.15824313706895982
14.718932,4.055088431534244,0.15739798044458522
14.72132,4.119049836615881,0.1565446918349441
14.7237,4.183991524943409,0.1553729531794039
14.726096,4.23957812756065,0.15418484457967543
14.728484,4.28236452148221,0.15307105146807393
14.730864,4.30229298114776,0.15238970545843503
14.73326,4.299780919580015,0.15224080396916567
14.735648,4.295686066146434,0.15211223023424558
14.738032,4.290892364578551,0.15204894241031136
14.740428,4.286657741518109,0.15193221544180038
14.742812,4.2763242684198,0.15194245005011764
14.745208,4.262638220134714,0.15207723537452486
14.747604,4.244481439647972,0.15243983144531964
14.749992,4.223716258079128,0.15299394508210906
14.752372,4.2023447761746,0.1536828374872826
14.754768,4.1884226187483,0.15417577270414426
14.757156,4.18036699393439,0.15449667394882094
14.75954,4.170029729120342,0.15490483361956614
14.761936,4.159412925052574,0.15534326675886165
14.76432,4.14572308505175,0.15588763640945927
14.766704,4.131568610199972,0.15635230268584477
14.7691,4.1133173860567425,0.1568846126308673
14.771484,4.091061960420681,0.15752865079076728
14.773884,4.0623809236647865,0.15841478553054678
14.776279999999998,4.031278477281895,0.1594008795499051
14.778667999999998,4.006414650563731,0.1602519231242007
14.781052,3.990862479443351,0.16086283541864196
14.783447999999998,3.976985647987424,0.16149517900267846
14.785835999999998,3.9750741991817558,0.16181298853816878
14.788216,3.9764681037346192,0.1620729980594991
14.790615999999998,3.9785136345935412,0.16233710921159825
14.793003999999998,3.9820494095196817,0.1625209739656774
14.795384,3.9872151981399018,0.1626103841757572
14.797783999999998,3.996804497133536,0.1625266747913006
14.800171999999998,4.009374284261609,0.16227730967749412
14.802555999999996,4.017567782844511,0.16213305257690377
14.804951999999998,4.024969885494493,0.16200393202165786
14.807339999999998,4.035445024077532,0.16177506139546466
14.80972,4.0495050552728244,0.16146207632112752
14.812115999999998,4.069012310199926,0.1610135470568613
14.814507999999998,4.091173292179502,0.16050436669574594
14.816888,4.114917066024915,0.15997077563324597
14.819283999999998,4.137310365429968,0.15950088943331575
14.821671999999998,4.167152989313249,0.15881894230424262
14.824052,4.200720275435642,0.15804229734981465
14.826451999999998,4.230051042639724,0.15734670870139705
14.828839999999998,4.258869953164609,0.15665074627943054
14.83122,4.283172805517464,0.15606890968789508
14.833615999999996,4.298164002272534,0.15574264460096238
14.836,4.312503572721545,0.15541949522582343
14.838395999999998,4.326610825745081,0.15505034188805136
14.840792,4.340206222089418,0.1546676116337072
14.843179999999998,4.357386511046008,0.15421043402981233
14.84556,4.380153793361268,0.15363451744580497
14.847955999999998,4.4050157242215615,0.1530647204127562
14.850343999999998,4.432531382134332,0.15244657175488222
14.852724,4.457113773740907,0.15190843795913458
14.855128,4.48169616534748,0.15138408338773826
14.857511999999998,4.506418326580914,0.1508584029595104
14.859892,4.530908170388871,0.15030655894698658
14.862291999999998,4.555537783823687,0.14974959086421888
14.864679999999998,4.579795310206166,0.149167443499172
14.86706,4.60875588621578,0.1484315886395163
14.869455999999998,4.640137871852392,0.1476320922162765
14.871843999999998,4.667003799316973,0.14692075086770945
14.874224,4.700015798647664,0.14605456604912562
14.876627999999998,4.729954762045299,0.14527119546645323
14.879015999999998,4.764549553241825,0.14439782778103438
14.881396,4.80659366891658,0.14338709077783832
14.8838,4.85036034608403,0.1423686935630262
14.886188,4.896361441423374,0.1413389012802907
14.888567999999998,4.943805559001694,0.1403147984953046
14.890964,4.990318511020236,0.1393315071368404
14.893351999999998,5.031896095986167,0.1384867980403759
14.895732,5.072170428339982,0.13764722358623172
14.898132,5.104855666588709,0.1369439179228743
14.900519999999998,5.139682775210714,0.13618526528107383
14.9029,5.170365912713025,0.13552852242843344
14.905295999999998,5.197603927229942,0.13492193799635588
14.907683999999998,5.2214893665600846,0.13441204869971649
14.910064,5.244164101076728,0.13394252128517492
14.912468,5.26613998745907,0.13352490622225277
14.914856,5.287417025707112,0.13317088561334622
14.917235999999995,5.30361892727568,0.13293212502068763
14.919631999999998,5.325547591829779,0.13259383199246796
14.922019999999998,5.3446355378763,0.13236234119191628
14.9244,5.365865354296098,0.13208059651576318
14.926795999999998,5.382579112543865,0.13186580294881997
14.929183999999998,5.393985416686681,0.13172490383830532
14.931575999999998,5.3970112307914935,0.13171535178016572
14.933972,5.400596123403747,0.13166686346301823
14.93636,5.399804727470829,0.13167165571098371
14.938739999999996,5.396499374112296,0.1317002400969222
14.941148,5.387886566648815,0.1317969498469114
14.943532,5.377131888812055,0.1319415291384161
14.945916,5.374106074707244,0.13195081336962539
14.948312,5.369869555788932,0.13199429075352173
14.9507,5.3669835113109805,0.13199386945915825
14.953079999999998,5.365168402019668,0.13196877640336246
14.95548,5.361490961608797,0.131973533887614
14.957864,5.355951190078369,0.1320085554997972
14.960243999999998,5.350970497055384,0.13200370044299353
14.96264,5.340822119554308,0.13205858869937198
14.965027999999998,5.330022115747174,0.13210887460498513
14.967408,5.312564183394733,0.13227262506060855
14.969808,5.292732063243538,0.13245257108399677
14.972196,5.271549468651983,0.1326770688739787
14.974576,5.255581780366761,0.13278403005406642
14.976976,5.23719268245454,0.1329618973171037
14.979364,5.227835700886383,0.13301157442920047
14.981747999999998,5.212984273758173,0.1331984252885359
14.984144,5.203580070361774,0.1333042658579692
14.986532,5.194967262898292,0.1334044339787474
14.988911999999996,5.194874715099673,0.1333594133524523
14.991307999999998,5.193711232114419,0.13333926574515098
14.993695999999998,5.192268209875443,0.1333389974095558
14.996092,5.190964957263326,0.13332879989274798
14.998488,5.191943344651347,0.1332595147931124
15.000876,5.195854998345564,0.13313787109411038
15.003256,5.206704119838808,0.13288750330417867
15.005656,5.223559543571305,0.13252525963521228
15.008044,5.241997759169637,0.13215638099277865
15.010424,5.261227370700888,0.13178010092591352
15.01282,5.284321414098111,0.1313415087723852
15.015208,5.3089982493611725,0.13088844110703812
15.017587999999998,5.336189042049847,0.1304105221236341
15.019992,5.365801244365519,0.1298680652343443
15.02238,5.3892673748150814,0.12945394304189015
15.02476,5.415154914891639,0.12896973041450327
15.02716,5.438947806423165,0.12848826749220946
15.029544,5.469957705007439,0.1278585033327159
15.031923999999998,5.499245042099018,0.1272549388246988
15.034328,5.52694958732476,0.12666105431790098
15.036716,5.5439920025123595,0.1262458865477111
15.039096,5.564898849565932,0.12576681116876087
15.041496,5.584874531059727,0.12530529832716153
15.043884,5.606992082926797,0.12480146389440738
15.046268,5.624965663674175,0.12438096048677763
15.048664,5.640797374048275,0.12401151195327734
15.051052,5.652485113302681,0.1237261881427208
15.053436,5.660168651064256,0.12351349461993114
15.055832,5.666688705840573,0.12328172342780544
15.05822,5.67427969580353,0.12302800940661635
15.0606,5.674281591661399,0.12288267456292995
15.062996,5.675773731586487,0.12268809892966928
15.065384,5.679547511511712,0.12244318686888761
15.067764,5.681598729944242,0.1222150963821056
15.070171999999998,5.685931588376908,0.1219347287875176
15.072556,5.691195612369353,0.121643374697259
15.07494,5.69389845710794,0.12142153494043316
15.077336,5.692736869980553,0.12125736096838963
15.079724,5.688642016546973,0.12113767396816005
15.082104,5.6861299549792275,0.12101205572127273
15.0845,5.694280023449624,0.12072837890835494
15.086888,5.700567760800464,0.12046996864270337
15.089272,5.704993167031747,0.1202351599733369
15.091675999999998,5.709418573263029,0.12000272965630385
15.094063999999998,5.717708411360288,0.11971533033339192
15.096444,5.72199404796471,0.11949095728397896
15.098843999999998,5.7264194541959945,0.11925784412404353
15.101228,5.729773925240639,0.11904489987431288
15.103612,5.734571418524261,0.11883679212617602
15.106011999999998,5.74043984699452,0.11860930485973056
15.108399999999998,5.754409226249065,0.11829598962424266
15.11078,5.770892562929224,0.11796980819935768
15.113175999999998,5.782720071810489,0.11770162953966044
15.115563999999996,5.795990602930733,0.11743937981894574
15.117944,5.809121364424116,0.11718656043825962
15.12034,5.824254226663915,0.11690744741136368
15.122728,5.841808498530712,0.11657314800646854
15.125108,5.863227202263482,0.1161903970285438
15.127504,5.887858711556169,0.1157502874412823
15.129892,5.915982565662491,0.11524457142103656
15.132272,5.939450591969921,0.11479827385095721
15.134668,5.963849783837132,0.11434378156935965
15.137056,5.992392946824035,0.11382780850717034
15.13944,6.018002843504743,0.11335279341842265
15.141836,6.040819243506115,0.11290952372620111
15.144224,6.0685710105601,0.11239905251840003
15.146608,6.095531381681166,0.11189050629813468
15.149008,6.122491752802232,0.11137950274533401
15.151396,6.146798396870825,0.11089265523832456
15.15378,6.1691029401929995,0.1104350743066816
15.156176,6.188102130156642,0.10999642669040183
15.158564,6.202305722694533,0.10961546389562413
15.160944,6.215298610418924,0.10925716835598151
15.163347999999996,6.224566835904203,0.10893784275368766
15.165736,6.23369529176262,0.10862691799379565
15.168116,6.237469071687847,0.10840607106546146
15.170515999999996,6.238821441986075,0.10823738398163522
15.1729,6.236821237097528,0.10813067263872106
15.175284,6.2364038240748165,0.10802184688228088
15.17768,6.2254168288125795,0.10807959344897575
15.180068,6.213079359109984,0.10817115726717981
15.182448,6.200881659034248,0.10825346288813283
15.184844,6.18453998783882,0.10839563638620459
15.187236,6.170060647762948,0.10851888967029605
15.189616,6.156512473246853,0.10863290093880454
15.192016,6.1421729027978405,0.10874632042248764
15.194404,6.133280556080638,0.10881190769270445
15.196784,6.12839241085627,0.10882568862579771
15.19918,6.12415589193796,0.10884631498428986
15.201568,6.123783804885622,0.10882375979122844
15.203963999999996,6.125134279325981,0.10879173433361414
15.206364,6.134213617498287,0.10867629342221834
15.208752,6.1519529849623185,0.10847062520066514
15.211131999999996,6.170483748359268,0.10826226933906438
15.213527999999998,6.191016612502633,0.10803062034745216
15.215915999999998,6.2176955485121095,0.1077187781714906
15.218299999999996,6.246516354894863,0.10737463019017703
15.220695999999998,6.276036009411919,0.10699245764191676
15.223088,6.301551462436139,0.10666111083090778
15.225467999999998,6.337356958446165,0.10618905391702527
15.227864,6.373162454456191,0.10571357420160479
15.230256,6.409619576772276,0.10524958218288497
15.232635999999998,6.4451455335285806,0.10479064520756488
15.235036,6.479600555098248,0.10434961371160492
15.237419999999998,6.515778138160611,0.10390207368904689
15.239803999999998,6.550745016409476,0.1034804523169477
15.2422,6.579053966113032,0.10312820899053872
15.244587999999998,6.6004254480175595,0.10285629378177494
15.246968,6.621657160295227,0.10259167951482415
15.249363999999998,6.637813735893422,0.10239197945936539
15.251751999999998,6.650245649252504,0.10222553573359762
15.254135999999995,6.65373799406614,0.10216349960474114
15.256531999999998,6.652574511080885,0.10214209852102125
15.258919999999998,6.653832437722627,0.10207519221818256
15.261303999999996,6.653228033244812,0.10202417671971283
15.263699999999998,6.648759196901024,0.1020115094300937
15.266087999999998,6.643498964624317,0.10199896863517499
15.268468,6.640101063467168,0.10197098837323434
15.270863999999998,6.639915967869935,0.1018987396277181
15.273255999999998,6.638659937086062,0.10184169020195136
15.275636,6.642106955929323,0.10170610504920456
15.278031999999998,6.642760478093251,0.10159222854828368
15.280419999999998,6.647557971376872,0.1014285881752015
15.282804,6.650493133540936,0.10127873216446266
15.285199999999998,6.65370783495872,0.10111577437455073
15.287587999999998,6.659204176376642,0.10091837124032225
15.289972,6.664840287421424,0.10071265549863959
15.292367999999998,6.676342931078596,0.10044936587078322
15.294759999999998,6.691477689176265,0.10012470782615288
15.29714,6.7128982887669055,0.09972492974751598
15.29954,6.736972615410022,0.0993108221514688
15.301927999999998,6.762816725374075,0.09884352949435436
15.304311999999998,6.785587799405075,0.09841147090506712
15.306708,6.807287938249434,0.09799594969846584
15.309095999999998,6.831129947467071,0.09755535485731175
15.311479999999998,6.853389164818872,0.09711405499208059
15.31388,6.875368842916955,0.09668752825109628
15.316264,6.8939959458282605,0.09631105945043357
15.318643999999995,6.906896285754034,0.09598188132540628
15.321048,6.9170031290004745,0.09567532669980515
15.323432,6.922546692246639,0.0954389414252966
15.325811999999996,6.928649334000245,0.09517432423890682
15.328216,6.931678939820795,0.09494403767352204
15.3306,6.938061120828122,0.09466644539229946
15.332979999999996,6.941649805156113,0.09440906229805412
15.335384,6.944167554297466,0.09416646836811154
15.337772,6.950689504931652,0.09388530274020614
15.340147999999996,6.956699598886641,0.09359174962607535
15.342543999999998,6.957215247281576,0.09337054286927506
15.344931999999998,6.953586924556819,0.09319502131605084
15.347312,6.949586514779724,0.09299872626129567
15.349716,6.9468893576147455,0.09281707112563163
15.352099999999998,6.947265236382821,0.09260394599774223
15.35448,6.947641115150897,0.0923910058571458
15.356884,6.941359065373665,0.092225362338268
15.359272,6.934657706715853,0.09207930716145032
15.361651999999998,6.926373556192204,0.09193115422568851
15.364056,6.920650584922413,0.09173711265530252
15.36644,6.922656477384567,0.0914826095049325
15.368819999999998,6.918656067607472,0.09128216274867658
15.371216,6.913864261897459,0.09108011272493655
15.373603999999998,6.91051547842642,0.09088674015490521
15.375984,6.908097860515161,0.09068722616587106
15.378388,6.904189998536683,0.09052123353033134
15.380772,6.902284237304623,0.09033677473368507
15.383151999999995,6.898376375326145,0.09017074171485125
15.385547999999998,6.889253607041334,0.09006064180464418
15.387935999999998,6.8790599035698845,0.08996261401194251
15.390332,6.871147840098572,0.08983257741525082
