Time,Force,Position
14.864363999999998,0.0,0.0
14.866751999999998,0.0,0.0
14.869131999999995,0.0,0.0
14.871531999999998,0.0,0.0
14.873919999999998,0.0,0.0
14.876299999999995,0.0,0.0
14.878695999999998,0.0,0.0
14.881083999999998,0.0,0.0
14.88348,0.0,0.0
14.885876,0.0018444349324354891,0.0
14.888264,0.004620035424649298,0.0
14.890643999999998,0.007535405543723318,0.0
14.893044,0.0075354055437233175,0.0
14.895432,0.007535405543723318,0.0
14.897811999999998,0.007535405543723318,0.0
14.900208,0.007535405543723318,0.0
14.902596,0.007535405543723318,0.0
14.904975999999998,0.010730314916517759,0.0
14.907376,0.01285428910267367,0.0
14.909764,0.01898246478166328,0.0
14.912143999999998,0.02897507232662638,0.0
14.91454,0.03882791024472927,0.0
14.916928,0.051102157789829655,0.0
14.919311999999998,0.0630968660812096,0.0
14.921716,0.07602273993236788,0.0
14.924104,0.08894861378352617,0.0
14.926484,0.10508729319460001,0.0
14.92888,0.12001526779217517,0.0
14.931268,0.1349432423897503,0.0
14.933652,0.14495374612183454,0.0
14.936055999999995,0.1603189257871115,0.0
14.938443999999995,0.17298315657167046,0.0
14.940824,0.1885627574753035,0.0
14.94322,0.2010693224458811,0.0
14.945604,0.21664892334951416,0.0
14.947988,0.23222852425314722,0.0
14.950384,0.24794789478364043,0.0
14.952772,0.25525744963500674,0.0
14.955151999999998,0.26470887485965017,0.0
14.957548,0.2662916667254864,0.0
14.959936,0.2607972211654335,0.0
14.962315999999998,0.2555823148591011,0.0
14.96472,0.24352248855235686,0.0
14.967104,0.23188197112619321,0.0
14.969487999999998,0.2203812233268898,0.0
14.97188,0.21167397220692133,0.0
14.974268,0.19553529279584744,0.0
14.976664,0.1806073181982723,0.0
14.979059999999995,0.1656793436006972,0.0
14.981447999999997,0.15382440493617744,0.0
14.983828,0.13568362477868673,0.0
14.986227999999995,0.12010402387505374,0.0
14.988612,0.10452442297142071,0.0
14.990996,0.09201785800084307,0.0
14.993392,0.07643825709721003,0.0
14.99578,0.06085865619357701,0.0
14.99816,0.04513928566308377,0.0
15.000556,0.03463482143892298,0.0
15.002944,0.02305942202812365,0.0
15.005328,0.015348454483297816,0.0
15.007724,0.010850292498387575,0.0
15.010112,0.006212360886617124,0.0
15.012491999999998,0.005997939648261006,0.0
15.014888,0.005643748783044678,0.0
15.017276,0.00421862273118982,0.0
15.019672,0.0,0.0
15.022067999999996,0.0,0.0
15.024455999999995,0.0,0.0
15.026836,0.0,0.0
15.029231999999997,0.0,0.0
15.031619999999997,0.0,0.0
15.034,0.0011455867981344382,0.0
15.036396,0.001145586798134438,0.0
15.038787999999997,0.001145586798134438,0.0
15.041168,0.0029900217305699273,0.0
15.043564,0.005905391849643947,0.0
15.045955999999997,0.010822862715134815,0.0
15.048336,0.014809168020847367,0.0
15.050735999999995,0.016933142207003274,0.0
15.053123999999997,0.02091944751271583,0.0
15.055508,0.022624112818291103,0.0
15.057903999999995,0.025399713310504914,0.0
15.060291999999995,0.03031718417599579,0.0
15.062676,0.036305590228125184,0.0
15.065071999999995,0.044296097026671435,0.0
15.067459999999995,0.05042427270566105,0.0
15.06984,0.05548151319801213,0.0
15.072235999999997,0.057325948130447626,0.0
15.074624,0.057325948130447626,0.0
15.077008,0.057325948130447626,0.0
15.079403999999997,0.057325948130447626,0.0
15.081792,0.05618036133231319,0.0
15.084172,0.06002689701116553,0.0
15.086571999999997,0.06987973492926843,0.0
15.08896,0.07402370604896233,0.0
15.09134,0.07523441086246108,0.0
15.093736,0.07444301492954296,0.0
15.096124,0.07458278455640319,0.0
15.098519999999995,0.07830744679551646,0.0
15.100924,0.08124071310171163,0.0
15.103312,0.08952865534109945,0.0
15.105687999999995,0.09688543202070894,0.0
15.108096,0.10317127351367993,0.0
15.11048,0.10638407907359551,0.0
15.112863999999998,0.10959688463351111,0.0
15.115267999999997,0.11388062538006524,0.0
15.117655999999997,0.11951484056697831,0.0
15.120036,0.1286414005675274,0.0
15.122432,0.1376102947540951,0.0
15.124816,0.14536848412716408,0.0
15.127199999999998,0.15643202685876573,0.0
15.129596,0.1695429963071581,0.0
15.131984,0.17838622533824827,0.0
15.134363999999998,0.18098704298887217,0.0
15.13676,0.19983319232056962,0.0
15.139148,0.24149005408003205,0.008300735810572201
15.141527999999996,0.2974845904306375,0.016009699975487415
15.143923999999998,0.3572944409611041,0.02423289879856475
15.146311999999998,0.4223626279104078,0.032747306729367015
15.148691999999995,0.49916008836875375,0.041181027795439105
15.151087999999998,0.5862438000971658,0.049436827104178196
15.153475999999998,0.6847319201105256,0.057521666185563466
15.155856,0.7866632672514093,0.06575898185541643
15.158251999999996,0.8974850652516262,0.07406986849287832
15.160639999999995,1.0110040204168227,0.08269875840242777
15.163024,1.1413273857705333,0.09108342828311852
15.165419999999996,1.2863605127677247,0.09923310397584166
15.167807999999996,1.4441485224902229,0.10718076662434252
15.170188,1.6129688534453313,0.11509946874307317
15.172591999999998,1.7963591764170599,0.12296380630954819
15.174979999999998,1.9883604109944018,0.1307891952379898
15.177359999999997,2.188602365982888,0.13847740852640614
15.179755999999998,2.3979255550015495,0.14594085687293495
15.182139999999997,2.612467442042282,0.15321208243301512
15.184524,2.8166777518425743,0.16036831852544678
15.186919999999995,2.992350586229572,0.15939610694250708
15.189307999999995,3.148750378972814,0.15914693158415405
15.191699999999996,3.304827202349831,0.15825672556861312
15.194095999999998,3.451176852964223,0.15707183798460297
15.196483999999998,3.5809090848452034,0.1559983760889895
15.198863999999997,3.694628302470588,0.15515560969096776
15.201259999999998,3.794661471810887,0.15455487441578558
15.203647999999998,3.890552565889361,0.15383172135751483
15.206028,3.9789962313474785,0.15308793542264587
15.208436,4.065534135573534,0.15195779577436666
15.210819999999998,4.133545068118379,0.15111372210515195
15.213203999999998,4.185775303833106,0.15051438469368988
15.215599999999998,4.222549707941807,0.15021753703135307
15.217987999999998,4.254949719363206,0.14983329775039145
15.220367999999995,4.27147648615587,0.14954591707116405
15.222768,4.274504196118551,0.14931742448599802
15.225151999999998,4.2711081908192705,0.14912068368833611
15.227535999999995,4.258772616974546,0.14917499379212687
15.229931999999998,4.244247950928299,0.14935421445216104
15.232319999999998,4.228605127867172,0.14962637878633714
15.2347,4.221622334097767,0.14969160698830183
15.237095999999998,4.222508173687173,0.14954876690442162
15.239487999999998,4.2210651514481965,0.1495532944884729
15.241867999999997,4.227536088538402,0.1494746126280478
15.244263999999998,4.240198423465092,0.1493413550783114
15.246651999999996,4.257376816563813,0.14911587582653316
15.249032,4.278140102274788,0.1488159269727882
15.251431999999998,4.302255963172537,0.148409456669151
15.253819999999996,4.334008140003617,0.14777726093624638
15.256215999999998,4.36538822978236,0.1471344464604327
15.258612,4.400492981800215,0.14641088955789655
15.261,4.434526798631432,0.14571159888228508
15.263379999999998,4.472704586582344,0.14488874400117685
15.26578,4.506878173040421,0.14418715655645478
15.268168,4.546079674349728,0.1434144729288013
15.270547999999998,4.590728399390844,0.14254578963467113
15.272944,4.626437555886515,0.14189694488649282
15.275332,4.660796237941827,0.14129337787087148
15.277711999999998,4.68686697775775,0.1409125549662292
15.280116,4.711075386454117,0.14057208516508912
15.282504,4.7372858958969,0.14018939921236007
15.284883999999998,4.758561038287072,0.1399307749606614
15.28728,4.780674798438405,0.1396043210459418
15.289668,4.797341334857928,0.13938691671736783
15.292047999999998,4.81098205717264,0.13918889790503688
15.294452,4.822108822061737,0.13902585144236945
15.29684,4.828999068032522,0.13892089517638265
15.299219999999998,4.831745342883615,0.13892671652822003
15.30162,4.826855301801377,0.13915126873692524
15.304008,4.821126642957977,0.13944023382740423
15.306392,4.81856356784625,0.13969894219561513
15.308788,4.824241213145666,0.13981142554988307
15.311176,4.829779088818223,0.139934404797123
15.31356,4.837970691543257,0.14001716045134335
15.315956,4.848723473522146,0.14001572458128186
15.318344,4.853609722888646,0.14013284321337285
15.320723999999998,4.860498073001563,0.14020584651806403
15.32312,4.873020638301392,0.14012084559803625
15.325508,4.896904181773665,0.1397657774857278
15.327892,4.922510286738635,0.1393871889230328
15.330288,4.943181024650992,0.13911618547158613
15.332676,4.971580626295298,0.13869716972105808
15.335055999999998,4.9962083438722455,0.1383999259220012
15.337452,5.022838162195609,0.13806012859021993
15.33984,5.054915204250783,0.13764148114011784
15.342223999999998,5.09029759966449,0.13719403083753376
15.34462,5.1314067580637275,0.13664033469484335
15.347008,5.172655686089825,0.13607123678085276
15.349387999999998,5.21646579336978,0.13541913379542742
15.351795999999997,5.25804148247784,0.1347765239410436
15.354184,5.290073198562641,0.13425823267719383
15.356564,5.310930927930101,0.1339340529246445
15.35896,5.329926326178004,0.13364212359978214
15.361348,5.345616371067376,0.13338550257994827
15.363727999999998,5.352646386665022,0.13329166851270194
15.366128,5.357162444837052,0.13322232101180514
15.368516,5.369547136367892,0.1329957157148584
15.370895999999998,5.378439483085094,0.13287037581535785
15.373292,5.386260894615659,0.13277570062957428
15.37568,5.393849988720745,0.13264733299397732
15.378059999999998,5.40372072282597,0.1324591704609214
15.38046,5.406281902079827,0.13238098527532666
15.382844,5.41382567021454,0.13215679472786143
15.385227999999998,5.422068286483554,0.13188709999574025
15.387624,5.422209951968284,0.13172708952871517
15.390012,5.41345927073581,0.13168011009501482
15.392408,5.40298602801064,0.13165063121972023
15.394803999999995,5.397867461218663,0.13150324057951673
15.397191999999997,5.3887446929338525,0.13143013234301715
15.399576,5.378550989462404,0.13138038333919513
15.401975999999998,5.373385200842184,0.13128520430615875
15.404363999999998,5.372875240020855,0.13111787599559505
15.406747999999997,5.369711552147052,0.13098368004465277
15.409143999999998,5.365104842034274,0.13084881413249788
15.411535999999998,5.362500232667911,0.13067327735356113
15.413915999999997,5.36576215591394,0.1303862791864219
15.416311999999998,5.3597124235621845,0.13024970680704884
15.418699999999998,5.3504971074787555,0.13013335844276466
15.42108,5.330247574304848,0.1301891762794961
15.423483999999998,5.305714300384386,0.1303485955269506
15.425871999999998,5.278759616836927,0.13058104694075262
15.428255999999998,5.251106085155167,0.1308709710115417
15.430651999999998,5.220519287167212,0.13121037555930012
15.433044,5.186579913992481,0.13163256649441768
15.435423999999998,5.155806124549423,0.13203942611316846
15.43782,5.132993516263788,0.13234332692979792
15.440207999999998,5.109621829470714,0.13268619669593712
15.442591999999998,5.081314775625028,0.13311713169540465
15.444988,5.0554291314063375,0.1334781209698971
15.447375999999998,5.031266048680345,0.13382081418312852
15.449759999999998,5.011107167447185,0.13407701037600378
15.452156,4.994021322147081,0.13426481147657088
15.454544,4.986154584646142,0.13425594031659
15.456927999999998,4.981593200503737,0.13421813827102674
15.459324,4.982479040093142,0.13410315515622415
15.461712,4.983597197108024,0.13402404937049722
15.464091999999996,4.994027009720688,0.1338024510304918
15.466492,5.012837312371358,0.1334564873848953
15.468875999999998,5.041191588045288,0.13299871607379388
15.471259999999996,5.0767156489437255,0.13244405483435184
15.473655999999998,5.116104141708136,0.1318205677418988
15.476043999999998,5.156423800032324,0.13117010473467114
15.478427999999996,5.202050912461461,0.1304678593818307
15.480823999999998,5.249400586383294,0.12974537575651574
15.483211999999998,5.295958864372211,0.129023896543638
15.485591999999995,5.343727847174626,0.1282808766771594
15.487987999999998,5.390984973297843,0.12752413909114238
15.490375999999998,5.437171164234422,0.1267901683752198
15.492759999999995,5.482798276663559,0.12609775909096196
15.495155999999998,5.5321500513318105,0.1253583315027008
15.497543999999998,5.5767062285743085,0.12470730790678525
15.499924,5.615675412458138,0.12414147329854694
15.502323999999998,5.646356654102578,0.12375232170730065
15.504711999999998,5.676106730187241,0.12338074964183185
15.507092,5.701992374405932,0.12307703621753144
15.509491999999998,5.72471243489295,0.12278817516470976
15.511875999999996,5.740774566834659,0.12260263452550237
15.514259999999997,5.747385273551723,0.122555964594886
15.516655999999998,5.748176669484641,0.12255245687312843
15.519043999999996,5.74515085537983,0.12255691008238753
15.521427999999997,5.739331544595682,0.12259894007309965
15.523823999999998,5.7372841178788905,0.12253920591575747
15.526211999999996,5.726064805191178,0.12259437325529537
15.528592,5.715125031757185,0.12263073375467375
15.530987999999995,5.708980855748944,0.12259615679192952
15.533375999999995,5.700182952688228,0.12258815331748507
15.535756,5.691524819254371,0.12257081501374385
15.538155999999995,5.681795750633877,0.12257514131043351
15.540543999999995,5.67327738682688,0.12254927334632905
15.542924,5.657729007422239,0.12259211392058328
15.545319999999997,5.64059783615176,0.12264224828634047
15.547708,5.629053658239952,0.12261930429573464
15.550088,5.61951158107456,0.1225635583689981
15.552487999999997,5.608526481670194,0.12250453153365455
15.554876,5.59567905114627,0.12247018713890495
15.55726,5.585205808421101,0.12242644895560839
15.559655999999997,5.576594896815489,0.12235841555522897
15.562043999999997,5.573850517822266,0.12219791762389243
15.564428,5.579626398493909,0.12191969244638205
15.566823999999997,5.59056996364364,0.1216000792467615
15.569215999999996,5.603795168793509,0.12123057892083312
15.571596,5.617392460995714,0.12089046562648074
15.573999999999998,5.635505811369952,0.12049849587291259
15.576383999999996,5.650825665064855,0.12014143760502957
15.578775999999998,5.6616294605877275,0.11983686918427171
15.58118,5.674947213536214,0.11951831478378726
15.583568,5.691849859096953,0.11916756588594342
15.585943999999998,5.715689972456721,0.11871603936866726
15.588348,5.740321481749407,0.11826609021345588
15.590736,5.7730539418263795,0.11773802802229796
15.593111999999998,5.813095956754714,0.11713632236261176
15.595508,5.849133770190218,0.11659827723117099
15.597896,5.888104849931917,0.11602481242286873
15.600271999999997,5.9262373119124545,0.11549930279123641
15.602667999999998,5.966232105012548,0.11494911071901015
15.605055999999998,6.007297833299279,0.11438371052895115
15.607436,6.053159159011764,0.11376569134179687
15.609839999999998,6.098740945470528,0.1131730135456287
15.612223999999998,6.133241293010569,0.11274606846584063
15.614604,6.158802072005164,0.11244508669393515
15.617007999999998,6.186876808425373,0.11213647462369604
15.619395999999998,6.209224781860055,0.11189598857945526
15.621775999999995,6.228639488988539,0.11169290518677485
15.624171999999998,6.251499319102416,0.11146594159756083
15.626559999999998,6.277804272201687,0.11121751594954525
15.62894,6.29652013119587,0.11105588197597059
15.631335999999996,6.308298522391024,0.11098941149250498
15.633719999999997,6.3102061794809545,0.1110560080457443
15.636115999999998,6.308389174331772,0.11116269139160648
15.638512,6.29963470138356,0.11136300134984387
15.640895999999998,6.287155566196235,0.11159935099415247
15.643279999999995,6.275887135822408,0.11181028969545784
15.645671999999998,6.260894043209469,0.11205864602528877
15.648059999999996,6.247530964290609,0.1122577484590036
15.650455999999998,6.236169986118165,0.11242824589359132
15.652859999999997,6.223226216079887,0.11260066079395986
15.655247999999997,6.2037642871231595,0.11283762490453526
15.657623999999998,6.184442127793292,0.11306382249844495
15.660027999999995,6.173268141075954,0.1131766045287133
15.662415999999997,6.168519765478445,0.1131856098364514
15.664796,6.155762986895269,0.11330245482391
15.667192,6.151014611297759,0.11331129082065937
15.66958,6.150410206819944,0.11325877940722569
15.67196,6.148362780103154,0.11320136889927157
15.674356,6.14259069114725,0.11318109718951257
15.676744,6.1425453651768755,0.11309690816589832
15.679123999999998,6.148506341445753,0.11293254417334245
15.681528,6.1624757207002965,0.11265997543656162
15.683916,6.181380467007453,0.11232549028389777
15.686296,6.204568954061164,0.11192145485233533
15.688699999999995,6.224684405181818,0.1115608093931734
15.691084,6.248664288168447,0.11115931129773914
15.693468,6.271433466341576,0.11078023493015418
15.695863999999997,6.295925206007402,0.1103933398321264
15.698248,6.319485780113449,0.1100192131924855
15.700627999999998,6.340764714219359,0.10968576411649016
15.703024,6.365908080191243,0.10930867039179723
15.705412,6.387187014297154,0.1089765761795974
15.707791999999998,6.406883156537228,0.10865206223994767
15.710196,6.4235062628442465,0.10837174937128446
15.712584,6.446694749897956,0.10798229008761703
15.714963999999998,6.461223207659942,0.10769048819668628
15.71736,6.470956067996175,0.10745068911182716
15.719748,6.4826910290788256,0.10718757895397918
15.722127999999998,6.499780666094668,0.10684592133118741
15.724524,6.5182207775508685,0.10647595474339513
15.726912,6.532284600461899,0.10613479578984229
15.729291999999996,6.5424839915069555,0.10583644098518195
15.731687999999998,6.550960821059316,0.1055500134379431
15.734075999999998,6.559717189865397,0.10525175475399873
15.736472,6.570755198671615,0.10491430575426357
15.738875999999998,6.5760664444923025,0.1046336139229894
15.741259999999995,6.5856614310595445,0.10429202374206362
15.74364,6.592742460201171,0.10396052913714043
15.746043999999998,6.598240697476963,0.10363050302272193
15.748427999999995,6.608022675499308,0.10324033514383543
15.750812,6.6117983512824035,0.10291785696367231
15.753207999999995,6.616784731878997,0.10257149022736434
15.755592,6.619349702848592,0.10227070410076945
15.757972,6.622845839377968,0.10196187153266272
15.760375999999995,6.6221980047876485,0.10170651120306354
15.762763999999995,6.62634576762308,0.10140412119426578
15.765144,6.637291228630682,0.10103413384611565
15.767543999999996,6.644232488145451,0.10071021515071182
15.769927999999997,6.643165344674551,0.10047695425862913
15.772312,6.638233769337678,0.10028115327562409
15.774707999999997,6.6347452162397795,0.10009188802539805
15.777092,6.632327598328521,0.09988758095915543
15.779476,6.628699275603763,0.09970563854610615
15.781875999999995,6.6187851113860345,0.09960439768864245
15.784263999999997,6.610733278287861,0.09948821253997522
15.786644,6.606685646682524,0.09932809064223026
15.78904,6.59956497914413,0.0992042564382283
15.791424,6.593095937911793,0.09908744187785083
15.793803999999998,6.589280623731933,0.0989563949071694
15.796208,6.585465309552071,0.09882583578871215
15.798596,6.589006772051819,0.09860354653719525
15.800976,6.593479400111347,0.09837433495280251
15.803372,6.600233668171009,0.0981101829923993
15.80576,6.607267475484395,0.09783225399310025
15.808144,6.616163613917337,0.09753996036377381
15.81054,6.6251995219771365,0.09724231728531771
15.812924,6.629300062984327,0.0969942520895201
15.815307999999998,6.63726503585749,0.09671290973147546
15.817711999999997,6.648814901342905,0.09641017201721329
15.820096,6.665300133880933,0.09606183624421731
15.82248,6.68327561048618,0.09568030750083611
15.824872,6.703253187837843,0.09528153274484204
15.82726,6.7205770381370336,0.09489382955730595
15.829656,6.7400427588094995,0.09447441057032945
15.832059999999998,6.757785917989269,0.09406394854140943
15.834447999999998,6.772735580489704,0.09367512285209581
15.836827999999995,6.788756178176778,0.09327287061948765
15.839223999999998,6.80584771105049,0.09285868996612509
15.841611999999998,6.821216682431505,0.09245281983829141
15.843992,6.834583553066103,0.09206886206603344
15.846396,6.846599949260343,0.09171628226224726
15.848783999999998,6.858756115081443,0.09135779494033283
15.851163999999995,6.8686306409024045,0.09103232179567668
15.853559999999998,6.88222982896248,0.0906867500282706
