Time,Force,Position
13.140652,0.23631836739893353,0.0
13.143048,0.24777189336999378,0.0
13.145436,0.2517760948628275,0.0
13.147816000000002,0.2597844978484949,0.0
13.150212,0.26285753378155025,0.0
13.1526,0.26886383602080083,0.0
13.154996,0.27636038232727056,0.0
13.157392000000002,0.27277548971501747,0.0
13.15978,0.2639756907964319,0.0
13.16216,0.2550361222509862,0.0
13.164564000000002,0.24488584889204174,0.0
13.166952000000002,0.23152276997318172,0.0
13.169332,0.21722852549454338,0.0
13.171728000000002,0.20558800806837976,0.0
13.174116,0.19301632508243782,0.0
13.176496,0.17816300209635863,0.0
13.178904,0.16391670369823316,0.0
13.181292,0.14659736936705234,0.0
13.183672,0.12834686947609308,0.0
13.186068000000002,0.10981683033141348,0.0
13.188452000000002,0.0915663304404543,0.0
13.190836,0.0773200320423288,0.0
13.193232000000002,0.06786933106995513,0.0
13.195620000000002,0.0562767597243044,0.0
13.198,0.045894893192152404,0.0
13.200396,0.03551302666000042,0.0
13.20278,0.025131160127848433,0.0
13.205164,0.019684660648308473,0.0
13.20756,0.017450966728684097,0.0
13.209948,0.013215172062642874,0.0
13.212332,0.01005031258324018,0.0
13.214728,0.007816618663615807,0.0
13.217116,0.005582924743991436,0.0
13.219496,0.0026976045183091627,0.0
13.221896,0.0007434498524052108,0.0
13.224284,0.0,0.0
13.226664,0.0,0.0
13.22906,0.0,0.0
13.231448,0.0,0.0
13.233844,0.0,0.0
13.236240000000002,0.0,0.0
13.238628000000002,0.0,0.0
13.241008,0.0,0.0
13.243404000000002,0.008510056123249139,0.0
13.245792000000002,0.031310565009398175,0.0
13.248172,0.06444454699385654,0.0
13.250572000000002,0.10460664871809161,0.0
13.252960000000002,0.15524199316749618,0.010335167742520187
13.25534,0.2170947544467453,0.02032134662541839
13.257736,0.2929584292351739,0.029795177746873402
13.260124,0.3816695345475264,0.03888938365975708
13.262508,0.484066688144964,0.047527731613440996
13.264904,0.5893479903624844,0.05649987984717425
13.267292,0.6976059889987046,0.06589541535600275
13.269672,0.8192232748380465,0.0750432792901077
13.272068,0.9531761345221145,0.08395101521794474
13.274456,1.0993720202522916,0.09257923207524085
13.27684,1.24952298978919,0.101383646016869
13.279236,1.4085171883571785,0.11021739090617104
13.281624,1.5810104437551489,0.11890295946891961
13.284008,1.7701230137443995,0.12726294008625216
13.286404,1.971153744555665,0.13535080206154076
13.288792,2.176980072792682,0.14329616561247022
13.291184,2.371922157107696,0.1512761256278174
13.293584,2.5487093567938364,0.15937440350406357
13.295972,2.71860820636706,0.16739609166646033
13.298356000000002,2.8859949943725387,0.17530526273803307
13.300752,3.04253645260051,0.17284970241738623
13.30314,3.185114219147546,0.17074678356477824
13.30552,3.3083736180804526,0.16928188721545373
13.307916000000002,3.4166437161161585,0.1682783779240291
13.310304000000002,3.507735421053143,0.1678862915382865
13.312688,3.5990160133030997,0.16704817801408153
13.315084000000002,3.690952023574853,0.16562135242860673
13.317472000000002,3.7665954803372887,0.1645353954149755
13.319856,3.8327894077329514,0.1636691670585813
13.322252,3.8874844831871798,0.1631429449313959
13.324640000000002,3.9451619426337157,0.16222062042334498
13.32702,3.9931122293176258,0.1612232542721475
13.329416000000002,4.027331141746077,0.16033073859696778
13.331804000000002,4.045070509210109,0.15975028458662552
13.334188,4.0496810110386265,0.1594935105667159
13.336584000000002,4.0477733539486955,0.15941510643955747
13.338972000000002,4.043072200179431,0.15941345100053164
13.341356,4.036368945663748,0.15948439254257762
13.343748,4.025661489655231,0.1596912090382226
13.346136,4.012532624019719,0.1600002898003894
13.34852,4.003872594727993,0.16026000693444206
13.350916000000002,3.9978190706604995,0.1605304195727731
13.353304,3.9950708999515387,0.16074424581016947
13.355700000000002,3.9979097226012477,0.16079634280710622
13.358096,4.007686013049985,0.16061561818687187
13.360484,4.018533238685361,0.16040432274272604
13.362868,4.0240257883875445,0.16039468278732694
13.365264,4.029937646970309,0.16034053550938684
13.367652,4.030309734022647,0.1603708352093445
13.370036,4.031148351783808,0.16028633243949464
13.372432,4.023978566559302,0.16046191234292706
13.37482,4.01741318581261,0.1607114985337663
13.377204,4.006144755438784,0.16116895771267012
13.3796,3.993525850624599,0.16169746873024252
13.381984,3.9854230039824454,0.16210656850804972
13.384368000000002,3.9826276114452415,0.16238582680699973
13.386764,3.989795500811878,0.1624099465396647
13.389152,4.011257634657153,0.16195605000693525
13.391532000000002,4.028623019210978,0.16156092926348173
13.393928,4.041100258540433,0.1612494484302213
13.396316000000002,4.05017959671274,0.1609491230927961
13.398696,4.059957783019347,0.16058055986467193
13.401096,4.072017609326091,0.16011607181689683
13.403484,4.079468829662187,0.15971233541819616
13.405864,4.0858963366398875,0.15928519272028818
13.408260000000002,4.086829398057535,0.15906424624590618
13.410648000000002,4.092278517647213,0.15873679623979758
13.413032,4.099310429102729,0.15838384026740424
13.415428000000002,4.10927560686444,0.15794043452994722
13.417816000000002,4.117238683879733,0.1575613368194854
13.4202,4.126272696081665,0.1571420617322747
13.422596000000002,4.137308809030014,0.15666146156975785
13.424984000000002,4.159426360897085,0.15583163044969817
13.42738,4.180380429778902,0.15497119466810105
13.42978,4.196586123063209,0.15418401232495907
13.432168,4.209206923735263,0.1534907999922823
13.434548,4.218103062168204,0.15290666557909863
13.436944,4.21791986242884,0.1526058203633761
13.439336,4.224813900115364,0.15209308322340787
13.441716,4.234920743361803,0.15146919138070497
13.444116,4.239253601794471,0.151058982542236
13.446504,4.244330634331812,0.15071025705113783
13.448884,4.251781854667907,0.15033590291395715
13.45128,4.262398658735675,0.14992557061775993
13.453668,4.269942426870387,0.1496118743327006
13.456052,4.282840870938294,0.14912713629814955
13.458448,4.296670480565978,0.1486327847167311
13.460836,4.317437557992691,0.1479654612328438
13.463216,4.337273469859626,0.1473197762244166
13.465612,4.356178216166781,0.14668970461005443
13.468,4.376805523966633,0.1460340268857718
13.470380000000002,4.396501666206708,0.14540452304658827
13.47278,4.41005173658067,0.14495970302741865
13.475168,4.427186699566887,0.1444465104426406
13.477552,4.442831418485885,0.1439948322670614
13.479948,4.457265432591383,0.14358549369273568
13.482336,4.4730026993089975,0.14318962628869492
13.484716000000002,4.4901829882655875,0.14279058656797128
13.487112,4.505361176475763,0.1424505673902089
13.4895,4.520399595059075,0.14212517882057552
13.491884,4.543818503680392,0.141615897284799
13.49428,4.567796490809151,0.1410635243251533
13.496668,4.589679829392876,0.14051868417940266
13.499052,4.60690734017771,0.1400704703184133
13.501448,4.623575772455102,0.1396669610529771
13.503836,4.6347497591724425,0.13943527383415233
13.50622,4.64084860921031,0.13933672049308343
13.508616,4.642803488128483,0.1393508515556415
13.511004,4.645270223725856,0.13938129040000963
13.513388,4.651973478241539,0.13935418774205363
13.515788,4.658257423876639,0.13936199996231152
13.518176,4.668405801377715,0.13928804217567917
13.520556,4.680416509998347,0.13917958457617577
13.522956,4.694941176044593,0.13904514071962812
13.525344,4.716123770636148,0.13877834586636878
13.527728,4.743172897840093,0.13839010576207478
13.530124,4.767987606872144,0.13801277610203047
13.532512,4.792942085531056,0.13762700090865693
13.534896,4.820130982361861,0.1372405635877079
13.537292,4.847272657364423,0.13691293120007506
13.539684,4.876975511620843,0.13651419275977045
13.54206,4.9037450995710685,0.13617542013024972
13.544452,4.93060723531991,0.13588681480059392
13.546836,4.960634954800426,0.1355718866301919
13.549232,4.995458271706691,0.13516829077448178
13.551624,5.034285790105791,0.13467740537969727
13.554012,5.077257279624585,0.13409141379034958
13.556404,5.115433171717627,0.13359393578658726
13.558796,5.155471394930225,0.13306648022453973
13.56118,5.19178495590371,0.13260423039317284
13.563564,5.2258640987053,0.1321468480002736
13.56596,5.255427183334862,0.13176841019429725
13.568344,5.282057001658224,0.13144842729683787
13.57074,5.302960056996059,0.13123454281368344
13.573136000000002,5.320929846027698,0.13108136021269737
13.575524,5.334104037633585,0.13101707671983787
13.577904,5.346998689985752,0.1309729307702023
13.5803,5.36003311196478,0.13091991442010045
13.582684,5.368411706144915,0.13094131055735794
13.585068,5.379910558086349,0.13084459870972287
13.587472000000002,5.382609611109199,0.13090990922425774
13.589856,5.392385901557937,0.1308364667665737
13.59224,5.402861040140976,0.13071550341801352
13.594644,5.416176897231591,0.13050153295003417
13.597028000000002,5.427118566523455,0.13030382098388713
13.599408,5.434894652083644,0.1301237283514412
13.601812,5.437223513912025,0.13001560457495165
13.604196000000002,5.443556577233239,0.12983346978467786
13.606576,5.447515452755698,0.12966423771926497
13.60898,5.452685033091658,0.12946173531557498
13.611364000000002,5.460927649360672,0.1292003118003304
13.613744,5.46623699932349,0.1289877573926339
13.61614,5.471965658166891,0.1287456647854365
13.618528,5.47797385626401,0.12848203136065467
13.620908,5.477324125815821,0.12832432816319805
13.623312000000002,5.477093704248213,0.1281373921494919
13.625700000000002,5.479284692307603,0.1278841832565656
13.62808,5.481755219620712,0.127613091392305
13.630472,5.485715991001041,0.12728783028943638
13.63286,5.485393021634816,0.1270584148971314
13.63524,5.490145188948063,0.12673036536973442
13.637636,5.486097557342726,0.126556580491606
13.64002,5.479908055364109,0.12642895829991144
13.642416,5.469434812638941,0.12639279827665975
13.644808,5.4558885339807155,0.12641578375882181
13.647196,5.445275521628686,0.12638788208038543
13.649576,5.439737645956129,0.12626481716871849
13.651972,5.433408374350653,0.12614533297909894
13.65436,5.429732829797652,0.1259960059808054
13.656752,5.4283389252447884,0.1257931862873818
13.659152,5.426293394385866,0.1255855858546157
13.661536000000002,5.433466971326111,0.12521236137212127
13.663916,5.441571713826135,0.12482681628989532
13.66632,5.455403219311687,0.12436090344290268
13.668708000000002,5.484320365208797,0.12364505115339929
13.671088,5.513237511105906,0.1229317645656851
13.673492,5.539081621069961,0.1222768442263894
13.675876000000002,5.562224782153297,0.12169998213690367
13.678256,5.588533526968306,0.12111551750320497
13.68066,5.612840171036899,0.12055751113441747
13.683048,5.636355419172572,0.12000921795211174
13.685428000000002,5.662803933614441,0.11941248086423145
13.687824,5.692697571041703,0.11878937122794914
13.690212,5.723662143655602,0.11814432629543077
13.692592,5.755837421083002,0.11746531221479482
13.694988000000002,5.783589188136987,0.11688009831937682
13.697376000000002,5.81050233742981,0.11635600677840781
13.699756,5.839138048215329,0.11582207891270273
13.70216,5.86805329825457,0.11527851540177929
13.704544000000002,5.896689009040091,0.11476048078897695
13.706924,5.925557037251087,0.11428064184280233
13.709328,5.9457178143421165,0.11397140015979515
13.711712000000002,5.966390448112343,0.11367837728924901
13.714092,5.982127714829958,0.11345851414567537
13.7165,5.983710506695794,0.11345465720895333
13.718884,5.986876090427466,0.11344716908044854
13.721264,5.990833070092056,0.11343778391922846
13.72366,5.997630768264225,0.11334920398101982
13.726048000000002,6.002845674570556,0.11326524033849993
13.728428,6.015789444608835,0.11308450915586926
13.730832,6.02524086983348,0.1129753521087076
13.73322,6.037625561364317,0.11282951388136922
13.735600000000002,6.051500496962376,0.11264471750852778
13.738004,6.067097994053131,0.11244996188465238
13.740388,6.0869320100621955,0.11223350598360295
13.742772000000002,6.1089078964445385,0.11197962842498617
13.745168,6.127438659841486,0.11174753738941937
13.747552,6.147040358425074,0.11150198608785723
13.749932,6.162218546635248,0.11133475678106887
13.752336,6.175534403725866,0.11118770364419321
13.754724,6.18433420264445,0.11107907202998518
13.757104000000002,6.193553310443617,0.11094460906833478
13.7595,6.205054058242921,0.11076875484318272
13.761888,6.218556906788641,0.11056621880257503
13.764272000000002,6.240207927946889,0.11024677978313155
13.766668,6.260927783545357,0.10993918172761477
13.769052000000002,6.282578804703606,0.10962296991171544
13.771432,6.302460042540913,0.10936536841284616
13.773832000000002,6.319547783698887,0.10913566358224341
13.776216000000002,6.333050632244607,0.10893884349945171
13.7786,6.349766286350244,0.10869021920145183
13.780996000000002,6.363548674149684,0.10847911837959798
13.783384000000002,6.370393594150095,0.10835522937029558
13.78578,6.376586887844449,0.10822570699409423
13.788176,6.379614597807131,0.10810149892646789
13.790564,6.387857214076146,0.1079055028621018
13.792944000000002,6.399312635905075,0.10766108341174853
13.795344,6.406763856241171,0.10746702454071384
13.797732,6.419569752510459,0.10719351191747471
13.800112000000002,6.435308915085943,0.10688982162404634
13.802508,6.454772739900539,0.10655138213902698
13.804892,6.477169831021332,0.10617975862002668
13.807276000000002,6.496493886209068,0.10585121125565355
13.809676,6.516609337329722,0.10552437653262119
13.812064,6.533232443636742,0.10526157039489073
13.814444000000002,6.548272758077925,0.1050005446080933
13.81684,6.565454942892385,0.1047114562736673
13.819228,6.583196206214286,0.10439282472212842
13.821608,6.605453527708217,0.10404274734966244
13.824012,6.628502245135067,0.10369536877064774
13.8264,6.651550962561917,0.10335015043881333
13.828780000000002,6.6753910759216835,0.10300553683198281
13.831176,6.702676312266846,0.10264206363008191
13.833564,6.726748743052092,0.10232362744656116
13.835948000000002,6.749051390516397,0.10205632439337463
13.838344,6.764137030927954,0.10188237880253667
13.840732,6.780665693578484,0.10171715842878604
13.843112,6.798125521788796,0.10154389456314736
13.845512,6.8122327748123315,0.10142379061598286
13.8479,6.824337927089449,0.10132746371975736
13.85028,6.837793553806926,0.10120374338332934
13.852676,6.851249180524404,0.10108097665042333
13.855064000000002,6.865775742428519,0.10094439460318964
13.857444,6.877648577280159,0.10082288166836276
13.859844,6.893013756945437,0.10064594241242023
13.862228000000002,6.907819858103273,0.10049632755739647
13.864624,6.918481988141415,0.10039709347743825
13.86702,6.9325892411649495,0.10028491707369577
13.869404,6.946976033442205,0.10016103079412036
13.871788000000002,6.958569329040126,0.10005832568042047
13.874188,6.972164725384463,0.09993670299275305
13.876576,6.9848289561690216,0.09982209755635546
13.878956000000002,6.995118999154825,0.09970686714557198
13.88136,7.009413243633464,0.09955097061145432
13.883744,7.027199832925739,0.09934089951792888
13.886124000000002,7.047128292591291,0.09910265665739704
13.888532,7.06333209001773,0.09889246236679897
13.890916,7.082608923377224,0.09865033434083131
13.8933,7.103096461550216,0.09838848646899574
13.8957,7.12130235972307,0.09816008122428875
13.898088,7.140299653828844,0.09793526176458395
13.900468,7.160228113494396,0.09770580611182901
13.902872000000002,7.179504946853888,0.09747084741007489
13.905256,7.2026462120793555,0.09720544933728383
13.907636,7.2227144413717665,0.0969747209772378
13.910040000000002,7.247345950664453,0.096681096204354
13.912428000000002,7.275609574397636,0.09633132847065508
13.914808,7.298565744025869,0.09600727777604934
13.917212,7.317657481788129,0.0957159578383958
13.9196,7.339682485856583,0.09540131957533843
13.92198,7.353838856566231,0.09515349052383613
13.924376000000002,7.3673436009698205,0.09489860162798047
13.926764000000002,7.383781611679605,0.09461926143326475
13.929144,7.397705664963775,0.09434611430742545
13.931540000000002,7.40897599119547,0.094085513587917
13.933928000000002,7.419175382240526,0.09383699598723072
13.936308,7.427512442166027,0.09359878069148855
13.938708000000002,7.4310539046657755,0.09339729843371336
13.941096000000002,7.433943740859466,0.09318930570547997
13.943476,7.436601259627679,0.0929539601347161
13.945872,7.4333922457835016,0.09276689627726273
13.94826,7.429531605633267,0.09257339011111679
13.950644,7.4255311958561725,0.09238633044725357
13.953048,7.414872857533768,0.09224553012880674
13.955432000000002,7.402352188091808,0.09211586155180206
13.957816,7.385035921224096,0.09202033671189533
13.960212000000002,7.362225208796332,0.09199099042777699
13.962600000000002,7.340205892301486,0.09196227177491882
13.96498,7.315532848754165,0.09194425385179687
13.967376000000002,7.28727491259459,0.09194127784024583
13.969764,7.267165149047543,0.091860373411261
13.972144,7.2450532847540785,0.09179704716302305
13.97454,7.2221500245276955,0.09173181832425376
13.976928,7.20096932579401,0.0916609771584665
13.979308,7.18286166299338,0.09155934660676554
13.981708,7.166104474633107,0.09143249032655823
13.984092,7.152560091832752,0.09126932723240222
13.986476,7.137153377912839,0.09111641072884902
13.988872,7.11960479361965,0.09098701067722852
13.991256,7.103918540446017,0.09084573637837069
13.993636000000002,7.094518128765356,0.09063857792939206
13.996036,7.0840467818980555,0.09044327963496056
13.99842,7.072504499844117,0.09025951082782362
14.00082,7.062964318536595,0.09005720760714397
14.003216000000002,7.056497173162128,0.08982520360150953
14.005604000000002,7.053475150773055,0.08958473762831465
14.007984,7.054876638757395,0.08928950859273853
14.01038,7.057488831555234,0.08897571660653344
14.012768,7.065827787338603,0.08862291900429636
14.015152,7.074818369428031,0.0882769372601707
14.017548,7.079804750024624,0.08796700614573133
14.019936,7.08986626730069,0.0876114419015164
14.022316,7.1008589501365345,0.08725223131279904
14.024712,7.111991402599239,0.08688848206017305
14.0271,7.119351970994587,0.08658616771495192
14.02948,7.125501834576435,0.08630184570442656
14.03188,7.135516130024258,0.08599394699931592
14.034264,7.152328123644249,0.08563920646442501
14.03666,7.171142218010658,0.08526778203744387
14.039052000000002,7.1927498090564015,0.0848852144558023
14.04144,7.209282263422672,0.08454778431414893
14.04382,7.222881451482748,0.08422988679936817
14.046216,7.238622509916102,0.08389062493905645
14.0486,7.261021496894763,0.08351539675368758
14.050996,7.281278613500148,0.08316302848923757
14.053392000000002,7.298742233426197,0.08282535089704444
14.055776000000002,7.316857479658304,0.08249864277651403
14.058156,7.337905992196607,0.08215571488669399
14.060556000000002,7.358814735108048,0.08182238560101253
14.062944000000002,7.379723478019491,0.08148844920079498
14.065324,7.40235478242363,0.08115289824914311
14.067724000000002,7.422704446827631,0.0808465368727571
14.070108,7.441983176044993,0.08055206500534239
14.072488,7.458049099702441,0.08028848909007331
14.074884,7.472811770747772,0.08000687866321769
14.077268,7.4927893480994365,0.07968275943948522
14.079664,7.505829457652072,0.0794067354441126
14.082060000000002,7.513934200152095,0.0791637681772893
14.084444,7.523109877838756,0.07891172625960652
14.086824,7.527350188472806,0.07869196978829565
14.089228000000002,7.531171190226274,0.07848932663023216
14.091616000000002,7.538856623845717,0.07826468458879562
14.093992,7.543329251905244,0.07806993193919476
14.096396000000002,7.540864412165742,0.0779211031310508
14.098784000000002,7.541472608359296,0.07774907473606929
14.101164,7.54100986936621,0.07758628573645238
14.103560000000002,7.535471993693653,0.07746050446187579
14.105948,7.5245794420879015,0.07738385113349737
14.108328,7.509682688989318,0.07733412899867305
14.110724,7.497858971823789,0.07726077805965843
14.113112,7.4831019883520655,0.07720446316104383
14.115504,7.46913640081326,0.07715037454912872
14.117900000000002,7.455031043647593,0.07710199764265895
14.120288000000002,7.4439987224149835,0.0770304082198476
14.122668,7.439344790473961,0.07693927922036893
14.125072,7.429336182599745,0.07689595219914652
14.127456000000002,7.42598550327084,0.07682180239929737
14.129836,7.428501356554324,0.07671504498421584
