Time,Force,Position
15.62666,0.0041001956641730265,0.0
15.629048,0.004547768573096304,0.0
15.631428,0.00485557185515937,0.0
15.633824,0.007817102189697188,0.0
15.636208,0.008776531777818154,0.0
15.638592,0.008776531777818154,0.0
15.640988,0.008776531777818154,0.0
15.643372,0.008776531777818154,0.0
15.645756,0.008776531777818154,0.0
15.648152,0.008776531777818154,0.0
15.65054,0.008776531777818154,0.0
15.652920000000002,0.008776531777818154,0.0
15.655316,0.008776531777818154,0.0
15.657704,0.008776531777818154,0.0
15.660084,0.008897343604777862,0.0
15.662488,0.00889734360477786,0.0
15.664876,0.007518605136076263,0.0
15.667256000000002,0.007071032227152986,0.0
15.66966,0.005692293758451389,0.0
15.672048,0.0052447208495281115,0.0
15.674428,0.004797147940604834,0.0
15.676832,0.004349575031681557,0.0
15.67922,0.004302353203438406,0.0
15.6816,0.0037432746959975643,0.0
15.683996,0.008399102494889166,0.0
15.686384,0.018158331001595647,0.0
15.688764,0.027917559508302128,0.0
15.691164,0.03553491764173155,0.0
15.693548,0.04101040540188391,0.0
15.695932,0.04634612353517606,0.0
15.698328,0.04967974092205135,0.0
15.700716,0.0510112575625098,0.0
15.703096000000002,0.0536932486433272,0.0
15.7055,0.0563752397241446,0.0
15.707884,0.05625442789718489,0.0
15.710268,0.057725714164503554,0.0
15.71266,0.05919700043182221,0.0
15.715048,0.059457581885642125,0.0
15.717432,0.05971816333946204,0.0
15.719828,0.05971816333946204,0.0
15.722216,0.059978744793281955,0.0
15.724596000000002,0.059978744793281955,0.0
15.726992,0.059718163339462046,0.0
15.72938,0.057315711512365065,0.0
15.731776,0.0517004541253525,0.0
15.734172,0.04194122561864601,0.0
15.73656,0.032181997111939524,0.0
15.738944,0.025104759686050436,0.0
15.74134,0.02016939263343842,0.0
15.743728,0.01751566558096367,0.0
15.746108,0.017795204834684088,0.0
15.748504,0.023010111141016535,0.0
15.750892,0.02473267263371296,0.0
15.753276,0.029668039686324983,0.0
15.755672,0.04021866412594957,0.0
15.75806,0.045433570432282015,0.0
15.760444,0.047715210432419296,0.0
15.76284,0.05134732487291552,0.0
15.765228,0.0571213096866888,0.0
15.767612,0.061014005581004935,0.0
15.770008,0.061433314461585564,0.0
15.772396,0.06490670147532109,0.0
15.77478,0.06490670147532107,0.0
15.777184000000002,0.06490670147532107,0.0
15.779568,0.06490670147532107,0.0
15.781948,0.06490670147532107,0.0
15.784352000000002,0.06490670147532107,0.0
15.786740000000002,0.06436658076778073,0.0
15.78912,0.0638264600602404,0.0
15.791516,0.06114446897942301,0.0
15.793904,0.057531312338827294,0.0
15.796284,0.0509848893920364,0.0
15.798684000000002,0.04658033681852257,0.0
15.801068,0.03896297868509315,0.0
15.803452,0.028412354245468563,0.0
15.805848,0.021726161671817464,0.0
15.808236,0.017973235404361534,0.0
15.810616,0.014080539510045393,0.0
15.813020000000002,0.008045973242452193,0.0
15.815404,0.004153277348136054,0.0
15.817788,0.0034733870137355076,0.0
15.820184,0.0,0.0
15.822572,0.0,0.0
15.824952,0.0,0.0
15.827348,0.0,0.0
15.829736,0.0009594295881209665,0.0
15.832116,0.0009876936164636124,0.0
15.83452,0.0042287632047218505,0.0
15.836908,0.004536566486784917,0.0
15.839292,0.004536566486784917,0.0
15.841688,0.004536566486784918,0.0
15.844076,0.004536566486784918,0.0
15.846456,0.004536566486784918,0.0
15.848860000000002,0.006566931261544414,0.0
15.851248000000002,0.009388691969222021,0.0
15.853628,0.01235022230375984,0.0
15.856028000000002,0.01810524931763262,0.0
15.858412,0.02586237707792225,0.0
15.860796,0.03147763446493481,0.0
15.863192000000002,0.04016592778500277,0.0
15.86558,0.0479230555452924,0.0
15.86796,0.055400644051861604,0.0
15.870356,0.06502010293170787,0.0
15.872744,0.07449979218469394,0.0
15.875124,0.08290854625104147,0.0
15.87752,0.09063740998298846,0.0
15.879908,0.10036837446135229,0.0
15.882288,0.10674676375294032,0.0
15.884688,0.12313565677661259,0.0
15.887076,0.13955281382862755,0.0
15.889472,0.1567613668135606,0.0
15.891868,0.1769031861046888,0.0
15.894256000000002,0.19718477502267723,0.0
15.896636,0.21050063211329414,0.0
15.899032000000002,0.22009182696479776,0.0
15.901424,0.2275411514430243,0.0
15.903804,0.22940348256258095,0.0
15.906212,0.22926371293572076,0.0
15.9086,0.2303346481223593,0.0
15.910980000000002,0.22404880662938834,0.0
15.913376,0.2165522603229186,0.0
15.915764,0.20961479252388973,0.0
15.918148,0.19999533364404345,0.0
15.920544,0.1905156443910574,0.0
15.922932,0.1834384069651683,0.0
15.925312000000002,0.17475011364510037,0.0
15.927716,0.16499088513839388,0.0
15.930104,0.1553714262585476,0.0
15.932484,0.13867472995281224,0.0
15.934884,0.12225757290079732,0.0
15.937268,0.10504901991586428,0.0
15.939648000000002,0.08490720062473607,0.0
15.942048,0.06462561170674765,0.0
15.944432,0.049279389841371236,0.0
15.946812,0.036866434282190004,0.0
15.949208,0.026990012603358225,0.0
15.951596000000002,0.03233520924720467,0.0
15.95398,0.04345059898908592,0.0
15.956372000000002,0.06746064108313418,0.0
15.958760000000002,0.10157183885001453,0.0
15.96114,0.14680790564812235,0.01130961776436514
15.963536,0.202842080395494,0.022102617687388713
15.965924,0.2724035760011901,0.03212159543424421
15.968308,0.3559306591456918,0.041355760219437654
15.970704,0.4463650502030103,0.050443900464584045
15.973092,0.542225811334369,0.05975797440795972
15.975488000000002,0.647069571123678,0.06904482575363247
15.977884,0.7628984303173543,0.07817242893624837
15.980272,0.8900391499973614,0.08700673465633098
15.982652000000002,1.0251391549769233,0.09580981343417494
15.985048,1.167359827494879,0.10470897130913254
15.987436,1.324010722402595,0.11340068677960456
15.989816,1.4945799830208732,0.12190237514401664
15.992212000000002,1.6750180818865064,0.13025146966570572
15.994600000000002,1.8628582834021228,0.13844222170501733
15.99698,2.052305922157084,0.14654614988604261
15.999376000000002,2.229465208895562,0.15463513297582895
16.001764,2.4057896695886174,0.16255916649254645
16.004148,2.5726646009148983,0.17043357572507778
16.006544,2.7361435269418988,0.17820080083782475
16.008932,2.8885448057659153,0.17466359841651688
16.011328,3.0294963503346093,0.17161174811731414
16.013724,3.1546671980731844,0.16941056843798516
16.016108,3.2621477960338408,0.16809988716111215
16.018488,3.3621809653741406,0.166923087895561
16.020892,3.4594225338929743,0.16552548334398606
16.02328,3.5494036652465537,0.1641168006529886
16.025660000000002,3.6313329635019613,0.16277574650519952
16.02806,3.7031138842562936,0.16174784674484535
16.030448,3.7666559804573505,0.16077936335567244
16.032824,3.8202839124406793,0.15979234531515293
16.035228,3.857107434235493,0.15904874262848195
16.037616,3.8773588632672693,0.15856164030070247
16.039996000000002,3.890674720357886,0.15813155350538083
16.042392,3.8957970788656016,0.1578718601503349
16.04478,3.894121739201148,0.15783579264328315
16.047164,3.8893733636036396,0.1579154125010405
16.04956,3.8779670594608224,0.15820297792211246
16.051948,3.862836093078892,0.15860115337126665
16.054328,3.848868609682217,0.1590042918046061
16.056732,3.837367861882914,0.159434578029625
16.05912,3.824888726695589,0.15997162806503157
16.0615,3.8198589159864906,0.1602877144287554
16.063896,3.8179946890090655,0.1605582934901255
16.066284,3.8137090524046418,0.16094589811597895
16.068664000000002,3.812915760613855,0.16117059599577138
16.071068,3.813472943263426,0.16132234302789014
16.073456,3.8092345284872455,0.16161990776107021
16.075836,3.8029014651660313,0.1619251076814502
16.078236,3.797639337031456,0.16218930503074425
16.080624,3.7982437415092702,0.16226597566930845
16.083008,3.802293268972478,0.1622660138731586
16.085404,3.811929789794356,0.16210816877220838
16.087792,3.818073965802597,0.16210206736879015
16.090176,3.8291062870352075,0.16201323938840956
16.092572,3.847168623865463,0.16175468845772645
16.09496,3.8692351621885535,0.16135760607054536
16.09734,3.895026362750757,0.1608564028814471
16.099736,3.9201659370069026,0.1603418744050631
16.10212,3.9417206186507947,0.15992956706427816
16.104504000000002,3.963974148428987,0.15944761485943806
16.106908,3.9901393319013976,0.15877723632634255
16.109296,4.0083433342163834,0.15830450705942786
16.11168,4.030179450971866,0.15767556442747724
16.114076,4.056718617354482,0.15684846098337663
16.116464,4.07767079037843,0.15618838039851474
16.118844,4.095549927469321,0.155639551398452
16.12124,4.11543116530663,0.15502361746952215
16.123628,4.1362435687037165,0.15438019142849072
16.126012,4.157195741727663,0.15372755136113392
16.128408,4.178799541057668,0.15309866613230827
16.130796,4.2002635707608125,0.15248934184512078
16.13318,4.217211542291926,0.15198859583712931
16.135576,4.235417440464781,0.15136894259536515
16.137964,4.24701263192057,0.15085808626658687
16.140344,4.2597259803912415,0.15025486348773853
16.142748,4.275931673675549,0.1495364929110443
16.145136,4.289623409534242,0.14886244603966356
16.147516,4.305596785393071,0.14810461075135967
16.149912,4.323292722744598,0.14732065794435445
16.1523,4.344713322335238,0.14646974522037423
16.154684,4.3635727426720194,0.14573176073349814
16.15708,4.3815935452476396,0.1450496038281129
16.159468,4.396261772636486,0.14448727282889642
16.161848,4.408368820771473,0.1440349099084613
16.164248,4.42606286226513,0.1434684925753354
16.166632,4.44324504707959,0.14288549946829335
16.169016,4.459635835961132,0.14231038512267116
16.171412,4.475095459282896,0.14175355965485534
16.173796,4.488133672977661,0.1412842995562352
16.17618,4.498518159619952,0.14087085415402953
16.178576,4.5043865880902105,0.1405419333424974
16.180964,4.5098357076798905,0.14024644812803355
16.183344,4.51216456950827,0.1401020093859247
16.185744,4.5193815765610195,0.13989634610145646
16.188128,4.525480426598889,0.139793354155179
16.190528,4.523803191076566,0.13993902465451544
16.192924,4.521427107419942,0.140146342138632
16.195312,4.519934967494853,0.14039816571768357
16.197692,4.516300957196488,0.14071295440492718
16.200092,4.507871349472371,0.14113200985121127
16.20248,4.500652446561752,0.14150615159943847
16.20486,4.500790320330743,0.14167513878437277
16.20726,4.49706376223376,0.14193666140025238
16.209644,4.494036052271079,0.1421367696564338
16.212024,4.485141809696008,0.14247414479887752
16.214428,4.47876152454655,0.14277560128284936
16.216816,4.471822160889651,0.14312651417687755
16.2192,4.466325819471729,0.14347548466929747
16.221596,4.471119521039611,0.143548209583554
16.223984,4.475354144100055,0.14366746708912048
16.226364,4.488900422758278,0.14360260100014338
16.22876,4.505100428468977,0.14349183638355864
16.231148,4.524513239739592,0.14328626999248856
16.233532,4.542483028771232,0.14308622903263185
16.235928,4.5563560685114215,0.1429328791111094
16.238316,4.572510748251748,0.14270160284196653
16.240696,4.588665427992073,0.1424660867021402
16.243100000000002,4.604308251053203,0.14221544228511845
16.245488,4.6214413181815495,0.14189874380324552
16.247868,4.638714154936757,0.14157081450145478
16.250264,4.653565582064967,0.1413282361929992
16.252652,4.666926765125957,0.14115706843489462
16.255036,4.689087747105534,0.14078223533407394
16.257432,4.712040125018029,0.14040727917501636
16.25982,4.7372741429306595,0.13996156659333778
16.262204,4.758224420096737,0.13963442545277668
16.2646,4.785180999502065,0.1391687796927631
16.266988,4.814978297414972,0.1385964864407369
16.269368,4.834532774170317,0.1382351345555059
16.271768,4.853063537567266,0.13784199577386003
16.274156,4.860932170926073,0.13767181665599262
16.276536,4.8702910483521,0.13744273897970904
16.27894,4.882071335405123,0.1371405984325677
16.281328000000002,4.892268830592311,0.13685076475877464
16.283708,4.903397491339277,0.13654209183589724
16.286104,4.917599188019298,0.13616340233208613
16.288496000000002,4.9380867261922905,0.13563765558214516
16.290876,4.956991472499446,0.13512329039016588
16.293272,4.973242491754128,0.13464748073756344
16.29566,4.988562345449031,0.1341876200903707
16.298044,5.008305709517348,0.13361230114025907
16.300440000000002,5.025535116160051,0.13306602147719937
16.302828,5.0377366079515244,0.1325810353701216
16.305208,5.043140401570829,0.13222542190091283
16.307608000000002,5.045610928883939,0.13192813889573704
16.309996,5.050502865824047,0.13155430102350343
16.31238,5.048736874218846,0.1313053265610639
16.314776000000002,5.043758077053729,0.13113609109485713
16.317164000000002,5.036078331007894,0.13106172083329767
16.319544,5.029701837574175,0.13099773834345552
16.32194,5.030682120820067,0.13075719280417977
16.324328,5.029800072946401,0.13054965528042364
16.326712,5.0267761546994585,0.13039572922469608
16.329108,5.0244038627585725,0.13024707411284456
16.331496,5.023893901937243,0.13006745733764666
16.33388,5.019379739623081,0.1299705950734117
16.336276,5.006345317644053,0.13002117335839955
16.338664,4.992659269358968,0.13006644165393255
16.341048,4.982418344059277,0.1300709073539889
16.343452,4.977112785812197,0.1299777225939555
16.34584,4.966080464579586,0.12998387911136203
16.348224000000002,4.953837438533476,0.13002698708566718
16.35062,4.941686960285985,0.13011755137557088
16.353008,4.937125576143579,0.13007724046556135
16.355388,4.935217919053648,0.13000168079452365
16.357788,4.934660736404076,0.12987969336990973
16.360176,4.938247524874199,0.12966647598230316
16.362556,4.939692442971045,0.12950343277677506
16.364956,4.947562972187721,0.12918510327232668
16.367344,4.954270018419143,0.1288453162181129
16.369724,4.9585556550235665,0.12857983009713725
16.372124,4.960559651627853,0.1283747764788056
16.374512,4.957768050806387,0.12825491838852376
16.376892,4.958049485917976,0.1280696261554419
16.379292,4.958330921029566,0.12788515677693682
16.38168,4.962476788007128,0.12763121546032993
16.38406,4.973652670582338,0.12729041316498219
16.386456,4.990927403195414,0.12688239936222565
16.388848,5.007550509502432,0.1264729436301814
16.391228,5.018818939876259,0.12618931563348293
16.393624,5.035394824355035,0.1258417871272577
16.396012,5.058116780699922,0.12537270700961634
16.398396,5.083399916298665,0.12482891433098492
16.400792,5.107100260031573,0.12430047054107161
16.40318,5.1320113085779795,0.12374460074792012
16.405564000000002,5.1552923434303075,0.12325491737056904
16.407964,5.17414986790922,0.12286841609196822
16.410352,5.198082529067606,0.12238768778635459
16.412736,5.223877521345548,0.12189318258553589
16.415136,5.252698327728302,0.12140049327333877
16.417516,5.284312630790391,0.12087447663939228
16.419896,5.322864401651509,0.1202377225514816
16.422288,5.369936432177491,0.11948114710856604
16.424672,5.414866592330197,0.11877982400314556
16.427052,5.457515112482765,0.11813062538585223
16.429464,5.499092697448695,0.11751011610378755
16.431852,5.536293993869455,0.11693720018207698
16.434232,5.568979232118182,0.11642365861419215
16.436636,5.600593535180271,0.11593450490329398
16.43902,5.6344894782424975,0.11539383796109015
16.4414,5.665452154998528,0.11490121901493809
16.443804,5.6911999254482275,0.11450740094749365
16.446188,5.716528387017345,0.11414658552429613
16.448572,5.7435794100791595,0.11377844749670478
16.450976,5.769419728327476,0.11344311771069071
16.45336,5.798193312881987,0.11306936530733078
16.455744,5.828037832623136,0.11267078699931156
16.458148,5.856671647550788,0.11230751575618117
16.460532,5.8830238224783,0.11199913723219942
16.462912,5.908072744793698,0.11168191857872811
16.465316,5.9276744433772866,0.1114181057657545
16.467704,5.9416891486022045,0.11121889761328838
16.47008,5.951187795655091,0.1110639034239389
16.472484,5.959243420469002,0.11090396352110374
16.474872,5.971862325283186,0.11065659688846598
16.477252,5.98569193491087,0.11038539368035555
16.479656000000002,6.002315041217888,0.11008678187548988
16.48204,6.01679627715163,0.109822372702584
16.48442,6.0330000745780685,0.10954871490187976
16.486824000000002,6.050135037564285,0.10926825589717305
16.489212000000002,6.067549539804221,0.10897146086803874
16.491592,6.0883166172309355,0.10861538291574299
16.493996,6.106709506858893,0.10826469240131796
16.496384,6.1193756335013205,0.1079779043026039
16.498764,6.129248263464414,0.1077182617390222
16.501164,6.137817640815391,0.10744751778196136
16.503552,6.147737492606727,0.10714312206944877
16.505932,6.152070351039394,0.10689240514743437
16.508336,6.15174738167317,0.1066870909538329
16.51072,6.147932067493308,0.10654961138393039
16.5131,6.149563977045257,0.10636522385063484
16.515504,6.152778678463041,0.1061788878067908
16.517892,6.1545031358136075,0.10603385070498775
16.520272000000002,6.155528745029872,0.10592907901287614
16.522672,6.152270613499583,0.10589357196177869
16.52506,6.145939446036238,0.10590126239432134
16.527440000000002,6.13574384670692,0.10595304066513875
16.529836,6.131834088870573,0.10591020233083585
16.532224,6.124479208048832,0.1058868128821844
16.534604,6.1135394346148395,0.10589055290582561
16.537,6.102599661180846,0.10589400467482907
16.539388,6.089098708492994,0.10595440239094552
16.541768,6.074898907670842,0.10605520020439736
16.544164000000002,6.065354934647581,0.10611220119095532
16.546548,6.059954932744014,0.10610964673738428
16.548932,6.053716313079287,0.10615461076550761
16.551328,6.049200254907255,0.10618970746849571
16.553712,6.050271190093894,0.10617309502768986
16.556092,6.056137722706285,0.10610514272187956
16.558492,6.0661482264383695,0.10597842979614788
16.560876,6.07243406793134,0.10588692872238945
16.563256,6.077788743864533,0.10580426169620089
16.56566,6.086495994984501,0.10566438177745222
16.568048,6.098555821291244,0.10546752856988141
16.570428,6.1115468131577675,0.10526161605496533
16.572824,6.126539905770707,0.10503083231233926
16.575212,6.145397430249619,0.10475806480347788
16.577592,6.15890027879534,0.10456980366469129
16.579996,6.176499876632509,0.10437126336439216
16.58238,6.195542496708657,0.10417859861363994
16.58476,6.2163076782775,0.10397834148299492
16.587156,6.239634039100202,0.10372376055292223
16.589544,6.266173205482819,0.10342103432870255
16.591924,6.292340284813098,0.10309949029733712
16.594328,6.317948285635937,0.10281276974336995
16.596712,6.34239280347352,0.10250413793682941
16.599092,6.366977090937963,0.10219200294872302
16.601496,6.3909097520963485,0.10187555813855712
16.60388,6.4100468158289825,0.10160562022768233
16.606264,6.425459217322502,0.10136755898990037
16.608664,6.444736050681995,0.10109217444807606
16.611052,6.466294524041626,0.10078096090323996
16.613432,6.485059500721922,0.10049459449969288
16.615828,6.503684707775359,0.10021901323651672
16.618216,6.525382950761849,0.0999087852271605
16.6206,6.549362833748478,0.0995663000482301
16.623004,6.574693191175465,0.09920032226297669
16.625388,6.6044470589758655,0.09877260277700843
16.627768,6.632246047858093,0.09832624165136827
16.630164,6.662326676740458,0.09784672810752233
16.632552,6.68896218263743,0.09738138921981089
16.634932,6.713735357414846,0.09693375521426016
16.637328,6.734783869953149,0.0965138897113356
16.639716,6.753410972864453,0.09613704113032753
16.6421,6.768453183163505,0.09577967429961101
16.644496,6.784147019768615,0.09543009008602905
16.64688,6.797838755627308,0.09510276699761339
16.64928,6.811390721859142,0.09478426622427706
16.651676000000002,6.831740386263142,0.09440719090264392
16.65406,6.855954482533117,0.09399802781691917
16.656444,6.877654621377477,0.09359780572607718
16.65884,6.894000084288645,0.09326391296569635
16.661228,6.911136943132731,0.09293072050979312
16.663608,6.924549139737704,0.09262337723118648
16.666004,6.934236674103563,0.09234293822386491
16.668392,6.9385695325362295,0.09212895041776648
16.670772,6.937687484662564,0.09197383122189538
16.673176,6.9314507608557046,0.09188370226017659
16.675564,6.9257258937280435,0.0918079210568555
16.677944,6.916136594734409,0.09176277485100989
16.680348,6.910271957979888,0.09169352263002162
16.682732,6.902917077158147,0.09165736847719055
16.685116,6.902639433762296,0.09155289568183206
16.687508,6.903292955926223,0.09144244157615125
16.689896,6.906367887717148,0.0912929436994922
16.692276,6.908651423575154,0.09114242160665803
16.694676,6.91214566424666,0.09097301706708957
16.69706,6.911915242679052,0.09082632396023779
16.69944,6.904887122939276,0.0907335690315829
