Time,Force,Position
16.573051999999997,0.10992389447075421,0.0
16.575448,0.10633900185850112,0.0
16.577835999999998,0.10129850608908134,0.0
16.580216,0.09746871513316027,0.0
16.582616,0.0925679889906007,0.0
16.585003999999998,0.09167146434087482,0.0
16.587384,0.09156633562406706,0.0
16.589784,0.09156633562406706,0.0
16.592171999999998,0.08959887578770265,0.0
16.594552,0.08283581852558643,0.0
16.596947999999998,0.07714369645010873,0.0
16.599331999999997,0.06837853844157565,0.0
16.601712,0.05933384117932218,0.0
16.604115999999998,0.04735587761087351,0.0
16.606504,0.03910257628153813,0.0
16.608883999999996,0.03178044051198107,0.0
16.611288000000002,0.022316434369146935,0.0
16.613675999999998,0.013923363412951344,0.0
16.616056,0.0076721628300328104,0.0
16.618451999999998,0.00356283262039134,0.0
16.62084,0.00038466797052818857,0.0
16.623219999999996,0.0,0.0
16.625616,0.0,0.0
16.628,0.0,0.0
16.630384,0.0,0.0
16.632787999999998,0.0,0.0
16.635171999999997,0.0,0.0
16.637552,0.0,0.0
16.639947999999997,0.0,0.0
16.642336,0.0,0.0
16.644731999999998,0.0,0.0
16.647135999999996,0.0,0.0
16.649519999999995,0.0,0.0
16.651899999999998,0.0,0.0
16.654308,0.0,0.0
16.656692,0.0,0.0
16.659076,0.0,0.0
16.661479999999997,0.0,0.0
16.663868,0.0,0.0
16.666247999999996,0.0,0.0
16.668644,0.0,0.0
16.671028,0.0,0.0
16.673412,0.0,0.0
16.675807999999996,0.0,0.0
16.678191999999996,0.0,0.0
16.680571999999998,0.0,0.0
16.682972,0.0028514035678995782,0.0
16.685356,0.008775843068854539,0.0
16.687736,0.014700282569809497,0.0
16.690132,0.022766592444041518,0.0
16.692520000000002,0.030041506385355427,0.0
16.694904,0.040389456259724725,0.0
16.6973,0.05208788057445297,0.0
16.699683999999998,0.06085303858298604,0.0
16.702064,0.06668493028532393,0.0
16.704459999999997,0.07237705236080164,0.0
16.706848,0.07792940480941911,0.0
16.709243999999998,0.08068826057870163,0.0
16.711639999999996,0.08423851228090225,0.0
16.714028,0.09100156954301848,0.0
16.716408,0.09897533161863345,0.0
16.718804,0.10387605776119303,0.0
16.721192000000002,0.10756607909025387,0.0
16.723571999999997,0.10756607909025388,0.0
16.725968,0.10756607909025388,0.0
16.728355999999998,0.10756607909025388,0.0
16.730736,0.10471467552235429,0.0
16.733131999999998,0.09879023602139934,0.0
16.73552,0.09286579652044437,0.0
16.737916,0.08479948664621235,0.0
16.740311999999996,0.07752457270489845,0.0
16.7427,0.06717662283052914,0.0
16.74508,0.05547819851580091,0.0
16.747476,0.04671304050726783,0.0
16.749864000000002,0.040881148804929934,0.0
16.752243999999997,0.03518902672945224,0.0
16.754644,0.029974120423119793,0.0
16.757028,0.029554811542539163,0.0
16.759408,0.02648177560948378,0.0
16.761803999999998,0.019916394862792383,0.0
16.764192,0.011942632787177422,0.0
16.766576,0.008822375025878886,0.0
16.768971999999998,0.007983757264717627,0.0
16.77136,0.015490988631508804,0.0
16.773756,0.027002421491133688,0.0
16.776151999999996,0.0395847895373971,0.0
16.77854,0.050956452770161774,0.0
16.780920000000002,0.06540115193598182,0.0
16.783319999999996,0.07784375035538503,0.0
16.785703999999996,0.08949495284187013,0.0
16.788088000000002,0.10221709051499375,0.0
16.790492,0.11386829300147884,0.0
16.792876,0.12551949548796393,0.0
16.79526,0.13917279872086588,0.0
16.797655999999996,0.15310564120748826,0.0
16.800044,0.16703848369411062,0.0
16.802424000000002,0.18170481522508647,0.0
16.80482,0.19343788044986715,0.0
16.807207999999996,0.20717304642106465,0.0
16.809587999999998,0.2203963557130645,0.0
16.811991999999996,0.2339571111473494,0.0
16.81438,0.24401483670767682,0.0
16.816760000000002,0.25193069189472717,0.0
16.819156,0.2514660570437726,0.0
16.821543999999996,0.24299301920715063,0.0
16.823923999999998,0.23144694543747335,0.0
16.826319999999996,0.2220427420410731,0.0
16.828708,0.20759804287525305,0.0
16.831088,0.19712290429221427,0.0
16.833484,0.18547170180572914,0.0
16.835872000000002,0.1727495641326055,0.0
16.838268,0.16109836164612046,0.0
16.840663999999997,0.14944715915963536,0.0
16.843052,0.1357938559267334,0.0
16.845432000000002,0.12186101344011106,0.0
16.847828,0.10792817095348871,0.0
16.850215999999996,0.09292439328022782,0.0
16.852600000000002,0.07885178116674522,0.0
16.854996,0.06463939942640244,0.0
16.85738,0.05121841361897775,0.0
16.859764,0.03765765818469286,0.0
16.862156,0.025819464243104415,0.0
16.864544000000002,0.015052205488154492,0.0
16.86694,0.008009608972317847,0.0
16.869335999999997,0.0049712139493149066,0.0
16.871724,0.003934919672728818,0.0
16.874108,0.001967459836364409,0.0
16.876503999999997,0.001967459836364409,0.0
16.878887999999996,0.0,0.0
16.881271999999996,0.0035936818147052946,0.0
16.883663999999996,0.013376865608026011,0.0
16.886052,0.03451723585805146,0.0
16.888432,0.07050713737841766,0.0
16.890831999999996,0.11338538901170031,0.00920465827192171
16.893216000000002,0.16808735781051146,0.0177600884417805
16.8956,0.2325637212001911,0.026333071256132604
16.897996,0.3085370406734357,0.034805589097731085
16.90038,0.3948438332449896,0.04316653431746983
16.902775999999996,0.4923227166760141,0.05126341813026144
16.905172,0.5952469279809792,0.05947581856559696
16.907559999999997,0.7058508853317786,0.06774648328443535
16.909943999999996,0.8243669061538901,0.07614246349741499
16.91234,0.9572206015671446,0.08426036897404364
16.914727999999997,1.0984528911605347,0.09232837968684744
16.917108,1.2467133004937017,0.10044468429488518
16.919511999999997,1.4071695140447342,0.10845754735707049
16.921895999999997,1.5771205829329151,0.11654156216915014
16.924276,1.7558223330535692,0.12462164333043846
16.926676,1.9438810647423805,0.13256029939990074
16.929063999999997,2.1312321590944383,0.14047943591609793
16.931444,2.3154667874009363,0.14829005529856748
16.933839999999996,2.4887635381313102,0.1560574669963235
16.936228,2.645627965725507,0.16384774995879414
16.938612,2.8006791798862594,0.16226413275012
16.941007999999997,2.9403217842692304,0.1614155704921813
16.943396,3.0651620792101038,0.16064726402018698
16.94578,3.1782731006419347,0.15993201856637645
16.948175999999997,3.277465756363203,0.15942089779913377
16.950564,3.364694925292083,0.15918613152674732
16.952948,3.4472701622799407,0.15882355554390779
16.955351999999998,3.522817279528022,0.1584055905763549
16.957735999999997,3.591103959610849,0.15786516535356546
16.960116,3.6409089939828387,0.15776019788687007
16.962511999999997,3.6799140245476956,0.1578259184973791
16.9649,3.7125425616788337,0.15784528142147627
16.967280000000002,3.7291108627261327,0.15810488339591047
16.969679999999997,3.7387454876901414,0.15815264964726242
16.972063999999996,3.7429820066084525,0.15805458163124597
16.97446,3.7341368817194933,0.15821399226483604
16.976855999999998,3.719751985300107,0.1584670186095469
16.979248,3.7024338225745246,0.15881242778656596
16.981628,3.6849758902220837,0.15916885249801793
16.984023999999998,3.6680298145488397,0.15954888372951265
16.986412,3.644658127755765,0.16017794095663543
16.988791999999997,3.6229617806271426,0.16086876598619776
16.991188,3.6103900976412002,0.16136897364564712
16.993575999999997,3.5994937543197127,0.1619031609356496
16.995956,3.5966983617825083,0.1622103103607728
16.998351999999997,3.5947869129768395,0.1625693380385197
17.00074,3.5944582560370066,0.1628991107708676
17.003119999999996,3.595200534283813,0.16318365682796132
17.005524,3.5954309558514206,0.1634501308491323
17.007911999999997,3.6020869885388596,0.16345784730040522
17.010292,3.6134460708534335,0.16324581034087493
17.012687999999997,3.6237342179813687,0.1630760252726096
17.015076,3.6385384232813354,0.16277183865759978
17.017455999999996,3.652504010820141,0.16256932216308403
17.019852,3.663908419105089,0.16250456644067873
17.022239999999996,3.680620281494986,0.16230003386904648
17.024636,3.7043621594825296,0.16192174518213803
17.027035999999995,3.731549160455466,0.16147474183579147
17.029424,3.7572459173611827,0.161111825218703
17.031804,3.784013609453538,0.16070243081685714
17.0342,3.812923171919171,0.16020243842816723
17.036588000000002,3.847606719198577,0.15944523704989055
17.038972,3.879404222000031,0.15873080776059467
17.041368,3.9123198818163667,0.15791839743865105
17.043751999999998,3.9412785619681117,0.15718842692633728
17.046132,3.9694930680151814,0.15639044280516579
17.048527999999997,3.996124782196415,0.15562488041978276
17.050916,4.023036035631369,0.15484513935323393
17.0533,4.051297763506683,0.1540083127634419
17.055695999999998,4.077277851381859,0.1532728607238048
17.058084,4.103350487055652,0.15261123255511921
17.060463999999996,4.134358489782057,0.15181579160630881
17.06286,4.168858837322097,0.15090348291619726
17.065247999999997,4.201124766690245,0.1500135930102603
17.067631999999996,4.231947673819416,0.14913098772421646
17.070028,4.261187789082751,0.1482721057296191
17.072412,4.287913946920471,0.1474748492136133
17.074812,4.312685225840017,0.14668496729608027
17.077208,4.339645596961084,0.14576162469731188
17.079596000000002,4.365023176216314,0.144851169809554
17.081975999999997,4.388678193978848,0.14396978300539723
17.084372000000002,4.409260175808328,0.14319145459693555
17.086764000000002,4.4326356543171395,0.14236846158317687
17.089143999999997,4.448794125773204,0.14174638830559788
17.091540000000002,4.46239141797541,0.14122506517226774
17.093928,4.480225229095928,0.14064590283987768
17.096308,4.500200910589722,0.14001078289134242
17.098703999999998,4.520456131337237,0.139363290976135
17.101092,4.537498546524836,0.1388112734767499
17.103471999999996,4.550536760219603,0.13835318242391062
17.105871999999998,4.556125649436142,0.13804837413888738
17.10826,4.559340350853926,0.1377717498921891
17.110639999999997,4.559901325219236,0.13754403567237095
17.113039999999998,4.556318328464853,0.13742572974548234
17.115428,4.550034382829752,0.13741877602700542
17.117807999999997,4.545193459433626,0.13740933032141922
17.120204,4.540632075291221,0.13737499489303034
17.122591999999997,4.5322988070814585,0.13748105802865784
17.124988000000002,4.522847381856815,0.13768090706833822
17.127384,4.514559439617427,0.13790462106306373
17.129771999999996,4.508645685176793,0.13810729562676002
17.132151999999998,4.501149138870323,0.13832403274023589
17.134548000000002,4.486063498458767,0.13870343380716316
17.136932,4.4767046210327415,0.1389606016138681
17.139316,4.468137139539634,0.1392142793608795
17.141712,4.4559847654342715,0.13952963857527564
17.1441,4.439967959462936,0.13993063017214893
17.146479999999997,4.415011584946156,0.14056255429994804
17.148876,4.3908466063622935,0.14119342059787832
17.151263999999998,4.374550261137238,0.14163021433644044
17.153660000000002,4.367053714830769,0.14185486287416574
17.156056,4.355552967031464,0.14218258571244707
17.158448,4.3392093999781665,0.14269150573891617
17.160828000000002,4.330966783709153,0.14304719832168497
17.163224,4.32887023930625,0.1432333940591885
17.165608,4.329474643784065,0.14330399701099547
17.167991999999998,4.326586703448244,0.1434943413765432
17.170387999999996,4.32570086385884,0.14363410404750607
17.172772000000002,4.325746189829214,0.1437537976732471
17.175156,4.330075256546141,0.14374554957025198
17.177552,4.334963401770509,0.14368971248510942
17.179940000000002,4.341853647741296,0.14358379123187093
17.182319999999997,4.353120182257252,0.1434029951253808
17.184716,4.364758803825547,0.14325291342777693
17.187103999999998,4.381193022819593,0.14299617130880693
17.189500000000002,4.398139098492837,0.14275580468140275
17.191896,4.415876570098999,0.14250634904230552
17.194283999999996,4.446790129168917,0.14197177616802958
17.196667999999995,4.480077876037591,0.1414141319385526
17.199064,4.511363522159846,0.14092289331303917
17.201451999999996,4.538924506042989,0.1405156533470188
17.203832,4.568347821045688,0.1400667797221551
17.206227999999996,4.602194646421802,0.13947473795306867
17.208616,4.633807053626023,0.13890503775517524
17.210996,4.662765733777767,0.1383874368028341
17.213392,4.687859982063539,0.13796642149290067
17.215780000000002,4.715655179230029,0.13744045423090234
17.218164,4.7435901460233785,0.1369021444618573
17.22056,4.769523012070311,0.13640908742157298
17.222948000000002,4.79145167662441,0.13601795069859104
17.225327999999998,4.8112384708052325,0.13568793165035814
17.227724000000002,4.833678992038529,0.13532596470149394
17.230112,4.8554678869657675,0.13496037448198486
17.232495999999998,4.8780953996541685,0.13453444943156684
17.234896,4.899419659730453,0.1341087493878764
17.23728,4.917857875328785,0.133680766198718
17.239663999999998,4.938717500554116,0.1331805027117048
17.242064,4.952547110181799,0.1327873014618745
17.244448,4.964282071264448,0.132389248518328
17.246831999999998,4.973503074921484,0.13201909732413047
17.249228000000002,4.985005718578656,0.13158902898257577
17.251612,4.996648131862688,0.1311487819495034
17.254008,5.0072196099600825,0.13073606762914705
17.256403999999996,5.020584584736811,0.13028480763893707
17.258792,5.038093530633235,0.1297504851021338
17.261172000000002,5.051458505409964,0.12930161714591046
17.263576,5.065475106492752,0.12886374532841538
17.265963999999997,5.080702412389038,0.12839283014607003
17.268344,5.098490897539182,0.12784205554840342
17.270747999999998,5.117118000450486,0.1272321243564693
17.273136,5.135512785936314,0.12658567708732876
17.275512,5.148180808436612,0.12603959525392058
17.277915999999998,5.16191976612355,0.1254717030476761
17.280304,5.17272545750429,0.12495961187631563
17.282683999999996,5.177524846645781,0.12456086560496007
17.28508,5.185769358772664,0.12412503598306115
17.287464,5.193594562018966,0.12372405005389313
17.289848,5.2030025571311045,0.12331655299001508
17.292243999999997,5.217345919295855,0.12282652637211888
17.294632,5.231269972580026,0.12236415682355926
17.297012000000002,5.241701681050559,0.12199328210325823
17.299411999999997,5.253064555080872,0.12161054160269369
17.301795999999996,5.268711169857738,0.1211413680196294
17.304180000000002,5.275557985716019,0.12081901762754187
17.306576,5.273045924148274,0.12068282806899375
17.30896,5.276260625566059,0.12045695587210159
17.311344,5.276681830304509,0.12027130361991885
17.313739999999996,5.27603209985632,0.12010896864759983
17.316124000000002,5.272960959781135,0.12001168339081948
17.318523999999996,5.268771662691067,0.11999218938913873
17.32092,5.264674913399616,0.12001809787149609
17.323307999999997,5.260438394481304,0.12005451892277019
17.325688,5.248984868510243,0.12023580700548257
17.328083999999997,5.236832494404882,0.12046862453819743
17.330472,5.230127344031332,0.1206310777659776
17.332851999999995,5.223142654404058,0.12081258606307617
17.335248,5.2104312017912555,0.121087726454868
17.337635999999996,5.1951585699245975,0.12144184547364031
17.340019999999996,5.1763935932443,0.1218799124387433
17.342416,5.1607016524970595,0.12225640886615
17.3448,5.147291351749956,0.12257654886802202
17.347184,5.134672446935771,0.12289015107960372
17.349579999999996,5.115488161374896,0.12334964975290119
17.351968,5.104032739545967,0.12368564887579317
17.354363999999997,5.100585720702704,0.12387723811968077
17.356764,5.094345205180106,0.12410842717322346
17.359152,5.08661444559029,0.12439508949980015
17.361531999999997,5.082748117866447,0.12461525845508174
17.363928,5.083956926822077,0.12473894313147114
17.366312,5.086655979844926,0.12481026855284759
17.368691999999996,5.0936387736143285,0.1247909293396718
17.371088,5.103554833689926,0.12472256848668614
17.373475999999997,5.127345829363582,0.12441582369492471
17.375856,5.1549087091045935,0.12400419800562566
17.378259999999997,5.1810285666066305,0.12359268395935352
17.380648,5.207427963362388,0.1231646640024925
17.383027999999996,5.243837863850229,0.12256706801778723
17.385424,5.284159418032285,0.12185688255839018
17.387808,5.3227584107216455,0.121161626644666
17.390203999999997,5.360426237851229,0.12048692183361262
17.3926,5.399165000167451,0.1197990181047395
17.394987999999998,5.434179100244559,0.11916037551887494
17.397368,5.47482741550858,0.11839724217206656
17.399772,5.50974896778707,0.1177179336184076
17.402160000000002,5.540945857826448,0.11709237647758372
17.404539999999997,5.574284618239103,0.11642548924135258
17.406943999999996,5.612326428278893,0.11564581522719768
17.409328000000002,5.643570540146513,0.1149724079952321
17.411707999999997,5.67095022014816,0.11436431329635073
17.414111999999996,5.699540604963306,0.11373368929452372
17.4165,5.721473061233143,0.11319537626989923
17.41888,5.743824826383562,0.11263416422122252
17.421284,5.756585396682476,0.11221007426778251
17.423668,5.765993391794614,0.11185585560818745
17.426048,5.778986279519005,0.11147175028410089
17.428452,5.791187771310479,0.11109116708195495
17.430839999999996,5.796172256049204,0.11083068803608173
17.43322,5.800597662280489,0.11060696281759992
17.435623999999997,5.806373542952132,0.1103474496081039
17.438012,5.810287092504218,0.11010827701289709
17.440391999999996,5.809265275003692,0.10993606938251456
17.442788,5.813318594182638,0.1096889491729949
17.445175999999996,5.812017237428392,0.10953440032720743
17.447556,5.8155114780998955,0.1093217773836454
17.449959999999997,5.821007819517818,0.10908130784311776
17.452348,5.827295556868658,0.1088414141288353
17.454727999999996,5.832093050152279,0.10864657511124029
17.457124,5.839544270488376,0.10842994949133039
17.459511999999997,5.845924555637833,0.10823110963223095
17.461892,5.848160869667597,0.10809638300387926
17.464287999999996,5.854121845936473,0.10792273391422547
17.466676,5.859523743697908,0.10778370861435445
17.469056000000002,5.865437498138542,0.10765935698531778
17.471452,5.873353353325591,0.107507389815465
17.473839999999996,5.875682215153972,0.10741373008376574
17.476219999999998,5.878662703288411,0.10732766543303128
17.478616000000002,5.883645292169267,0.10721415176174721
17.481004,5.8869053195574255,0.10711173967743957
17.483384,5.889466498811283,0.10705116638592051
17.485788,5.896683505864031,0.10694466695330755
17.488175999999996,5.908556340715672,0.10679127448348624
17.490560000000002,5.919078701126955,0.10667442986868056
17.492964,5.935607363777488,0.10647943878627086
17.495348,5.949994156054744,0.10631992530837862
17.497728000000002,5.963821869824558,0.10619389677819173
17.500124,5.978580749154151,0.10606148497903421
17.502511999999996,5.997204060349717,0.10588931037937141
17.504891999999998,6.0181090115454206,0.10567750022826732
17.507292,6.038874193114264,0.10547211662849865
17.509676,6.0630844976685,0.10524741275120451
17.512056,6.0870152629690155,0.10503999300184312
17.514455999999996,6.110154632336613,0.10483351758363905
17.516844,6.138508908010543,0.10455463107449214
17.519224,6.166723414057613,0.10428566945649045
17.52162,6.1955895464107416,0.10402161688471342
17.524008000000002,6.2265975491371455,0.10372899111197612
17.526387999999997,6.252949724064658,0.10347628093049305
17.528784,6.278230963805536,0.1032396352630787
17.531171999999998,6.30365197317327,0.10299393498030043
17.533552,6.325348320301892,0.10278548600835472
17.535952,6.348395141870872,0.10254941393024697
17.538336,6.3687882363873785,0.10233117832946975
17.54072,6.3842459638512725,0.1021711742875709
17.543115999999998,6.402264870569024,0.10195834746792837
17.545504,6.422053560607715,0.10169398481619943
17.5479,6.437046653220655,0.10147753974650679
17.550295999999996,6.447663457288423,0.10128792179027052
17.552684,6.457349095796412,0.1011077413294249
17.555064,6.471598014304678,0.10085429766889419
17.557468,6.485894154641186,0.10055871032302356
17.559855999999996,6.500889143111994,0.10022815017346903
17.562236,6.5205871812099385,0.09982205261802264
17.564631999999996,6.537911031509127,0.09942128190174816
17.56702,6.555793960315756,0.09899435688147368
17.5694,6.577169233936022,0.09851267392640474
17.571804,6.594959614944034,0.09805433703425553
17.574191999999996,6.620898168564574,0.09750813159195838
17.576575999999996,6.647535570319416,0.0969262049928403
17.578972,6.675802985768337,0.09630435385881916
17.581356,6.701556443791644,0.09568656818736361
17.58374,6.723585239575837,0.09509967669781769
17.586135999999996,6.74696450980039,0.09448576474038614
17.588524,6.772113563345881,0.09382408087990513
