Time,Force,Position
16.353056,0.07314934413322054,0.0
16.355444,0.07988527646363362,0.0
16.357827999999998,0.08447933842076964,0.0
16.360224,0.08907340037790566,0.0
16.362612,0.09073419602884651,0.0
16.364992,0.09332615723956568,0.0
16.367388,0.09290684835898505,0.0
16.369775999999998,0.0872418512152105,0.0
16.37216,0.08157685407143593,0.0
16.374556,0.07884512323385656,0.0
16.376939999999998,0.07535277842022055,0.0
16.379324,0.070789498419946,0.0
16.381719999999998,0.0669868323957281,0.0
16.384107999999998,0.062253000811731865,0.0
16.386504,0.055967159318760895,0.0
16.388904,0.050162392548126135,0.0
16.391288,0.044357625777491375,0.0
16.393672,0.038552859006856614,0.0
16.396068,0.03381902742286039,0.0
16.398456,0.028293799905946035,0.0
16.400835999999998,0.021557867575532953,0.0
16.403236,0.01482193524511987,0.0
16.40562,0.010227873287983847,0.0
16.408004,0.005633811330847826,0.0
16.4104,0.003973015679906976,0.0
16.412788,0.0013810544691878052,0.0
16.415172,0.0010707332586059066,0.0
16.417568,0.0010707332586059066,0.0
16.419956,0.0010707332586059066,0.0
16.42234,0.0010707332586059066,0.0
16.424736,0.0007604120480240078,0.0
16.427124,0.000450090837442109,0.0
16.429508,0.000450090837442109,0.0
16.431904,0.000450090837442109,0.0
16.434292,0.0,0.0
16.436671999999998,0.0,0.0
16.439072,0.0,0.0
16.44146,0.0,0.0
16.443844,0.0,0.0
16.44624,0.003515543339020523,0.0
16.448628,0.019459208321384296,0.0
16.451007999999998,0.04880938233511278,0.0
16.4534,0.08788862496933586,0.0
16.455788,0.13441529622391626,0.009824151405467706
16.458184,0.1868519302033917,0.02001965180760644
16.46058,0.2529273906397091,0.029502700745578925
16.462968,0.33506308715986605,0.03822250345613658
16.465348,0.42902250084555144,0.046625347394917735
16.467744,0.5307088824053146,0.05493369477239506
16.470128,0.6422168803841892,0.06314304083624947
16.472507999999998,0.7637788122076529,0.0713425338839848
16.474904,0.9008891234357586,0.07921209053587928
16.477292,1.048799438470997,0.08690322679967755
16.479688,1.2029464773130942,0.09467191134891804
16.482084,1.3632830181338067,0.10260294791726228
16.484472,1.538329320598,0.11039596226660947
16.486852,1.72641004504122,0.11803243401487745
16.489256,1.9190521536268461,0.12569340644678442
16.491644,2.1139286803843658,0.13333598748818404
16.494024,2.3015650015637514,0.1410807600869664
16.49642,2.4749108699802376,0.14887813658679158
16.498804,2.634710459738499,0.15669030846144605
16.501188,2.7905077438617956,0.16433288950284566
16.503584,2.940859700111152,0.16208760496382968
16.505972,3.0867919377028326,0.15939083687533967
16.508352,3.215360686598558,0.15750412561452792
16.510752,3.325215472357969,0.15644186651536382
16.51314,3.421384209832295,0.15574808364378614
16.51552,3.5092669009251023,0.15520758746841828
16.517916,3.5855581922778583,0.15488199647140002
16.520304,3.6533783416518615,0.1545419955310819
16.522688,3.70602219867356,0.1545643064931677
16.525084,3.7516832619258564,0.15472005300625044
16.527472,3.795344120289605,0.15471254968218168
16.529851999999998,3.83761107410049,0.15440566166762526
16.532252,3.8663789710813927,0.15418569529953147
16.53464,3.8811812805234904,0.15414602304983102
16.53702,3.8952866376891557,0.15397479152233293
16.539416,3.9079489726158454,0.15381238371375722
16.541804,3.9295508760879807,0.1533847869257613
16.544183999999998,3.9531548803065326,0.1528917562362758
16.546584,3.97969215083128,0.15232038568910083
16.548972,3.999664040609336,0.15199458743392988
16.551368,4.0157242766931756,0.15184380168092612
16.55376,4.033599622068328,0.15172462020800184
16.556148,4.058784522294848,0.15143589446506722
16.558528,4.0883457110665375,0.15105701630106094
16.560932,4.121212253196762,0.15062253449782073
16.563316,4.155941126446542,0.15013737752348374
16.565696,4.1953730493234564,0.14946426741805544
16.568092,4.232430784401617,0.14882321390262113
16.57048,4.267533640561604,0.14816553672229052
16.57286,4.29309252369833,0.147688559590818
16.575264,4.313483722356967,0.1473185014259429
16.577648,4.329219093216712,0.14707291857233157
16.580028,4.343743759262958,0.14687843629125458
16.582424,4.3584081949360645,0.14666892555486516
16.584812,4.3649244579966435,0.14670502545221104
16.587208,4.371021412176642,0.14678003049260016
16.589603999999998,4.373346482289284,0.14701194118240998
16.591991999999998,4.375392013148206,0.14726954057849853
16.594372,4.3745042777009315,0.14760355989756577
16.596768,4.372453059268402,0.14791990818814235
16.599156,4.377666069716866,0.14794961442897722
16.601536,4.378782330873879,0.14803686994993376
16.603932,4.377664173858996,0.148136730973318
16.60632,4.372169728298943,0.14831760691768214
16.6087,4.363509699007218,0.14853371123329392
16.611104,4.354617352290015,0.14870689294627426
16.613492,4.344654070386174,0.14890877032698385
16.615872,4.33697242848247,0.1490313216330495
16.618268,4.326869376951769,0.14924931944505518
16.620656,4.327148916205489,0.14922435434136702
16.623036,4.330733808817742,0.14915286247655074
16.625432,4.337763824415388,0.14902471051738977
16.62782,4.342931508893479,0.14893699007130773
16.630216,4.351032459677763,0.1487759881994538
16.632611999999998,4.365559021581879,0.14841308998518837
16.634996,4.378922100500738,0.1480284624281848
16.63738,4.39340333643448,0.14755216300203217
16.639775999999998,4.408723190129383,0.14700443458675885
16.642164,4.419806524905976,0.14651516830161157
16.644544,4.432891960428985,0.14596759158620584
16.64694,4.443136677444416,0.14556166095031448
16.649328,4.45724582632582,0.14506726643506446
16.651708,4.469352874460807,0.14462740940202648
16.654111999999998,4.486115750394685,0.1440874098592689
16.656499999999998,4.50418187894068,0.14355080992611002
16.65888,4.52476196491229,0.14298846729988768
16.661276,4.5446904245778414,0.1424292986435277
16.663664,4.562337244243254,0.14194793145875506
16.666044,4.582405473535666,0.14136803074837506
16.66844,4.600890910962242,0.14082039829943083
16.670828,4.617281699843784,0.14027574905039575
16.673223999999998,4.626922012381401,0.13982448663091196
16.675624,4.639263273799735,0.13926514687002794
16.678008,4.641454261859123,0.13895856635276022
16.680391999999998,4.639221739545099,0.1387882535032607
16.682788,4.63857200909691,0.1386032980307053
16.685176,4.633219229021586,0.1385781634443747
16.687556,4.626376204879043,0.13861892089734704
16.689956,4.622838534095035,0.1386199634611033
16.692344,4.62209435999036,0.13856283097873828
16.694727999999998,4.615902962153875,0.1386097184995186
16.697124,4.604124570958718,0.13877123475179254
16.699512,4.591554783830647,0.13894076499582358
16.701892,4.576191500023239,0.13916621740982046
16.704288,4.56217869065619,0.13933688794290885
16.706675999999998,4.541927261624414,0.13961677749469736
16.709056,4.517020004793745,0.1399950879381786
16.711451999999998,4.49011064721666,0.1404315826537297
16.713839999999998,4.467577578184747,0.14079095924769308
16.71622,4.436756566913446,0.14138652493602918
16.718624,4.405516246761563,0.14201766736461272
16.721011999999998,4.37930384146091,0.142579971662271
16.723392,4.3519732791453745,0.1432361796941767
16.725787999999998,4.338517652427897,0.14354857907059115
16.728175999999998,4.334281133509587,0.14360882355503035
16.73056,4.331395089031634,0.14361319376518505
16.732955999999998,4.33107022380754,0.1435195187778057
16.735343999999998,4.333538855262781,0.14336909277212906
16.737724,4.338940753024217,0.1431501935580996
16.74012,4.342759858919816,0.14294798055103203
16.742504,4.352725036681527,0.14258775762589526
16.744904,4.365343941495712,0.14218094132697512
16.7473,4.378986559668292,0.14180517676265586
16.749688,4.394863596012767,0.14142085805496785
16.752067999999998,4.412742733103658,0.14099396653350477
16.754472,4.435277697993442,0.1404736983352886
16.75686,4.462980347361315,0.13987316395484203
16.75924,4.495199054901218,0.13918646527379563
16.761636,4.530351028747317,0.138458492146509
16.764024,4.5750016496463015,0.1374669634086656
16.766408,4.618209248306311,0.13647117346182053
16.768804,4.662487782152959,0.1354654717672347
16.771192,4.705974920066689,0.13445844159065068
16.773571999999998,4.74266435980825,0.13362178974544975
16.775976,4.770833539884947,0.13297334491697455
16.778364,4.798862950334783,0.13234778756914536
16.780744,4.826333282277178,0.13176855526473857
16.78314,4.851941283100016,0.13122841513226757
16.785528,4.877549283922854,0.1306959700884193
16.787907999999998,4.901015414372415,0.13021953782734447
16.790312,4.920477343329144,0.12983509901245394
16.7927,4.93951996340529,0.129482732408996
16.795084,4.960983993108436,0.12905660347198988
16.797476,4.979701747960488,0.1286191023053596
16.799864,4.995905545386925,0.12821360859116682
16.802243999999998,5.0091760765071704,0.12786723909992756
16.804644,5.020863815761576,0.1275326028592819
16.807032,5.032319237590505,0.1271644374076959
16.809412,5.034323234194791,0.12695938561165784
16.811816,5.033114425239162,0.1268318464021035
16.814204,5.0336281777762295,0.12668500249610445
16.816584,5.029206563260685,0.126632082489167
16.81898,5.029068689491694,0.12648007889364715
16.821368,5.027999650162924,0.1263418398690288
16.823752,5.02823386344627,0.12621531433287073
16.826148,5.029678781543115,0.12605528654922596
16.828536,5.034476274826736,0.1258132425011966
16.830916,5.035129796990663,0.1256570554857227
16.833316,5.035411232102253,0.1254754039501093
16.835704,5.038486163893178,0.12525185423483318
16.838084,5.041421326057242,0.1250376356841212
16.84048,5.045986501915387,0.12475904955308988
16.842868,5.047758181094195,0.12452341615037935
16.845247999999998,5.050553573631398,0.1243199612962012
16.847644,5.052789887661161,0.12415737856673052
16.850032,5.056236906504424,0.12396025728047035
16.852415999999998,5.0586129901610475,0.12378703148410826
16.854812,5.057217189750315,0.12372715852118062
16.8572,5.059546051578695,0.12360989964853351
16.859579999999998,5.059593273406938,0.12355206922731689
16.861976,5.062433991914517,0.12345231327655357
16.864364,5.064483314489177,0.12335517364390242
16.866747999999998,5.060107025944006,0.12340639256181446
16.869144,5.061737039638085,0.12334078188212082
16.871527999999998,5.062855196652967,0.12325830263914843
16.873924,5.055964950682181,0.12333166674479022
16.87632,5.04451142471112,0.12352318006788099
16.878708,5.0387846617255905,0.12362002243206117
16.881092,5.030217180232482,0.12381803478723451
16.883488,5.018576662806318,0.12407981286013799
16.885872,5.00958987243263,0.12430829002415383
16.888256,5.0000440035515,0.12457601461618337
16.890652,4.98993905616293,0.12488716220910802
16.89304,4.9796943391475,0.1252101561152946
16.895424,4.96837868694543,0.12555999773741036
16.897816,4.959297452915255,0.12590485792443662
16.900204,4.953801111497333,0.12620102851213227
16.9026,4.952308971572245,0.1264195756376419
16.904996,4.948674961273878,0.1266891393854755
16.907384,4.946251655789012,0.12692410805407833
16.909768,4.940755314371089,0.12722184316595375
16.912164,4.941777131871615,0.12741749392420695
16.914552,4.951738517917587,0.12744195196694638
16.916932,4.956996854336423,0.12759503049267254
16.919328,4.964769148180875,0.1277259043797539
16.921716,4.9819928672499705,0.1277049891462788
16.924096,4.999496125572786,0.1276611598668861
16.926496,5.0172789231493224,0.12759932555407283
16.92888,5.04134756221883,0.1274052410224446
16.931264,5.068908546101972,0.12712057052800232
16.933668,5.092744867746003,0.12689068503212733
16.936056,5.118723059763309,0.126617467480964
16.938436,5.148333366221111,0.12624436174353645
16.940832,5.1835778878658285,0.12574227150925782
16.94322,5.223106150257098,0.12515033946953374
16.9456,5.259329059289835,0.12458605546131765
16.947996,5.296111046830014,0.12399604805280717
16.950384,5.332381177690994,0.12339678829289386
16.952768,5.373726445231447,0.12270497381920542
16.955164,5.417353352772037,0.12196585989224401
16.957552,5.4611200299394875,0.12121622036308624
16.959932,5.502232980054464,0.12050760710751399
16.962328,5.535105209758294,0.11991043132265666
16.964716,5.570957927596563,0.11921763134177721
16.967095999999998,5.607369723942273,0.11849726819881971
16.9695,5.638474066183033,0.11783958908825518
16.971888,5.67307075323743,0.11710469201156945
16.974272,5.7090179147321845,0.11634455688529731
16.976668,5.736584586188935,0.11569216611655736
16.979056,5.760147056152852,0.1151051850066545
16.981436,5.789064202049963,0.11442063644574975
16.983836,5.810112714588264,0.11384921350996792
16.986224,5.827017256006873,0.11335073370300582
16.988604,5.835261768133757,0.11297266573198779
16.991,5.840992322835024,0.1126130726765292
16.993388,5.847933582349793,0.11222518343398978
16.995767999999998,5.851010409998588,0.11189094391743398
16.998164,5.856089338393798,0.11153032201931701
17.000552,5.860935949363532,0.1111416583995444
17.002952,5.865503021079544,0.11077331468347669
17.005347999999998,5.8694184664895,0.11039763729988022
17.007735999999998,5.87081995447384,0.11003462850987178
17.010116,5.876085874324154,0.10962303276270499
17.012515999999998,5.878138988614552,0.10926758058331633
17.014903999999998,5.877258836598755,0.10895059959405812
17.017284,5.877030310889015,0.10864040387981007
17.019683999999998,5.870655713313166,0.10842094597394157
17.022071999999998,5.858135043871204,0.1082923191993785
17.024456,5.847988562227998,0.10815982962570127
17.026851999999998,5.843708613197184,0.10795262921691769
17.029239999999998,5.835144923419815,0.1078172298276459
17.03162,5.834869175881833,0.10755520069740762
17.034015999999998,5.838597629836683,0.10723864848553734
17.036404,5.845771206776929,0.10689872235138528
17.038788,5.851454539649954,0.10660218465889384
17.041183999999998,5.8556476284557615,0.10634871574090483
17.043572,5.85769884688829,0.10612982325037502
17.045956,5.85253305826807,0.1060205780801337
17.048356,5.845597486326911,0.10597141059389528
17.050743999999998,5.83372654733314,0.10598655104900118
17.053128,5.827442601698039,0.10594441080027123
17.055528,5.823253304607971,0.10591628754843405
17.057916,5.817294224196963,0.10594767623257029
17.060299999999998,5.81398887083843,0.10595950681647864
17.062704,5.811335143785954,0.10597881359611404
17.065092,5.807890020800561,0.10599901218181584
17.067472,5.814036092666672,0.10591076569880317
17.069872,5.82805079789159,0.10572597632116801
17.07226,5.845138539049564,0.10549799956677737
17.07464,5.856359747595146,0.10534241923857635
17.07704,5.870514222446926,0.10515260728699108
17.079424,5.881316122111928,0.10502408896166099
17.081808,5.888253589910957,0.10493895704631344
17.084204,5.897332928083262,0.10482111447215474
17.086592,5.908274597375125,0.10468607973374819
17.088976,5.922429072226903,0.10450162989087906
17.091372,5.940308209317795,0.1042817110031137
17.09376,5.967266684580991,0.10394468171618292
17.096144,5.990360727978216,0.10364825962541568
17.09854,6.015456872121856,0.10332241073572726
17.100928,6.031892986973773,0.10309326374393729
17.103308,6.047025849213573,0.10284882925121923
17.105704,6.060995228468117,0.10257941940788452
17.108092,6.07044854955063,0.10234538220993182
17.110471999999998,6.080041640260002,0.1021033143269866
17.11288,6.09256799727557,0.10182802722255016
17.115264,6.099647130559329,0.10160027623260671
17.117644,6.1007199616038355,0.10144866565767857
17.12004,6.102072331902065,0.10128235726880866
17.122428,6.105938659625906,0.10110715409638044
17.124807999999998,6.108222195483913,0.10093327006046572
17.127212,6.109993874662721,0.10074360912741469
17.1296,6.117771856080781,0.10048365753659386
17.13198,6.125689607125699,0.10021866319131259
17.134384,6.136168537424477,0.09990255357373057
17.136772,6.145716302163476,0.09959654574501503
17.139156,6.15875641171611,0.09923430474855865
17.141552,6.166349297536937,0.09891186617754372
17.14394,6.179296859290955,0.0985160267250093
17.14632,6.195596996231748,0.0980706184524043
17.148716,6.21897437059843,0.0975459937964441
17.151104,6.245145241644448,0.09700288575261419
17.153484,6.273178443810023,0.0964452691765846
17.155884,6.307078178587988,0.09583251341655996
17.158268,6.342188618179453,0.09520126149831794
17.160652,6.369430424412108,0.09464381937810304
17.163048,6.393319655457988,0.09413506348992368
17.165436,6.417348656130729,0.0936171119164704
17.167816,6.436302520123997,0.09315699067605403
17.170212,6.451951030758733,0.09270072831609678
17.172604,6.466249066953109,0.0922741947420647
17.174984,6.484131995759739,0.091830574345258
17.17738,6.497870953446676,0.09144122383241537
17.179768,6.506395004827279,0.09111511048537732
17.182152,6.506491344341635,0.09089436873399233
17.184548,6.505516748669352,0.09068819913160674
17.186936,6.497976772250378,0.09057404083472904
17.189312,6.488946551764184,0.09049571330568776
17.19172,6.477494921650993,0.09045968159110634
17.194104,6.464413277843723,0.09046629799597505
17.196483999999998,6.44597695810326,0.09054076678483762
17.198888,6.428471803922575,0.09060669027831936
17.201276,6.413620376794365,0.09066006776499146
17.203656,6.394764748173322,0.09075085420855937
17.20606,6.375350041044838,0.09086923779350582
17.208448,6.365666298394717,0.09090649289752058
17.210828,6.359846987610569,0.09091277149143406
17.213224,6.353608367945842,0.09094093388127793
17.215612,6.353096511266644,0.09092533157927478
17.217992,6.356681403878897,0.09090819234784224
17.220392,6.361849088356987,0.0908932181571091
17.22278,6.3619416361556045,0.09093050642850051
17.22516,6.362546040633418,0.090983329040128
17.227556,6.3678062729101255,0.09100561489298409
17.229944,6.3795846641052805,0.0909840490616064
17.232328,6.391083516046714,0.09097706195583993
17.234724,6.403513533547926,0.09096284478318545
17.237112,6.42045960922117,0.09092432828743838
17.239492,6.436055210454055,0.09091341971671696
17.241888,6.451790581313801,0.09089533960370785
17.244276,6.471110844785799,0.09085847681469307
17.24666,6.486147367511242,0.0908767964827025
17.249056,6.501975286169605,0.09089713286697738
17.251444,6.518175291880304,0.09093974392987751
17.253823999999998,6.534375297591003,0.09098220164790352
17.256224,6.549364598488204,0.09104602133735988
17.258608,6.565285064945184,0.0911039430864287
17.260991999999998,6.584418336962079,0.09112234788550734
17.263388,6.603691378605833,0.09113519685501574
17.26578,6.624454664316808,0.09111507832993494
17.268159999999998,6.645777028535223,0.09106756230318158
17.270564,6.673105694992888,0.0909654128549062
17.272952,6.700853670331134,0.09084296058588674
17.275332,6.727298393057265,0.09070576263418248
17.277736,6.755373129477475,0.09053110723774391
17.28012,6.78680044108446,0.09031462053021294
17.2825,6.821720097505082,0.0900484658300771
17.2849,6.855336501313588,0.08976959011361493
17.287288,6.894587120309008,0.08941889415620818
17.289668,6.9353279833716455,0.08904022586932095
17.292072,6.978257938635804,0.08860306973378959
17.29446,7.02402861240754,0.0881106016298687
17.29684,7.065842306514686,0.08761653850798677
17.299236,7.108774157636714,0.08707089545615963
17.301624,7.153615561706541,0.0864800739822142
17.304004,7.197153713164254,0.08587966995128372
17.306404,7.242601417569764,0.08523839269538018
17.308792,7.283672833430105,0.0846093213391956
17.311172,7.320367960745274,0.08399511553185522
17.313568,7.351895403582353,0.08339280980471964
17.315956,7.382910989740235,0.08277978649846424
17.318336,7.408479352166306,0.0821912894681387
17.320732,7.433815397166901,0.08157907812198584
17.32312,7.460362146980994,0.0809536477659463
17.325499999999998,7.483603543436555,0.08033150069513648
17.327896,7.502189112093224,0.07973292254197673
17.330284,7.5213337592573355,0.07911595027655727
17.33268,7.537684909742111,0.07851168335340841
17.335076,7.5476576709352985,0.07793158578813444
17.337467999999998,7.554045539516235,0.07736232775485873
17.339848,7.556149667350615,0.0768349495544502
17.342244,7.557322629625215,0.07631297842337452
17.344632,7.560357923019375,0.07578504635504783
17.347016,7.56525554753309,0.07525282318840532
17.34942,7.5662887401808305,0.07474132349709649
17.351803999999998,7.56252633540282,0.0742510045353782
17.354184,7.5524780891318395,0.07380995917835938
17.35658,7.544711482860995,0.07334288917341164
17.358968,7.534803006216874,0.07289089783673262
