Time,Force,Position
17.102219999999996,0.11267534151923185,0.0
17.104604000000002,0.12180190151978093,0.0
17.106988,0.12985752633369146,0.0
17.109384,0.13870454708052013,0.0
17.111772000000002,0.15248693487996087,0.0
17.114168,0.1611941859999293,0.0
17.116563999999997,0.17558637533814686,0.0
17.118952,0.19016015907050565,0.0
17.121336,0.20245230280272716,0.0
17.123731999999997,0.20794674836278002,0.0
17.12612,0.2068758131761415,0.0
17.128504,0.20580487798950298,0.0
17.130899999999997,0.20086951093689093,0.0
17.133288,0.19379227351100184,0.0
17.135667999999995,0.18554615603889507,0.0
17.138064,0.17809143449970638,0.0
17.140451999999996,0.16849484258724068,0.0
17.142835999999996,0.15982941623455327,0.0
17.145232,0.15112216511458482,0.0
17.147619999999996,0.14031486838862034,0.0
17.15,0.1317473868955121,0.0
17.152395999999996,0.12000892460976938,0.0
17.154784,0.10934139751066513,0.0
17.157168,0.09681153929200423,0.0
17.159563999999996,0.08321424708979766,0.0
17.161947999999995,0.07315462567160101,0.0
17.164332,0.062022173208896574,0.0
17.166728,0.05428572604547262,0.0
17.169115999999995,0.059629026831449806,0.0
17.171512,0.08554862187329787,0.0
17.173912,0.12650473964059003,0.009269500775307145
17.176296,0.1747685164013793,0.01857859123732914
17.17868,0.23187552219325874,0.028104529124485498
17.181075999999997,0.30476322481525725,0.03707705700881924
17.183464,0.3925984035671757,0.04566980037856691
17.185843999999996,0.4909068250442636,0.05412235705861083
17.188243999999997,0.5985250062612655,0.06243099375890997
17.190627999999997,0.7114487457253477,0.07086012233924346
17.193011999999996,0.833117769360941,0.07930853607233418
17.195408,0.9708052043130926,0.08748423176365391
17.197795999999997,1.1182163108247767,0.09555809164997772
17.200179999999996,1.2788995538019272,0.1034411701490657
17.202576,1.446331377265134,0.11140834758769116
17.204963999999997,1.6240966738266505,0.1193507307961876
17.207347999999996,1.8107489200444071,0.12725342531601058
17.209744,2.008807470404981,0.13498221290823778
17.212131999999997,2.2120356011015136,0.14255920693807428
17.214515999999996,2.414428905752623,0.15000139751657787
17.216912,2.600716648349519,0.1575042489171721
17.219299999999997,2.770711837437099,0.1650033906753469
17.22168,2.92874353973229,0.16324647370662468
17.22408,3.0816094534072604,0.16141348517066217
17.226467999999997,3.229264252491638,0.15926145113456985
17.228848,3.359415793253199,0.15775358438673587
17.231248,3.4760682771847784,0.15659858573109278
17.233632,3.583318453577827,0.15554757451939066
17.236012000000002,3.6759041942977686,0.15482535227214947
17.238408,3.763276924569248,0.1540414664763427
17.240792,3.8398043250632194,0.1532767608942042
17.243187999999996,3.903204755779546,0.1527358213913245
17.245587999999998,3.95743519638282,0.1522759901919733
17.247971999999997,3.997792597245905,0.1521000634188051
17.250355999999996,4.03312397911563,0.15180501471275837
17.252752,4.059612131954266,0.15145625393105655
17.255136,4.0731130846421175,0.15118831559967358
17.25752,4.072368910537442,0.15112599456728465
17.259915999999997,4.062872159342424,0.15125116054285428
17.262299999999996,4.045878861840937,0.15164236417713509
17.264696,4.033261852884622,0.15194389444445622
17.2671,4.020085765420864,0.15230449969170176
17.269487999999996,4.008120382770606,0.15261079332698854
17.271867999999998,3.996387317545827,0.15295928201489647
17.274271999999996,3.983116786425584,0.15345599063804483
17.27666,3.9763644142237893,0.15378451913542954
17.279040000000002,3.969332502768274,0.15413996405520944
17.281439999999996,3.961369425752981,0.1545174482011065
17.283823999999996,3.9583417157902994,0.15475260364575058
17.286208000000002,3.958154724335196,0.15483921732738384
17.288604,3.9611805384400083,0.15481066859331458
17.290991999999996,3.956757028066594,0.15498041985869002
17.293371999999998,3.94716583321509,0.1552606942430472
17.295772,3.9382734864978874,0.15547448085738486
17.298156,3.927379039034268,0.15575264190171717
17.300539999999998,3.9136438730630703,0.1561808498781255
17.302935999999995,3.9106633849286325,0.15634217137702974
17.305324,3.910568941272146,0.1564887427093124
17.307707999999998,3.9124293765338334,0.15664468638957296
17.310103999999995,3.922530532206666,0.15658568842815554
17.312492,3.9380789116113073,0.1563984682981703
17.314872,3.9552573047100283,0.15611611848280002
17.317271999999996,3.970293827435472,0.15591110300808342
17.31966,3.9849582631085787,0.1556771466464113
17.32204,4.001252712475765,0.15535132815933803
17.324436,4.0141020388575575,0.15509944231709594
17.326824000000002,4.029233005239488,0.1547635122166149
17.329208,4.04315326680792,0.15447702066310312
17.331604,4.062567973936405,0.1540003055217508
17.333992000000002,4.082774076997806,0.15352967297308637
17.336371999999997,4.098975978566375,0.15317719641339053
17.338768,4.122906743866891,0.15260921963997504
17.341152,4.150282632152801,0.1519637860397845
17.343531999999996,4.183105744170519,0.15120342727113711
17.345936000000002,4.218070726561515,0.15037461614981346
17.34832,4.253874326713672,0.1494578544958899
17.350699999999996,4.277712544215571,0.14884123997247564
17.353104000000002,4.304531249851908,0.1480882632372341
17.355491999999998,4.332048803622546,0.14727104360289278
17.357872,4.357611478475011,0.1464643852809497
17.360276,4.375864598476109,0.14582881261542166
17.362664000000002,4.3930467832905675,0.14522814155171312
17.365043999999997,4.4100891984781665,0.14463377189377435
17.367440000000002,4.427923009598684,0.14403655633279233
17.369828,4.4480384607193395,0.1433762336194454
17.372208,4.474020444452385,0.1425857848738216
17.374612,4.492925190759542,0.14197838265671223
17.376999999999995,4.5135524985593936,0.14134081446957936
17.379379999999998,4.531478857478529,0.14083195475729168
17.381776000000002,4.545028927852491,0.14040161235879323
17.384164,4.56179180378637,0.13987829216739397
17.386544,4.575481643787194,0.13943853767967065
17.388948,4.590102649347796,0.13898033041239
17.391332,4.601278531923006,0.1385818373081775
17.393715999999998,4.610871622632377,0.1381999955567002
17.396112000000002,4.6233979796479465,0.1377563203906081
17.398496,4.640160855581826,0.13724930934387877
17.400875999999997,4.652732538567768,0.13691718779586542
17.403272,4.667166552673266,0.13655401338849266
17.405659999999997,4.677316826032211,0.13630842456825487
17.40804,4.687187560137435,0.1360829720969202
17.41044,4.7005034172280515,0.13581159945351695
17.412824,4.719825576557919,0.13540462874885037
17.415219999999998,4.739567044768366,0.13497056496175255
17.417615999999995,4.753441980366426,0.1346663683090436
17.420004,4.760519217792314,0.13450619134721603
17.422384,4.773462987830593,0.13422028146487966
17.424783999999995,4.785755131562815,0.13392925902524314
17.427168,4.794090295630446,0.13366753039296503
17.429552,4.799492193391882,0.13346494437405193
17.431948,4.799679184846985,0.13339200436104584
17.434336000000002,4.800657572235007,0.13331289804458976
17.436712,4.801775729249888,0.13322287618819717
17.439119999999996,4.80289388626477,0.13313339532812093
17.441504000000002,4.800007841786818,0.133134537458761
17.443888,4.795212244361066,0.1332306233606831
17.446284,4.794141309174427,0.13325848717189048
17.448667999999998,4.791906891002532,0.13326484604585134
17.451048,4.783945709845109,0.13338483949077637
17.453448,4.778917794993879,0.13344286876226719
17.455832,4.772679175329151,0.13354300173629158
17.458231999999995,4.763647058985089,0.133693917628445
17.460628,4.751961215588551,0.133879099112773
17.463015999999996,4.737993732191876,0.13412887313712007
17.465399999999995,4.726400436593956,0.1343629272080712
17.467796,4.717972724727708,0.13457422431056296
17.470183999999996,4.70912570398088,0.1348174222969311
17.472564,4.704003345473165,0.1349919971839778
17.474964,4.70311750588376,0.13511709666038
17.477351999999996,4.709541221145722,0.13512295940308916
17.479732,4.725556131259188,0.13494607613211743
17.482132,4.742641976559292,0.13474270049040576
17.484516,4.759588052232536,0.13455155981192227
17.4869,4.772529926412946,0.1344448225538573
17.489295999999996,4.793992060258222,0.13418351654896365
17.491680000000002,4.811077905558325,0.13397645207129164
17.494064,4.8227165271266195,0.13385757328519046
17.49646,4.839150746120665,0.1336479540799309
17.498847999999995,4.861591267353962,0.13330924209056616
17.501227999999998,4.88417155821412,0.1329631170295706
17.503631999999996,4.918345144672196,0.13240335737371284
17.50602,4.953170357436333,0.1318494254894965
17.5084,4.983851599080775,0.13139147844686894
17.510796,5.015883315165573,0.13088863798598344
17.513183999999995,5.047403174571176,0.13037081901318295
17.515568000000002,5.07813163804386,0.12986143377773587
17.517964,5.1103503455837656,0.1293004666650938
17.520351999999995,5.137261599018719,0.1288156464873665
17.522731999999998,5.160727729468281,0.12837377830907823
17.525128000000002,5.1824712984251455,0.12796058221045487
17.527512,5.197556938836701,0.12766536225285371
17.529911999999996,5.213853284061757,0.12733958526210698
17.532308,5.228706607047836,0.12701256616453901
17.534695999999997,5.248355527459666,0.12660306128547272
17.537076,5.265210951192162,0.1262447554472429
17.539479999999998,5.290214547537186,0.1257281454024955
17.541868,5.318291179815266,0.12514990388358635
17.544247999999996,5.347578516906844,0.12455356587336422
17.546644,5.374863753252005,0.12400230295263487
17.549031999999997,5.403219924783805,0.12343521685147604
17.551415999999996,5.420402109598264,0.12303106535022329
17.553812,5.437072437733527,0.1226121125926973
17.556199999999997,5.454673931428568,0.12217628891558721
17.55858,5.471995885869888,0.1217623586658913
17.560983999999998,5.489457609938066,0.12134026907999028
17.563372,5.504545146207493,0.12092713790048161
17.565751999999996,5.521495013596475,0.12049710812027657
17.568148,5.540819068784211,0.12005723899520114
17.570535999999997,5.561074289531726,0.11960474893131492
17.572916,5.578256474346185,0.11920879503134992
17.575319999999998,5.595438659160647,0.11881073244008808
17.577708,5.609408038415189,0.11847873273074386
17.580092,5.628033245468624,0.11809019131266035
17.582484,5.6440047254695855,0.11773001874749786
17.584871999999997,5.657182708791212,0.11740730671645494
17.587252,5.665006016179646,0.11719197869691476
17.589652,5.6717583883814395,0.11699838319237761
17.592039999999997,5.670781896851287,0.11691595371948808
17.59442,5.669014009388217,0.11683614739297386
17.596823999999998,5.666175186738509,0.11677681950224963
17.599212,5.667200795954773,0.11666307799026318
17.601591999999997,5.670228505917456,0.11651859197867885
17.603988,5.676608791066912,0.11630571827475583
17.606375999999997,5.6812665147236725,0.11610637954259355
17.608759999999997,5.68657586468649,0.11591431239643728
17.611156,5.693188467261425,0.11573462643656039
17.613543999999997,5.697147342783884,0.11558156919301107
17.615924,5.703667397560202,0.11536535708892864
17.618324,5.714191653829353,0.11509250860960583
17.620711999999997,5.728859881218198,0.11475382035397215
17.623092,5.743667878233903,0.11440522412182354
17.625487999999997,5.760897284876606,0.1140020024238266
17.627876,5.776124590772891,0.11363432287559742
17.630255999999996,5.794145393348513,0.1132377116354273
17.632652,5.813888757416831,0.11282966584020629
17.635039999999996,5.837776092604843,0.11235844974925102
17.637423999999996,5.8625945933526316,0.11187927042108017
17.63982,5.893791483392009,0.11133750056861094
17.642207999999997,5.926571165297224,0.11079646154022264
17.644588,5.95748851608288,0.1102764797804479
17.646983999999996,5.987474701308761,0.10976988338769986
17.649372,6.014667389855304,0.10929591505774322
17.651756,6.04092891284207,0.10883790546914343
17.654151999999996,6.070263471761891,0.10833806743905036
17.656535999999996,6.096944303629237,0.10785771130907677
17.658932,6.122321882884467,0.1073610554592116
17.661327999999997,6.141413620646726,0.10695933767882221
17.663716,6.155430221729514,0.1066325267728582
17.6661,6.164651225386549,0.10636392302145038
17.668495999999998,6.17121850199111,0.10611718228076082
17.670879999999997,6.181789980088504,0.10581972327531679
17.673263999999996,6.1911507533723995,0.10554875679084764
17.67566,6.19785779960382,0.10529745844707768
17.678047999999997,6.204984154715822,0.1050249276242988
17.680431999999996,6.207454682028931,0.10479464958010372
17.682823999999997,6.20634031672979,0.10459213935262215
17.685212,6.201361519564673,0.10443171356464738
17.687607999999997,6.189864563481108,0.10433195657905431
17.690004000000002,6.1729203836657325,0.10427648357800538
17.692391999999998,6.155045038290579,0.10422985480225838
17.694775999999997,6.136098757728788,0.10419956381543057
17.697172000000002,6.115010606793718,0.10420363034076173
17.699559999999998,6.089498945485236,0.10428436592367885
17.70194,6.056910046750864,0.1044615083688495
17.704335999999998,6.02618347913605,0.10462116361369728
17.706724,5.9961085378272925,0.10478946146442614
17.709103999999996,5.972179668384646,0.10487242208297895
17.711503999999998,5.950764756367614,0.10494493521036856
17.713887999999997,5.926928434723584,0.10507136072466282
17.716271999999996,5.899599768265918,0.10526944977881979
17.718676000000002,5.869058296248336,0.105516916485504
17.721064,5.8354437882977,0.1058120241728437
17.723444,5.799547640346926,0.10615512435769725
17.725839999999998,5.758017277209239,0.1066060959829039
17.728228,5.7262178785499165,0.10693238437379718
17.730607999999997,5.695721732502709,0.10727260457533944
17.733004,5.668950248694616,0.10757720987071966
17.735391999999997,5.650978563805107,0.10777038122010113
17.737775999999997,5.6415271385804635,0.10787074607264073
17.740172,5.6365917715278515,0.10793322992342948
17.742559999999997,5.632447800408157,0.1079950132400758
17.74494,5.634030592273993,0.10799345525021468
17.747335999999997,5.641619686379079,0.10791175113758954
17.749724,5.657729040149031,0.10773827108864274
17.752103999999996,5.677702825784957,0.10752308054072804
17.754508,5.703682913660133,0.10723306867419875
17.756895999999998,5.727241591908312,0.10699400093346212
17.759279999999997,5.749217478290654,0.10675626572362676
17.761676,5.776268501352469,0.10644768774023587
17.764063999999998,5.807603265160838,0.10606774543152138
17.766444,5.840940129715623,0.1056641745649014
17.768844,5.8781414261363825,0.10521298758168646
17.771231999999998,5.921349024796391,0.10468266506872692
17.773612,5.9719134001360095,0.10403968738803863
17.776007999999997,6.013677976557043,0.10351065200400758
17.778396,6.05344045223166,0.10300580680737043
17.780775999999996,6.095205028652693,0.10248117644558044
17.783172,6.128961202088059,0.1020637457694237
17.785559999999997,6.156059446978116,0.1017197455971372
17.787959999999998,6.182366295935257,0.10138115216291106
17.790355999999996,6.207741979332617,0.10105013810705749
17.792744,6.231255331610422,0.10074002525361357
17.795124,6.254117057582168,0.10042770951852321
17.797523999999996,6.276606696501577,0.10009899460355423
17.799912,6.292158867621958,0.09984977058207038
17.802292,6.299982175010392,0.09968010342757644
17.804691999999996,6.313439697585739,0.09942007528587189
17.80708,6.328759551280642,0.09914523753396845
17.809464,6.343427778669486,0.0988654586599791
17.811859999999996,6.360098106804748,0.09856692908997175
17.814248,6.372904003074036,0.09830557192941936
17.816628,6.388131308970323,0.09800286732273127
17.819024,6.3973523126273575,0.0977659440974574
17.821412000000002,6.40149817960492,0.09758847556339227
17.823796,6.408856852142399,0.09736672593830384
17.826192,6.41677460318732,0.09711431790683994
17.828580000000002,6.422178396806625,0.09687014890304933
17.830964,6.432657327105402,0.09656816382009614
17.833363999999996,6.446721150016432,0.09624559751735061
17.835752,6.459062411434765,0.09593151903150063
17.838136,6.472614377666599,0.09559551811201596
17.840536,6.487097509458208,0.09525496973945463
17.842923999999996,6.499299001249683,0.09495198262890917
17.845307999999996,6.5062855867348235,0.09471318897085662
17.847712,6.5163452081530195,0.09443813041054097
17.850099999999998,6.531200426996968,0.09412185807906089
17.85248,6.5394902650942255,0.09389879881174593
17.85488,6.547780103191483,0.09367682653838456
17.857267999999998,6.5559301716618785,0.09346357316283678
17.859648,6.5590051034528045,0.09330512320795092
17.862048,6.567946567856119,0.09309443789246916
17.864432,6.570741960393321,0.09295122090354282
17.866816,6.5776813240502205,0.09276046455349188
17.869211999999997,6.587833493267036,0.09252985262894818
17.8716,6.597426583976409,0.09232818703792572
17.873984,6.609673401738256,0.09211563788847094
17.876379999999997,6.6194988098731065,0.0919438060678754
17.878768,6.628253282821318,0.09178671453007
17.881152,6.636356129463471,0.09162276604306895
17.883547999999998,6.643388040918986,0.0914720546898416
17.885936,6.652142513867197,0.09131716935209563
17.888315999999996,6.6590346556958515,0.09117509130007456
17.890712,6.666997732711145,0.09102041893652978
17.893099999999997,6.67468127047272,0.09087845772860179
17.89548,6.68450667860757,0.09071150414298246
17.897888000000002,6.69419231711556,0.09055319470912908
17.900272,6.706299365250547,0.0903545222870164
17.902651999999996,6.717195708572036,0.09017607187918246
17.905048,6.724879246333609,0.09003605228894099
17.907435999999997,6.733354180028099,0.08989619725548059
17.909816,6.7362421203639204,0.08979258879587933
17.912219999999998,6.744996593312131,0.0896400225550631
17.914608,6.7533317573797635,0.08950901103563826
17.916987999999996,6.758314346260619,0.089423531197436
17.919384,6.763436704768335,0.08933104457530285
17.921771999999997,6.766696732156494,0.08925049565646434
17.924152,6.774100730664347,0.08912640795661884
17.926547999999997,6.78164449879906,0.08899620932498495
17.928936,6.786906626933636,0.08889802681425638
17.93132,6.791097819881573,0.08881196196495798
17.933715999999997,6.794357847269732,0.08873208602432389
17.936104,6.795615773911474,0.08867012836320015
17.938483999999995,6.795290908687379,0.08860569936302168
17.94088,6.800320719396477,0.08847926205207929
17.943267999999996,6.807212861225131,0.08834373116468894
17.945648,6.8114512760013115,0.08821805857049335
17.948043999999996,6.818483187456827,0.08807741694426717
17.950432,6.825282781486864,0.0879084737807998
17.952812,6.8372972818232345,0.08768699844995217
17.955216,6.853595522906159,0.08741909995056336
17.957603999999996,6.87161632548178,0.08714717346843105
17.959984,6.8848415306316495,0.08690887028752899
17.962379999999996,6.899696749475597,0.08663405428561435
17.964768,6.916181982013625,0.08632106441758221
17.967152,6.933086523432234,0.08598882316345069
17.969547999999996,6.951621078544922,0.08562072626280431
17.971936,6.968433072164913,0.0852583061910283
17.974328,6.985245065784905,0.08489799609234461
17.976723999999997,7.004618238658754,0.08449608006201281
17.979112,7.027064447465659,0.08406653652487939
17.981491999999996,7.048719260339645,0.08363682370809297
17.983896,7.07158477802713,0.08318764459949432
17.986283999999998,7.096172857207312,0.08273705473583015
17.988664,7.116105108588602,0.08231243185155178
17.991068,7.129379431424583,0.08192843696245812
17.993456000000002,7.1423742150068446,0.08155665186134514
17.995835999999997,7.149642235603575,0.08121924051646338
17.998232,7.159563983252781,0.08087631065738242
18.000619999999998,7.163479428662736,0.08057985073662711
18.003003999999997,7.163530442206718,0.08030855755804474
18.0054,7.164792160564198,0.08002071935649807
18.007787999999998,7.171780641907208,0.07970187910990012
18.010168,7.175696087317163,0.07940955561158465
18.012568,7.180123389406316,0.07913294479664248
18.014952,7.185342087428387,0.07885940464188772
18.017336,7.1867889013831014,0.07864227829712393
18.019732,7.1880959457109554,0.07843172063538562
18.02212,7.185538558172837,0.07824305396223336
18.0245,7.1848435017542736,0.07804764974137969
18.0269,7.184008675708851,0.07785906043721384
18.029284,7.181963144849931,0.07768657896058787
18.031668,7.186855081790037,0.07747068196130062
18.034068,7.188534213170229,0.07728427064242929
