Time,Force,Position
17.429612,0.004651034931943365,0.0
17.432000000000002,0.0090265992248448,0.0
17.43438,0.013541933144606444,0.0
17.436784,0.018336806318088504,0.0
17.439172,0.025273549864847634,0.0
17.441552,0.03127912785182844,0.0
17.443952,0.03849541065230798,0.0
17.446336,0.046782628639426053,0.0
17.44872,0.05199681069348875,0.0
17.451116,0.05800238868046956,0.0
17.453504,0.05669913606835375,0.0
17.455884,0.0572102684952817,0.0
17.458284,0.056978675322074186,0.0
17.460672,0.055955686215948555,0.0
17.463052,0.055955686215948555,0.0
17.465456,0.055955686215948555,0.0
17.467844,0.056187279389156075,0.0
17.470228,0.056187279389156075,0.0
17.472624,0.056187279389156075,0.0
17.475012,0.056187279389156075,0.0
17.477392000000002,0.05488475102931002,0.0
17.479788,0.05050918673640859,0.0
17.482176,0.045993852816646946,0.0
17.484556,0.04119897964316488,0.0
17.48696,0.03426223609640576,0.0
17.489348,0.028256658109424952,0.0
17.491728000000002,0.021040375308945404,0.0
17.494128,0.012753157321827326,0.0
17.496516,0.008282425120169842,0.0
17.498896000000002,0.0022768471331890356,0.0
17.501292,0.0030210212378639946,0.0
17.50368,0.0032533386633412636,0.0
17.506064000000002,0.005719350008442905,0.0
17.50846,0.006183260607127695,0.0
17.510848,0.010791142325506398,0.0
17.513228,0.01511948479016468,0.0
17.515624,0.01628296777542027,0.0
17.518012,0.01739850468016296,0.0
17.520392,0.01744310639826712,0.0
17.522796,0.01855864330300981,0.0
17.525184,0.019674180207752502,0.0
17.527568,0.019674180207752506,0.0
17.529964,0.019674180207752506,0.0
17.532356,0.019674180207752506,0.0
17.534736,0.020649947485634985,0.0
17.537136,0.020834318830599354,0.0
17.539524,0.020834318830599354,0.0
17.541904,0.020834318830599354,0.0
17.544304,0.020090868978194145,0.0
17.546692,0.020090868978194145,0.0
17.549072,0.01855602319287082,0.0
17.551468,0.017812573340465612,0.0
17.553856,0.015346561995363972,0.0
17.556236000000002,0.014882651396679181,0.0
17.558644,0.010274769678300476,0.0
17.561032,0.005946427213642193,0.0
17.563412,0.004551351055179083,0.0
17.565812,0.0034358141504363922,0.0
17.5682,0.003391212432332232,0.0
17.57058,0.002275675527589541,0.0
17.57298,0.001251962169194161,0.0
17.575368,0.0033458864619583233,0.0
17.577752,0.006650515568221226,0.0
17.580148,0.01088631023426245,0.0
17.582536,0.016148438368838045,0.0
17.58492,0.021131027249693218,0.0
17.587316,0.02443565635595612,0.0
17.589704,0.026669350275580497,0.0
17.592084,0.02890304419520487,0.0
17.594484,0.03099696848796903,0.0
17.596872,0.03416182796737172,0.0
17.599256,0.037047148193054,0.0
17.601652,0.03914107248581815,0.0
17.60404,0.043097327898138964,0.0
17.606424,0.045842878496961025,0.0
17.60882,0.049519594655561404,0.0
17.611212000000002,0.05212537562752326,0.0
17.613592,0.05212537562752326,0.0
17.615992000000002,0.05212537562752326,0.0
17.618380000000002,0.05212537562752326,0.0
17.620764,0.052033552081175945,0.0
17.623160000000002,0.04993962778841178,0.0
17.625552,0.04663499868214888,0.0
17.627932,0.04239920401610765,0.0
17.630332,0.03616130860364958,0.0
17.63272,0.030994348377830036,0.0
17.635104000000002,0.02768971927156713,0.0
17.637504,0.02545602535194276,0.0
17.639892,0.023453924605525908,0.0
17.642272000000002,0.02159159348596927,0.0
17.644672,0.018518557552913886,0.0
17.64706,0.016656226433357246,0.0
17.649440000000002,0.017447622366275357,0.0
17.651844,0.013491366953954554,0.0
17.654232,0.0108376399014798,0.0
17.656612,0.007160923742879419,0.0
17.659016,0.004555142770917567,0.0
17.6614,0.00865116781009858,0.0
17.66378,0.011955796916361484,0.0
17.666184,0.015120656395764176,0.0
17.668572,0.017494119942248757,0.0
17.670952,0.02000735311559355,0.0
17.673348,0.021589420729160022,0.0
17.675736,0.025173589089143345,0.0
17.678116,0.030620088568683312,0.0
17.68052,0.03206238655538957,0.0
17.682908,0.03443585010187415,0.0
17.685288,0.03974257995455391,0.0
17.687684,0.04281561588760929,0.0
17.690072,0.047099356634163425,0.0
17.692452,0.05045193182093922,0.0
17.694856,0.053013111074796906,0.0
17.697244,0.05585382958237502,0.0
17.699624,0.06358196906205225,0.0
17.70202,0.07336015536865925,0.0
17.704404,0.08430110040825206,0.0
17.706784,0.09645275026134363,0.0
17.709184,0.10529977100817231,0.0
17.711568,0.11479841806105885,0.0
17.713952,0.12243473399438878,0.0
17.716348,0.12872057548735977,0.0
17.718732,0.13486664735347054,0.0
17.721112,0.1398020144060826,0.0
17.72352,0.14259551108541751,0.0
17.725904,0.14473738145869458,0.0
17.728288,0.15167484925772343,0.0
17.730684,0.15647044668347523,0.0
17.733072,0.15712207298953312,0.0
17.735452,0.16070696560178624,0.0
17.737848,0.16387254933345868,0.0
17.740236,0.1691800034384082,0.0
17.742616,0.17341652235671917,0.0
17.745012,0.17350907015533623,0.0
17.7474,0.16945764683425937,0.0
17.74978,0.16112248276662838,0.0
17.75218,0.15018153772703555,0.0
17.754564000000002,0.138029887873944,0.0
17.756944,0.1250868420879343,0.0
17.759344,0.11228356592878486,0.0
17.761732000000002,0.10148239051605223,0.0
17.764112,0.09282308547659668,0.0
17.766516,0.08416378043714112,0.0
17.768904,0.07983281786234384,0.0
17.771284,0.07685232972790551,0.0
17.77368,0.07252136715310825,0.0
17.776068,0.06954087901866991,0.0
17.778452,0.06777109569773034,0.0
17.780848,0.06441852051095454,0.0
17.783236,0.05799290939112336,0.0
17.785616,0.05031199173968927,0.0
17.788012000000002,0.04156013890161665,0.0
17.7904,0.03373945162332235,0.0
17.79278,0.027920865091444907,0.0
17.795176,0.02424414893284452,0.0
17.797564,0.0227093031475212,0.0
17.799948,0.0227093031475212,0.0
17.802352,0.023312983373066202,0.0
17.80474,0.023312983373066202,0.0
17.80712,0.02331298337306621,0.0
17.809516000000002,0.02331298337306621,0.0
17.811904000000002,0.02331298337306621,0.0
17.814284,0.02331298337306621,0.0
17.816684,0.02112651128168499,0.0
17.819072000000002,0.017729334376805024,0.0
17.821452,0.01447192709878527,0.0
17.823848,0.009072649447488456,0.0
17.826236,0.003673371796191643,0.0
17.828616,0.003580823997574584,0.0
17.831016,0.0068408513857333274,0.0
17.833404,0.00856268862616001,0.0
17.835784,0.014428496986280605,0.0
17.83818,0.02122547090617952,0.0
17.840568,0.026951509639439906,0.0
17.842948,0.03467964911911714,0.0
17.845348,0.043338954158572696,0.0
17.847736,0.05400035994444511,0.0
17.850132000000002,0.06219575438521587,0.0
17.852528,0.07271739054422807,0.0
17.854916,0.07923482521040656,0.0
17.857296,0.08640388618264294,0.0
17.859692,0.09278155122196123,0.0
17.86208,0.0982280507015012,0.0
17.86446,0.10339501092732076,0.0
17.866856000000002,0.10949313671291862,0.0
17.869244000000002,0.11438055768501773,0.0
17.87162,0.11819704347047834,0.0
17.874028,0.11894049332288355,0.0
17.876412000000002,0.11642726014953875,0.0
17.878792,0.11270332216269521,0.0
17.881188,0.11158516514781354,0.0
17.883576,0.10571935678769295,0.0
17.88596,0.09892238286779403,0.0
17.888356,0.09319634413453365,0.0
17.890744,0.0854682046548564,0.0
17.893128,0.07680889961540084,0.0
17.895524,0.06614749382952843,0.0
17.897912,0.057348419163212684,0.0
17.900308,0.04682678300420048,0.0
17.902704,0.04091302856356698,0.0
17.905092,0.03756045337679119,0.0
17.907472000000002,0.037001374869350345,0.0
17.909868,0.03844439710832636,0.0
17.912256,0.03816485785460594,0.0
17.914636,0.03588321785446866,0.0
17.917032,0.031879016361634954,0.0
17.91942,0.031879016361634954,0.0
17.921804,0.03495205229469034,0.0
17.9242,0.039048077333871355,0.0
17.926588,0.04193339755955362,0.0
17.928972,0.04221293681327404,0.0
17.931368,0.044167091479177994,0.0
17.933756,0.047983577264638595,0.0
17.936136,0.053941933423376255,0.0
17.938532000000002,0.06083145514189223,0.0
17.940920000000002,0.06865214242018652,0.0
17.943304,0.07754376488511935,0.0
17.9457,0.08443328660363533,0.0
17.948088000000002,0.08652721089639949,0.0
17.950468,0.08708628940384033,0.0
17.952864,0.08326980361837973,0.0
17.955256000000002,0.07745121708650228,0.0
17.957636,0.0705616953679863,0.0
17.960032,0.06567427439588719,0.0
17.96242,0.061857788610426595,0.0
17.96482,0.061066392677508484,0.0
17.967216,0.05724990689204789,0.0
17.969604,0.053433421106587296,0.0
17.971984,0.05171085961389087,0.0
17.97438,0.05040760700177507,0.0
17.976768,0.051106455136076125,0.0
17.979148000000002,0.049663432897100124,0.0
17.981544,0.04663761879228789,0.0
17.983932,0.04067926263355023,0.0
17.986316,0.03378974091503425,0.0
17.988712,0.02596905363673995,0.0
17.991096,0.01707743117180712,0.0
17.99348,0.010187909453291146,0.0
17.995876,0.008093985160526984,0.0
17.998264,0.006931226427541142,0.0
18.000644,0.006931226427541142,0.0
18.003040000000002,0.006931226427541142,0.0
18.005428000000002,0.006931226427541142,0.0
18.007824,0.006931226427541143,0.0
18.01022,0.006931226427541143,0.0
18.012608,0.006839402881193833,0.0
18.014992,0.006839402881193833,0.0
18.017388,0.006839402881193833,0.0
18.019776,0.004465939334709249,0.0
18.022156,0.00720652661219333,0.0
18.02456,0.017719407734129056,0.0
18.026948,0.04080018012626826,0.0
18.029328,0.07523813897511217,0.0
18.031724,0.12173140816269212,0.01029495078974219
18.034112,0.17818606339624393,0.019992984965388354
18.036492,0.24418279579518698,0.029409792835685546
18.0389,0.32074531871791656,0.03868555974928715
18.041284,0.4097359632839895,0.04771279684693028
18.043668,0.5112944991202658,0.0565234247904449
18.046064,0.6266788528684876,0.0649376587894625
18.048448,0.7481601607967076,0.07343691687556637
18.050828,0.8733170132779284,0.08219792245613683
18.053232,1.0082482603500178,0.09095242365379586
18.05562,1.1541646068264748,0.09962059035867249
18.058,1.3125562967745181,0.10810460128984001
18.060392,1.4750428401561426,0.11673712911828979
18.06278,1.6426951721579874,0.12545795420266864
18.06516,1.814861666473994,0.13426229985199822
18.06756,1.9971765382910762,0.14286699536298028
18.069948,2.183269706001392,0.1512291061476433
18.072328,2.362708736882138,0.1594710304521879
18.074724,2.524971270522032,0.1678255549506369
18.077112,2.6680079843464144,0.17644512325487008
18.079496,2.802154247311463,0.17472191395463466
18.081892,2.928433772775574,0.17358077831537538
18.08428,3.042517494021819,0.17280027806157314
18.086676,3.141566588400489,0.1722264563009008
18.089072,3.2251617470310037,0.17195247226035104
18.091456,3.2931159784582595,0.17203442332173283
18.093836,3.3454746086526304,0.17265439683197017
18.09624,3.393179306905979,0.17316898710406708
18.098628,3.438419165419825,0.1733508335669553
18.101012,3.4736523119173253,0.17348806368605646
18.103408,3.497620819756738,0.17374637535329315
18.105796,3.513070963789155,0.1740990286284873
18.108176,3.5317358092393567,0.17405464621670186
18.110576,3.5497981460696137,0.1737038339820145
18.11296,3.56446447760059,0.17314624323518107
18.115344,3.565537308645097,0.17287588618784103
18.11774,3.556879175211241,0.17295757625378907
18.120128,3.5484061373746187,0.1731610718160348
18.122508,3.5497566118149773,0.1730853488782317
18.124904,3.5629799211069773,0.17257033090011853
18.127292,3.569033445174471,0.17226067081299754
18.129676,3.5736439470029886,0.17196727673772672
18.132072,3.588589817787685,0.17141584681564795
18.13446,3.6151743101406755,0.17061734375170684
18.13684,3.64371368141184,0.16980700968115583
18.139236,3.672951900817305,0.16889273525258078
18.141628,3.702609429103352,0.16790607039017102
18.144008,3.731987418135678,0.16695812808072347
18.146404,3.7615977245934804,0.1660709464305862
18.148796,3.788507082170565,0.1653294652620272
18.151176,3.8103885248964215,0.16469112246996392
18.153572,3.82659042646499,0.16418522695008841
18.155956,3.8387881265407255,0.16385814163063964
18.158352,3.84851719516122,0.1637386408474208
18.160748,3.8589904378863893,0.1636871578339851
18.163136,3.8734678821043924,0.1634903922581174
18.165516,3.890646275203114,0.16314299259467505
18.167912,3.908476294607893,0.16279956745799545
18.170304,3.9261193225575686,0.16256246715203979
18.172684,3.9414807105071072,0.16243511222849458
18.17508,3.964338644763115,0.1620197937010657
18.177468,3.9869642615936463,0.16156296866913775
18.179852,3.999766366147196,0.1613601804082988
18.182256,4.005770772528577,0.16136829443848438
18.184644,4.015919150029653,0.16123738781927008
18.187024,4.029792189769841,0.1610078710658249
18.189424,4.042222207271053,0.16078035119684286
18.191812,4.056282238466346,0.16046323297096593
18.194192,4.076069032647167,0.16000040478439756
18.196588,4.105167482425772,0.15930553287941773
18.198976,4.144368983735078,0.1583589207528919
18.20136,4.184222111350443,0.15740159426544167
18.203756,4.221701051167053,0.15649390552106657
18.206144,4.258528364677605,0.15559237769376652
18.208528,4.295215908561296,0.154718378138406
18.210924,4.333998100990023,0.15385550613961785
18.213312,4.370917962299193,0.15304150325981963
18.215692,4.404439922451212,0.1522258169620593
18.218088,4.434796298871559,0.15146266633977803
18.220476,4.467526863090661,0.15069193426794522
18.222856,4.497416708802184,0.15006297760902915
18.225256,4.52488514488671,0.14952335296225264
18.227644,4.551422415411457,0.14898960318469245
18.230024,4.57544572851059,0.14848964740591722
18.23242,4.597047631982726,0.14809276000255653
18.234808,4.622234428067114,0.14763778699559582
18.237188,4.651425425644336,0.14706967868371468
18.239584,4.678102465795945,0.14655005321235598
18.241976,4.694955993670572,0.14623191189458906
18.244356,4.703568801134054,0.14608991647653075
18.246756,4.706734384865726,0.1460579968080872
18.249144,4.708596715985283,0.1460180163975888
18.251528,4.705011823373029,0.14608719523121347
18.253924,4.698401116655964,0.14617788859373948
18.256312,4.688996913259564,0.14632943494453204
18.258692,4.674936882064273,0.14658238101424373
18.261092,4.660876850868981,0.14683671758042638
18.26348,4.645186805979608,0.1471780312813222
18.26586,4.627494660343819,0.14757500459695627
18.268256,4.604075751722501,0.14810540232096842
18.270644,4.583450339780519,0.1485690503365012
18.273044,4.564827028584953,0.1489834497856632
18.27544,4.55169816294944,0.14922178446079631
18.277828,4.540850937314063,0.1493843499395977
18.280212,4.527070445372491,0.14962528072978343
18.282608,4.505002011191532,0.150107124399037
18.284996,4.482933577010573,0.15058201704702304
18.28738,4.458583502829478,0.15113880360853352
18.289776,4.437538782006913,0.1516527272166884
18.292164,4.4179370834233245,0.1521669679875128
18.294544,4.403922378198406,0.15254467849489445
18.296944,4.394144191891799,0.15285415620486215
18.299328,4.39060462524992,0.15304329539024375
18.301712,4.39195320383241,0.15316640476105672
18.304108,4.397957610213792,0.15318494378033404
18.306496,4.407966218088006,0.15309602593604899
18.308876,4.420628553014697,0.15295798143360886
18.31128,4.44437232686011,0.1525301659799044
18.313668,4.468535409586103,0.1520617155327746
18.316052,4.494468275633036,0.15149827127238522
18.318448,4.518538810560412,0.1509830892226946
18.320836,4.544611446234205,0.1504205780341438
18.32322,4.568122902654141,0.14996389367614837
18.325616,4.592425755006993,0.14950178299905004
18.328004,4.621943513666179,0.1488939428854781
18.330388,4.658026653072056,0.1480828241815498
18.332784,4.695552814716909,0.14728096879802957
18.335172,4.736803638600875,0.14639751280980037
18.337556,4.776471670619006,0.1455278123551992
18.339952,4.816838550771438,0.14459817162630464
18.34234,4.849197027938202,0.14387980192843688
18.34472,4.8847683106648825,0.14309192896836176
18.347116,4.919548197458642,0.14231925009654342
18.349504,4.949579708654895,0.14159655036264382
18.351888,4.972301664999781,0.1410105939845274
18.354284,4.993952686158029,0.1404607582670429
18.356672,5.010668340263665,0.140022180008797
18.359052,5.016442325077439,0.13984462523998226
18.361452,5.02407864101077,0.13963174197447226
18.36384,5.03143541769038,0.13944174665952702
18.36622,5.039351272877429,0.1392097572918388
18.368616,5.04605642325098,0.13901895191944974
18.371004,5.055974379184447,0.13874638399573422
18.373388,5.065380478438718,0.1384603830205985
18.375784,5.070550058774676,0.1382287460587632
18.378172,5.073298229483638,0.13807507766666569
18.380556,5.076186169819458,0.13791309999372195
18.382952,5.078702023102942,0.13772709664082594
18.38534,5.083779055640283,0.13745837191385588
18.38772,5.089135627431346,0.1371701417122083
18.39012,5.098216861461521,0.13681608555166225
18.392508,5.101663880304782,0.13661626411707778
18.394892,5.104459272841987,0.13641229879742658
18.397288,5.109116996498747,0.13617703776788817
18.399676,5.119641252767899,0.13582681844442576
18.402056,5.1269527034771345,0.135552813481546
18.404464,5.142132787545178,0.13512399375927936
18.406852,5.161596612359773,0.134589278981512
18.409232,5.1816195156818114,0.13401993312822832
18.411632,5.2005714838172095,0.13347532609810858
18.41402,5.215751567885253,0.133047380618263
18.4164,5.232282126393655,0.13257751599214918
18.418796,5.244948253036084,0.1321827411832464
18.421184,5.25747461005165,0.1317998135484701
18.423568,5.272095615612254,0.13142204931902404
18.425968,5.282852189306882,0.1311121985263538
18.428356,5.289092704829479,0.1308693026996364
18.430736,5.291189249232382,0.13071704106953655
18.433136,5.2915160103143455,0.13064114427345558
18.435524,5.293657880687623,0.13059131059569865
18.437908,5.2982211606878975,0.13047292153875734
18.440308,5.305625159195749,0.13025649088421162
18.442696,5.3138205536365195,0.13003661679280143
18.44508,5.320385934383211,0.12988032926151696
18.447476,5.327742711062821,0.1297223393079409
18.449864,5.340314394048764,0.1294543951391237
18.452248,5.348370018862673,0.12925112773990804
18.454644,5.354935399609365,0.12910107041456628
18.457036,5.356657961102062,0.12908302062981894
18.459416,5.359032148900815,0.12907023561520334
18.461812,5.36303635039365,0.12899416440305353
18.4642,5.3627568111399295,0.129013663614726
18.466584,5.363128898192269,0.12903855350714918
18.46898,5.3648042378567204,0.12907410721868193
18.471368,5.365408642334535,0.12913340909503385
18.473748,5.3730902842382395,0.12905539729133275
18.476148,5.380492386888222,0.1289956041891258
18.478532,5.392690086963958,0.12885438504009472
18.480916,5.403816851853055,0.12873605951325415
18.483312,5.411498493756758,0.12865571907747048
18.4857,5.41410499898099,0.1286768125439565
18.48808,5.412427763458668,0.12879417591611894
18.49048,5.408748427189928,0.12894974991577743
18.492868,5.407350730921327,0.12904755243234056
18.495252,5.399806962786615,0.1292705080195867
18.497648,5.388398762785927,0.12955867577781383
18.500036,5.376711023531521,0.1298657628098876
18.50242,5.363952349090476,0.13019864243457616
18.504816,5.356268811328903,0.13043199749180562
18.507204,5.351937848754105,0.13058185009274953
18.509584,5.350400382858643,0.13068869389441695
18.511984,5.354217592896374,0.13067651006026534
18.514372,5.3603164429342405,0.13060781282885697
18.516752,5.368045306666188,0.13047920516776515
18.519152,5.378475119278852,0.13026765891292755
18.521536,5.3861114352121815,0.13009987985586138
18.52392,5.396820787078566,0.12987290664528883
18.526316,5.407390369318092,0.12965802290990155
18.528704,5.420381361184615,0.12937962015271867
18.531088,5.435793762678136,0.12903834944489803
18.533488,5.45507059603763,0.12863487875966234
18.535876,5.476349530143538,0.12819282309655772
18.538256,5.4974886946225885,0.12775719297555674
18.540656,5.5167655279820815,0.1273491596252886
18.543044,5.539674475782071,0.12684044968617875
18.545424,5.562723193208921,0.12631990682279556
18.54782,5.585771910635771,0.12579936395941238
18.550208,5.613523677689756,0.12516337410831063
18.552592,5.641554983997461,0.12451683875347275
18.554988,5.665582088812333,0.12394609724651465
18.55738,5.690680128813843,0.12336244108475493
18.55976,5.712705132882297,0.12284165496229776
18.562156,5.732867805831195,0.12235033911592892
18.564544,5.74902627728726,0.12193034651127291
18.566928,5.763414965422384,0.12157993550831439
18.569324,5.775522013557372,0.12128078921325997
18.571716,5.7934955943047495,0.12090073748690737
18.574096,5.812679879865627,0.12049730126481754
18.576492,5.829722295053226,0.12013492541056082
18.57888,5.847556106173743,0.11977429051730652
18.581264,5.865809226174842,0.11939264178324537
18.583664,5.887275151735856,0.11895656307927374
