Time,Force,Position
19.631092,0.03140411969188623,0.0
19.63348,0.02590967413183336,0.0
19.63586,0.023208725251115458,0.0
19.63826,0.0217184811838963,0.0
19.640648,0.02250987711681441,0.0
19.643032,0.029726884169563705,0.0
19.645428,0.04136740159572733,0.0
19.647816,0.057366311379940985,0.0
19.6502,0.07100892955252146,0.0
19.652596,0.08821854415023385,0.0
19.654988,0.1032862883746692,0.0
19.657368,0.1132788959196323,0.0
19.659768,0.12019846753154004,0.0
19.662156,0.11968661085234235,0.0
19.66454,0.12539547765075132,0.0
19.66694,0.1311043444491603,0.0
19.669328,0.13538808519571444,0.0
19.671708,0.14202811755390177,0.0
19.6741,0.14866814991208907,0.0
19.676488,0.1540974774567776,0.0
19.678868,0.15659353869527098,0.0
19.681272,0.15608168201607328,0.0
19.683656,0.1520028289117437,0.0
19.686036,0.14685304062077553,0.0
19.68844,0.14049254751630866,0.0
19.690828,0.1309192488519262,0.0
19.693208,0.11799337500076791,0.0
19.695604,0.10199446521655425,0.0
19.697988,0.08799765617875746,0.0
19.700368,0.07078804158104506,0.0
19.702764,0.055720297356609716,0.0
19.705152,0.04572768981164661,0.0
19.707532,0.038808118199738895,0.0
19.709932,0.03908765745345931,0.0
19.712316,0.0344318296545677,0.0
19.714696,0.029776001855676103,0.0
19.717092,0.02740181405692177,0.0
19.71948,0.020883655138473522,0.0
19.721876,0.014243622780286224,0.0
19.724272,0.008814295235597661,0.0
19.72666,0.006318233997104272,0.0
19.72904,0.0056845038781675235,0.0
19.73144,0.0056845038781675235,0.0
19.733824,0.008739643624101753,0.0
19.736204,0.008739643624101753,0.0
19.738608,0.008739643624101753,0.0
19.740996,0.008739643624101753,0.0
19.743376,0.008739643624101753,0.0
19.745772,0.008739643624101753,0.0
19.74816,0.008739643624101753,0.0
19.75054,0.008739643624101753,0.0
19.752944,0.008739643624101755,0.0
19.755332,0.008739643624101755,0.0
19.757712,0.007546834997724165,0.0
19.760116,0.0064937959982067864,0.0
19.762504,0.005440756998689407,0.0
19.764884,0.0031770131856732877,0.0
19.76728,0.0030551397459342294,0.0
19.769668,0.00305513974593423,0.0
19.772048,0.00305513974593423,0.0
19.774444,0.00305513974593423,0.0
19.776832,0.00305513974593423,0.0
19.779212,0.00305513974593423,0.0
19.781608,0.0,0.0
19.783992,0.0,0.0
19.786388,0.0029153701190740198,0.0
19.788784,0.003968409118591398,0.0
19.791172,0.0048816784912485665,0.0
19.793552,0.007797048610322587,0.0
19.795948,0.008710317982979755,0.0
19.798336,0.008710317982979755,0.0
19.800716,0.008710317982979755,0.0
19.803124,0.008710317982979755,0.0
19.805508,0.009483817728776713,0.0
19.807892,0.009483817728776713,0.0
19.810288,0.010536856728294092,0.0
19.812672,0.010536856728294092,0.0
19.815052,0.010536856728294092,0.0
19.817452,0.010536856728294092,0.0
19.819836,0.010536856728294092,0.0
19.82222,0.010536856728294092,0.0
19.824616,0.010536856728294092,0.0
19.827004,0.010536856728294092,0.0
19.8294,0.010536856728294092,0.0
19.831796,0.010536856728294094,0.0
19.834184,0.007621486609220074,0.0
19.836564,0.006568447609702694,0.0
19.83896,0.005655178237045526,0.0
19.841348,0.003141220811430984,0.0
19.843728,0.002769133759093505,0.0
19.846124,0.007454287199107106,0.0
19.848512,0.011208275079342387,0.0
19.850892,0.01589342851935599,0.0
19.853292,0.01952554295985221,0.0
19.85568,0.02672465382548035,0.0
19.85806,0.03301049531845132,0.0
19.860456,0.03927844062430114,0.0
19.862844,0.0472689474228474,0.0
19.86524,0.056050850154311764,0.0
19.867636,0.06697462325905319,0.0
19.870024,0.07882956192357293,0.0
19.872404,0.0877512342818975,0.0
19.874804,0.09481057552066542,0.0
19.877188,0.10173014713257315,0.0
19.879572,0.11051204986403751,0.0
19.881968,0.11687254296850441,0.0
19.884356,0.12337280569983147,0.0
19.88674,0.1275914284310213,0.0
19.889136,0.13029048145386996,0.0
19.891524,0.13368648675315042,0.0
19.893908,0.13093452432845087,0.0
19.896312,0.1349311423898076,0.0
19.8987,0.14805052873597493,0.0
19.90108,0.1749485111658445,0.0
19.903476,0.20803599557432945,0.0
19.905864,0.24759252121515024,0.01042706758650818
19.908244,0.2991125336483598,0.020118841274675253
19.910644,0.3598950839932401,0.029477728129104964
19.913032,0.4303122593021287,0.03874608770766995
19.915412,0.5098049810675849,0.04790806080460281
19.917816,0.6004225718642684,0.056812781189357675
19.920204,0.7027241101996202,0.06564661094720294
19.922584,0.8154988912601415,0.0744443830661003
19.92498,0.9401899372848086,0.08311987186413165
19.927372,1.0715823419672885,0.09187844375685048
19.929752,1.2158693990019356,0.10053400504943422
19.932148,1.3667652668957788,0.1092459062053733
19.934532,1.5288332256490924,0.11790293974741069
19.936912,1.6990474611570647,0.1265774002571607
19.93932,1.8780142737553789,0.1351239437148489
19.941704,2.0726258052726907,0.14333735701857953
19.944084,2.267798311155313,0.1513780508577581
19.946484,2.4474696594615364,0.15956404275790195
19.948868,2.6084742664596887,0.16787368314344295
19.951252,2.7597970266655896,0.1762582191565708
19.953648,2.9103302867964413,0.17409099533832717
19.956036,3.053276348680076,0.17259308925587508
19.958416,3.180069626681254,0.17154986662031554
19.960812,3.2936906089344133,0.17060725442561353
19.963204,3.3918576554394178,0.16987167992822888
19.965584,3.4716828258604444,0.16965728161989949
19.96798,3.5431294021013358,0.16954571269717253
19.970368,3.6068962322963927,0.16943812703010494
19.972752,3.6558607530493523,0.16950166549491152
19.975148,3.694027165853048,0.16951572438306917
19.977536,3.723814984476608,0.16961542971841984
19.979916,3.7525337637713982,0.16953068726680923
19.982312,3.7787404814984438,0.16930502483230347
19.9847,3.8035532946726263,0.1688181520858882
19.987096,3.8176133258679177,0.16844151107958533
19.989492,3.8128177284421665,0.16859761098917395
19.99188,3.802015828777164,0.16895741921146257
19.99426,3.8021083765757813,0.16901677898463652
19.99666,3.8077879177330685,0.1689091367560628
19.999048,3.812351197733343,0.16870736911084092
20.001428,3.805368403963941,0.16881497395780937
20.003824,3.793170703888206,0.16912490026891155
20.006212,3.791028833514928,0.16921156212010546
20.008592,3.798011627284331,0.16910669329618291
20.010988,3.8104416447855445,0.16884576661517556
20.013376,3.8305079782200866,0.168252127576823
20.015756,3.8502947724009084,0.16768451718599744
20.018152,3.8709655103132654,0.16716786925671245
20.02054,3.8979674156889677,0.16653995361824692
20.022924,3.931347710356258,0.16573765296301565
20.025328,3.9593280031199813,0.16501166939798134
20.027712,3.978415949166502,0.16453184131583604
20.030092,3.989635261854216,0.16432999186616612
20.032488,3.9943817415938554,0.16445647900568178
20.034876,4.004295905811583,0.16446638542069814
20.03726,4.017981954096669,0.16428744635402445
20.039656,4.030364749769638,0.16410389346748078
20.042044,4.038603574322913,0.1640783675617984
20.04444,4.04958867372728,0.1640471275556424
20.046836,4.0650426094754355,0.16397238744643125
20.049224,4.08771355227634,0.16363467772349263
20.051604,4.113784292092264,0.1630834206245173
20.054,4.135618512989876,0.16263580694016488
20.056388,4.1477217694091255,0.16249613380376995
20.058768,4.162478752880849,0.1623006100145189
20.061164,4.176025031539075,0.16216080179811881
20.063552,4.188175509786566,0.16195868817166792
20.065932,4.198650648369605,0.16172455366138694
20.068328,4.210336491766142,0.16144803489055934
20.070716,4.217319285535545,0.16136357689680345
20.073112,4.228538598223259,0.16119689976702045
20.075508,4.2455318957247465,0.16080319431511034
20.077896,4.266948703599648,0.16024844003977107
20.08028,4.292277165168765,0.15952016195306803
20.082684,4.3141132819242465,0.15894134902400994
20.085068,4.3415363920384,0.15823284656303085
20.087448,4.37030997659291,0.15746254597647402
20.089848,4.393124480736414,0.15679218230533978
20.092232,4.414775501894661,0.15611730321967557
20.094612,4.434564191933353,0.15549655251309774
20.097016,4.453793803464604,0.15493369527750184
20.099404,4.470881544622577,0.15444465300729449
20.101784,4.485874637235517,0.15395855091568508
20.10418,4.508224506528066,0.15324183334407418
20.106568,4.525778778394863,0.15265619340129435
20.108952,4.546266316567856,0.15200151641625365
20.111348,4.5720613088457975,0.1512524887777134
20.113736,4.597716531496879,0.15051659394475123
20.116116,4.616201968923454,0.1499305515856825
20.118512,4.632452988178135,0.14935089999976392
20.1209,4.650985647432954,0.1487025598968939
20.123284,4.6644431700083,0.1481972335585044
20.12568,4.673524404038475,0.14777446841547642
20.128068,4.678601436575818,0.1474600490234497
20.130448,4.680233346127766,0.14720136133252734
20.132852,4.675719183813604,0.14711389958104623
20.13524,4.667572907058945,0.14716040170465855
20.13762,4.668226429222873,0.14698525679909064
20.140016,4.665015519520827,0.14690444659279805
20.142404,4.663015314632279,0.14677954538145677
20.144784,4.661015109743731,0.1466549719711795
20.14718,4.658455826347743,0.14657775003215648
20.149568,4.657479334817591,0.1464834569289875
20.151952,4.649844914742129,0.14654253919465415
20.154348,4.6450039913460035,0.14654083901470358
20.156736,4.637741658322879,0.14662491378668296
20.15912,4.624333253433646,0.14687275342424572
20.161516,4.612135553357911,0.14707587080853401
20.163904,4.601520645148012,0.14726656092800974
20.166284,4.595561564737005,0.1473585830025234
20.16868,4.584899434698863,0.14761124835794606
20.171068,4.578194284325311,0.1478247141841773
20.173464,4.572792386563875,0.14804650251194357
20.17586,4.566319553615801,0.1483027325228739
20.178248,4.56385092216056,0.14845495560543814
20.180632,4.56589834887735,0.14851700852132357
20.183028,4.57488324339317,0.14840004086584166
20.185416,4.5807951019759345,0.14837054813973077
20.187796,4.587498356491618,0.14833166233737335
20.190192,4.5912683447011045,0.1483653479696968
20.19258,4.593827628097093,0.14844265159115527
20.194964,4.6025329833591915,0.14835460292280178
20.19736,4.6109587993675705,0.14828998953172828
20.199744,4.622829738361342,0.14816839474014598
20.202128,4.631487871795198,0.1481415452946162
20.204532,4.641356710042552,0.14807240059145274
20.206916,4.654298584222962,0.14791908923476324
20.209296,4.66789208470943,0.1477727603455929
20.211696,4.683347916315454,0.14758638062456417
20.214084,4.6978725823617005,0.14742243522656165
20.216464,4.714167031728887,0.14716748919774642
20.218868,4.731020559603514,0.14687018420674358
20.221256,4.749876188224558,0.14652501192769132
20.223636,4.773667183898214,0.14606249506496233
20.226032,4.798389345131648,0.14558797205806023
20.22842,4.821668484126106,0.14512374754282925
20.2308,4.838429464202117,0.14479116095374467
20.2332,4.854119509091487,0.14448993295633478
20.235588,4.871671885100414,0.14415085931695235
20.237968,4.892157527415537,0.143747235678693
20.240364,4.914924809730798,0.14327609067641084
20.242752,4.931685789806808,0.14295350183038666
20.245136,4.951519805815874,0.14255935915893306
20.247532,4.971633361078659,0.14214633366849924
20.24992,4.992445764475746,0.14167502270927929
20.252304,5.010604440820358,0.141248201089923
20.2547,5.027971721232053,0.14083008619372472
20.257088,5.045478771270607,0.14040722426517468
20.259468,5.06340513018974,0.13995547674415154
20.261864,5.082542193922374,0.13947082452976922
20.264252,5.105264150267261,0.1389377197587682
20.266636,5.1239819051193125,0.13849226803384992
20.269032,5.140977098478669,0.13807265306792774
20.27142,5.153316464039134,0.13773703460717507
20.273804,5.162722563293403,0.13746189221737234
20.2762,5.166262129935283,0.1373033110536277
20.278588,5.173805898069995,0.13705697173554246
20.280972,5.183631306204846,0.13674861137695477
20.283372,5.19215346172758,0.13643170439872299
20.28576,5.195880019824562,0.13620637622505186
20.288144,5.195742146055571,0.13605686110570345
20.29054,5.194812876353661,0.13591248687124977
20.292928,5.191090109972418,0.13581769259787455
20.295312,5.184294307658117,0.1357927906372524
20.297708,5.18201456351585,0.13569689487755524
20.300092,5.180386445679639,0.13560554033771263
20.302476,5.182902298963123,0.1354205437278972
20.304872,5.179691389261078,0.13534052822378767
20.30726,5.1756890836261125,0.13526580527169382
20.309644,5.167542806871454,0.13528462998429916
20.31204,5.151807436011709,0.135439128454283
20.314428,5.141286971458297,0.13547325707945926
20.316824,5.125831139852273,0.13560939986318243
20.31922,5.114239740112222,0.13567091391969407
20.321608,5.107723477051643,0.135621782367657
20.323992,5.111077948096287,0.13537641952314874
20.326388,5.117086146193407,0.13509868712596196
20.328776,5.119601999476891,0.13491746289915735
20.331156,5.122350170185852,0.13477123710917807
20.333552,5.130685334253482,0.13453420440799665
20.33594,5.139811894254032,0.13428977271743217
20.338324,5.154804986866972,0.13393586871345844
20.34072,5.165654108360217,0.13366962191411208
20.343108,5.181718136159795,0.13328735262239283
20.345488,5.19298656653362,0.1329948244487666
20.347888,5.206676406534444,0.13263439148027806
20.350272,5.215151340228937,0.13239200754384647
20.352656,5.2284218713491795,0.13206342175103064
20.355052,5.243135424708398,0.1317381891132481
20.35744,5.260642474746952,0.13136674449813143
20.359824,5.2848074533308145,0.13088029486589867
20.36222,5.304828460794983,0.13048750645366594
20.364608,5.333789036804598,0.12992163668043752
20.366992,5.362470073560491,0.12938411455730703
20.369388,5.384725499196555,0.12899559246441267
20.371776,5.403907888899561,0.1286790270709142
20.37416,5.417503285243898,0.1284480812736935
20.376556,5.4325889256554545,0.12816405244622436
20.37894,5.4534485508807835,0.1277418855713308
20.381324,5.4727253842402765,0.12733332955308402
20.38372,5.499358994279381,0.12678489970750922
20.386108,5.520265841332954,0.12632803771350867
20.388504,5.547178990625777,0.12576212915727086
20.3909,5.570879334358684,0.12526896207347407
20.393288,5.597512944397788,0.1247301014110441
20.395672,5.622935849623393,0.12422887288972143
20.398068,5.651943647461251,0.12368890446664432
20.400456,5.681882610858885,0.12314230547560148
20.402836,5.710238782390686,0.12260648724694498
20.405236,5.7391540324299255,0.12203886642893008
20.40762,5.765555325043551,0.12149621998582112
20.410004,5.7939587184035934,0.12092133421614579
20.4124,5.8200804717635,0.12040678818805717
20.414788,5.844619433257567,0.11990154280413703
20.417172,5.871719574005494,0.11932606781610389
20.419568,5.895746678820367,0.11880435715431896
20.421956,5.922707049941432,0.11823928614756793
20.42434,5.951389982555195,0.11766446527753865
20.42674,5.974438699982046,0.11721598043320239
20.429128,5.996276712595396,0.11679778392113557
20.431512,6.00996655259622,0.11651520165919454
20.433908,6.028172450769075,0.11618803181162281
20.436296,6.050801859315347,0.11578632583072931
20.43868,6.072639871928698,0.11538615063522725
20.441076,6.091963927116434,0.11500304679131038
20.443464,6.111427751931031,0.11461456043066938
20.445848,6.125584122640677,0.1142710739352528
20.448244,6.138949097417406,0.11393257300522616
20.450632,6.154036633686832,0.11358445816870949
20.453016,6.1669822995829815,0.11327363141915642
20.455412,6.182302153277885,0.11296039875063874
20.457804,6.197761776599647,0.11264134703225183
20.460184,6.212709543242212,0.11231083976068053
20.462584,6.229379871377475,0.11197155865562562
20.464972,6.2457706602590175,0.11164875891228489
20.467356,6.263791462834638,0.11127684117316422
20.469752,6.282603661343177,0.11090689406351266
20.47214,6.297411658358882,0.11059003241117357
20.474524,6.3089143020160545,0.11028441926535422
20.476924,6.321627650486726,0.10995464962313588
20.479312,6.336203330076954,0.10960469696242246
20.481692,6.345192016308512,0.1093111675363585
20.484092,6.342819724367627,0.10918467515535299
20.48648,6.3413785979865205,0.10904872849247575
20.488864,6.340169789030891,0.10894301307050927
20.49126,6.336679340075124,0.10887971841497446
20.493648,6.338775884478027,0.10876073928764007
20.496028,6.338730558507654,0.1086762034576729
20.498428,6.336543362164004,0.10862608741309435
20.500812,6.336870123245968,0.10856429804668247
20.503196,6.333332452461957,0.10854702427521029
20.505592,6.328584076864448,0.10855438994864104
20.50798,6.320343356453303,0.10862827059633191
20.510364,6.307027499362685,0.10877175038220878
20.51276,6.295062116712428,0.10888163003536004
20.515144,6.282397885927869,0.10903016942742991
20.517528,6.268662719956671,0.10919405225747977
20.519924,6.258931755478307,0.10930663283401611
20.522312,6.257022202530509,0.10936994704756929
20.524692,6.256695441448545,0.10943061479323507
20.527092,6.2583707811129985,0.1094659970617551
20.52948,6.263910552643425,0.10945879328708907
20.531864,6.277318957532659,0.10935768065941878
20.53426,6.294591794287866,0.1092160618330629
20.536648,6.313215105483432,0.10904295741127631
20.539028,6.333980287052277,0.10883715702515584
20.541428,6.349949871195369,0.10868304383748331
20.543812,6.3688527216446555,0.10849617403471383
20.546196,6.388035111347663,0.1082940205186587
20.548592,6.406845413998332,0.10807214896268097
20.550976,6.42672665183564,0.10783328923780595
20.55336,6.449680925606004,0.10755632787165939
20.555756,6.473566364936145,0.10726736438603765
20.558144,6.5005248401993425,0.10693408723937564
20.560528,6.528926337701516,0.10661107188308895
20.562924,6.5604008711367445,0.10624993906472317
20.565312,6.590152843079277,0.10589863342250078
20.567696,6.614969447969197,0.10560405953737491
20.570092,6.637039778008026,0.10529567715803899
20.57248,6.652731718755266,0.10503747916926605
20.57486,6.665630162823172,0.1048050293407809
20.577256,6.6797393117045765,0.10455185498147998
20.579648,6.691986129466425,0.10431721666938322
20.582028,6.698506184242741,0.10413890906091641
20.584424,6.701301576779946,0.10399188171741452
20.586812,6.703305573384233,0.1038458177103832
20.589192,6.710524476294851,0.10363195425249529
20.591592,6.715229421779855,0.10342760636613713
20.59398,6.717932266518442,0.10324550292006676
20.596364,6.719564176070391,0.10307898024088304
20.59876,6.72054445931628,0.10290542846661156
20.601148,6.714727044390003,0.10280001403960162
20.603544,6.71375244871772,0.10260624991015878
20.605944,6.710263895619822,0.10242008174378794
20.608332,6.699186248416837,0.10230220034697741
20.610716,6.683732312668683,0.10220744916667372
20.613112,6.669349312107166,0.10209741002153964
20.615504,6.661391922665478,0.10189791058039747
20.617884,6.650873353969937,0.10174945258617282
20.62028,6.642868742700006,0.10159240230311475
20.622668,6.634724361803218,0.10144237580835543
20.625052,6.622436009786735,0.10134452157417946
20.627452,6.608425096277556,0.10125411084379174
20.62984,6.59827861463435,0.10112590467698752
20.632224,6.598002867096368,0.1008948319257261
20.634624,6.5974475803046655,0.10067832630223893
20.637012,6.592608552766409,0.10052040157688802
20.639396,6.590143713026907,0.10036253184855806
20.641792,6.587818642914265,0.10019666792756066
20.644184,6.584282867988124,0.10005234562359018
20.646568,6.583680359368179,0.09987937357454908
20.648964,6.587082052241067,0.09966202872789795
20.651356,6.58727093955404,0.09948924771044126
20.65374,6.593186589852542,0.09926731312471376
20.656136,6.60804180869649,0.09895318744906458
20.658524,6.6251314457123325,0.09864652781885654
20.660908,6.643012478661093,0.09834139049160637
20.663304,6.657401166796218,0.09809554426311573
20.665692,6.671650085304482,0.0978556549346439
20.668076,6.69032251418616,0.09755436525314579
20.670472,6.712067979000895,0.09721954597831496
20.67286,6.737026249375544,0.09684318688091209
20.675244,6.762775915683113,0.09646737955545905
20.67764,6.785452546057625,0.09612750982222422
20.680028,6.797978903073193,0.09590002558980167
20.682412,6.810784799342482,0.09565886139584952
20.684812,6.825732565985047,0.09539089326907574
20.6872,6.839237310388636,0.09511663718514586
20.689584,6.8595397529643956,0.09478586926818786
20.691984,6.882915231473208,0.09442326479495981
20.694372,6.907082105914939,0.09406631345466768
20.696752,6.9320403762895895,0.0937116294352677
20.699144,6.957650272970297,0.09336640816767976
20.701532,6.981118299277728,0.09305081783480144
20.703908,7.003003533719322,0.09273955876106645
20.706304,7.02344574592194,0.09242021854805574
