Time,Force,Position
18.257308,0.022575981519290102,0.0
18.259696,0.030472878906439942,0.0
18.262076,0.038509545920449986,0.0
18.264472,0.042542011441626344,0.0
18.26686,0.0467142465896629,0.0
18.269244,0.0487446113644224,0.0
18.27164,0.0487446113644224,0.0
18.274028,0.0487446113644224,0.0
18.276408,0.0487446113644224,0.0
18.278804,0.0487446113644224,0.0
18.281192,0.0487446113644224,0.0
18.283572,0.0487446113644224,0.0
18.285972,0.0487446113644224,0.0
18.28836,0.04843680808235934,0.0
18.29074,0.04719783924051795,0.0
18.293136,0.046750266331594674,0.0
18.295524,0.04336942711647623,0.0
18.297908,0.03919719196843967,0.0
18.300304,0.03716682719368017,0.0
18.302692,0.0322031961127255,0.0
18.305088,0.026168629845132303,0.0
18.307484,0.018271732457982456,0.0
18.309872,0.010235065443972407,0.0
18.312256,0.008512503951275976,0.0
18.314652,0.006650172831719333,0.0
18.31704,0.011213452831993875,0.0
18.31942,0.017807097607027915,0.0
18.32182,0.024540512008922166,0.0
18.324208,0.0311341567839562,0.0
18.326588,0.03572570081257339,0.0
18.328984,0.0372442089081352,0.0
18.331372,0.039833652190335536,0.0
18.333756,0.04335426103231419,0.0
18.336156,0.04394160356809768,0.0
18.33854,0.04394160356809768,0.0
18.34092,0.04394160356809768,0.0
18.343324,0.04394160356809768,0.0
18.345712,0.04532034203679928,0.0
18.348092,0.045767914945722556,0.0
18.350488,0.045767914945722556,0.0
18.352872,0.045767914945722556,0.0
18.355252,0.045767914945722556,0.0
18.357648,0.045767914945722556,0.0
18.360036,0.04345801091724264,0.0
18.362432,0.04114810688876273,0.0
18.364836,0.03455446211372868,0.0
18.367224,0.027960817338694648,0.0
18.369604,0.0212274029368004,0.0
18.372,0.014633758161766354,0.0
18.374388,0.010042214133149164,0.0
18.376768,0.008523706037587358,0.0
18.379164,0.00593426275538702,0.0
18.381552,0.0024136539134083615,0.0
18.383932,0.001826311377624875,0.0
18.386336,0.001826311377624875,0.0
18.388724,0.001826311377624875,0.0
18.391104,0.001826311377624875,0.0
18.3935,0.0004475729089232771,0.0
18.395884,0.0,0.0
18.398268,0.0,0.0
18.400672,2.826402834264607e-05,0.0
18.403056,5.652805668529213e-05,0.0
18.405436,5.652805668529213e-05,0.0
18.407836,5.652805668529213e-05,0.0
18.410224,5.652805668529214e-05,0.0
18.412604,5.652805668529214e-05,0.0
18.415,5.652805668529214e-05,0.0
18.417388,5.652805668529214e-05,0.0
18.419768,5.652805668529214e-05,0.0
18.422164,5.652805668529214e-05,0.0
18.424552,5.652805668529214e-05,0.0
18.426932,5.652805668529214e-05,0.0
18.429332,5.652805668529214e-05,0.0
18.43172,5.652805668529214e-05,0.0
18.4341,5.652805668529214e-05,0.0
18.436496,5.6528056685292146e-05,0.0
18.438884,5.6528056685292146e-05,0.0
18.441268,5.6528056685292146e-05,0.0
18.443664,5.6528056685292146e-05,0.0
18.446052,5.6528056685292146e-05,0.0
18.448436,2.8264028342646073e-05,0.0
18.450832,0.0,0.0
18.45322,0.0,0.0
18.455616,0.0,0.0
18.458012,0.0,0.0
18.4604,0.0,0.0
18.462784,0.0,0.0
18.46518,0.0,0.0
18.467564,0.0,0.0
18.469944,0.0,0.0
18.47234,0.0,0.0
18.474724,0.0,0.0
18.47712,0.0,0.0
18.479516,0.0,0.0
18.4819,0.0,0.0
18.484284,0.0,0.0
18.48668,0.0,0.0
18.489064,0.0,0.0
18.491444,0.0,0.0
18.49384,0.0,0.0
18.496228,0.0,0.0
18.498608,0.0,0.0
18.501024,0.004770952052243586,0.0
18.503408,0.01945606832221588,0.0
18.505788,0.04736070216844954,0.0
18.508192,0.08876439284466495,0.010018524103459693
18.51058,0.14036178699232948,0.019601055285295193
18.51296,0.2015012583053853,0.028898044600919673
18.515356,0.27469676420944683,0.0378126457359472
18.517744,0.3609720180629095,0.046521083318518924
18.520124,0.45939585430599506,0.055135903030796705
18.52252,0.5720175955133634,0.06342069667467243
18.524908,0.6931104786994845,0.0717325227387059
18.527288,0.8208121727448016,0.08015443228699108
18.529692,0.9522819591417367,0.08891672098745546
18.53208,1.096179867182015,0.09756965953101869
18.53446,1.2530649753730774,0.10605656106165849
18.536864,1.4217738007296683,0.11438326052448909
18.539252,1.602166573624928,0.12258655818215589
18.541632,1.7914497973795207,0.13076554288989312
18.544028,1.9937674431131402,0.13877413442102504
18.546416,2.2050227615343365,0.14670015711045167
18.548792,2.4143931723812413,0.1546089449407067
18.551192,2.611615000838523,0.16253725914155326
18.553576,2.7933828935476495,0.17048551588651678
18.55596,2.960860333493876,0.16842649191431464
18.55836,3.115582890714796,0.16692203044246023
18.560748,3.2603440618897426,0.16574445758549378
18.563128,3.3898836147420126,0.1649982824165603
18.565532,3.502154122554813,0.16447708269097883
18.56792,3.597387902753622,0.16414285627551226
18.5703,3.6741400372415938,0.16431489359325857
18.572704,3.742793116803151,0.16449110403103512
18.575088,3.80604809031901,0.16449721246975418
18.577468,3.8674445244310514,0.16402905775264384
18.579872,3.9120365483545787,0.1637854593732852
18.58226,3.940009257686825,0.1638923477265883
18.58464,3.9566228847044984,0.16425419213532866
18.587036,3.9655095438480927,0.16466192354927014
18.589424,3.9662046002666558,0.16501732058357343
18.591804,3.9468352191085456,0.16574539130549779
18.594212,3.9169453733970223,0.1665888096787796
18.596596,3.886543671006301,0.1674005064720724
18.59898,3.861821509772867,0.16809815102088818
18.601376,3.8429658811518226,0.1685930403056257
18.60376,3.820665129545387,0.1691810836995854
18.606144,3.8019964923794465,0.16960457015344052
18.60854,3.7838397118927043,0.17004902035249153
18.610924,3.773457121108282,0.17037111308561398
18.613308,3.7696380152126827,0.17063160047767856
18.6157,3.7714984504743696,0.17078469889920736
18.618088,3.7784340224155297,0.17074763927390788
18.620468,3.7863007599164678,0.1706810323781236
18.622868,3.8017093696942497,0.1704585909442201
18.625252,3.8194449454425428,0.17028232269179913
18.627636,3.8409051834299484,0.16998913081666325
18.630032,3.864834052872595,0.16949440724686535
18.632416,3.888577826718007,0.1688777544849311
18.634812,3.9111581175781645,0.16826380354726989
18.637212,3.934482582542996,0.16771736792963957
18.639596,3.968981034225168,0.16683392450771942
18.64198,4.0045504210939775,0.16590230883124282
18.644376,4.0358832890444765,0.1650667530666845
18.646764,4.066796848114397,0.16429645712864333
18.649144,4.09696433722177,0.163693191644032
18.651544,4.134161841926791,0.16291759641204634
18.653932,4.169636785139115,0.1621853622879463
18.656312,4.208231986112737,0.16128748379655017
18.658712,4.242218581115711,0.16046295326364662
18.661096,4.276344945745546,0.15964120966210305
18.663476,4.3121013240694595,0.15874341404557477
18.665872,4.3436211834750615,0.15791928859598017
18.66826,4.3713238328429345,0.15713335469243014
18.67064,4.387340638814269,0.15664154769621913
18.673044,4.400703717733128,0.1562181363591846
18.675432,4.4190947115032175,0.15571283583802958
18.677812,4.436647087512146,0.15527975769019756
18.680212,4.451266197214879,0.1549272144817433
18.682596,4.460949939864999,0.15471938154832318
18.684976,4.471704617701758,0.15447843486674875
18.687376,4.480969051471298,0.15431861964942276
18.689764,4.490885111546896,0.1541619254585923
18.69216,4.504293516436131,0.1538757100044342
18.694556,4.514304020168216,0.15359140339602936
18.696944,4.522359644982127,0.15330184690118157
18.699328,4.529763643489979,0.15301480549571866
18.701724,4.539029973117388,0.152686299256951
18.704112,4.5437802445727655,0.1524541879235389
18.706492,4.5468079545354465,0.15225098505623819
18.708892,4.54904426856521,0.15205888024162778
18.71128,4.553095691886287,0.1518922580571447
18.71366,4.563805043752673,0.1515732251523926
18.716056,4.582103489724145,0.15108753921342347
18.718444,4.603335202001811,0.1505235794200404
18.720824,4.622192726480724,0.14998600433327292
18.723228,4.63374069610827,0.14959874499450782
18.725616,4.6494326368555114,0.14909675191111055
18.727996,4.665124577602752,0.14858569585208914
18.730392,4.68337769760385,0.1479707611235775
18.73278,4.698325464246415,0.14740533573272863
18.73516,4.70861740309009,0.14694253918956374
18.737564,4.719840507493542,0.14646169157512542
18.739952,4.728222893389416,0.14610506580496635
18.742332,4.7359064311509895,0.14580646629378388
18.744728,4.739865306673448,0.1455873433217709
18.747116,4.74247370775555,0.14542568082613727
18.749496,4.74452303033021,0.14531185607412156
18.751892,4.748527231823043,0.14520869617721444
18.75428,4.754253994808574,0.14507662781419592
18.75666,4.75760656999535,0.14496974203024793
18.759056,4.75392912958448,0.14498689829326208
18.761444,4.750903315479668,0.1450061848237584
18.763824,4.739357241709991,0.1452073702759386
18.766224,4.727950937567174,0.14539677251177494
18.768612,4.717336029357274,0.1455791052039869
18.771008,4.71086509226707,0.14565158711519466
18.773404,4.704114615923143,0.1457448927566126
18.775792,4.706815564803861,0.14564056492586966
18.778172,4.708677895923418,0.14560375693783958
18.780572,4.710120918162394,0.14560055004280534
18.78296,4.713566041147787,0.1455483101291128
18.78534,4.717802560066098,0.14548965352329513
18.787736,4.724180949357686,0.1453710337432128
18.790124,4.733632374582329,0.14517483386466581
18.792504,4.749881497979141,0.14482862841352462
18.794908,4.762685498390559,0.14453145368207704
18.797296,4.77604857730942,0.1441914252308554
18.79968,4.785547224362307,0.14393301672443862
18.802076,4.797327511415331,0.14360657097449187
18.804464,4.804032661788883,0.14340171535922072
18.806844,4.813019452162572,0.14312198818755417
18.809244,4.813858069923733,0.14305272395606944
18.811632,4.822378329588598,0.1428688234184181
18.814012,4.83276092037302,0.14264892183648972
18.816412,4.842631654478244,0.14241367384856485
18.8188,4.851431453396829,0.14221041383285316
18.821184,4.859160317128776,0.14203904495651098
18.823576,4.857949612315278,0.14207966991218368
18.825964,4.858788230076439,0.1420127089515638
18.828348,4.860745004852482,0.14185607718497567
18.830744,4.85990828294919,0.14175335038674608
18.833132,4.85706946029948,0.1416986288368588
18.835512,4.854510176903492,0.141621496019245
18.837908,4.846503669775694,0.14164154523261602
18.840296,4.831047838169669,0.14180490819229602
18.84268,4.820247834362536,0.14187819475845836
18.845076,4.809959687234601,0.14196509794558498
18.847464,4.8060971512264965,0.14187878026499767
18.849848,4.798090644098699,0.1418962697481623
18.852244,4.799954871076125,0.1416918168431017
18.854632,4.805124451412083,0.14145143211263134
18.857012,4.816719642867873,0.1410360298290813
18.859412,4.825708329099431,0.14061039821406485
18.8618,4.830320726785817,0.1402494618505683
18.86418,4.832511714845207,0.13996459944532885
18.86658,4.835354329210654,0.13968495373658382
18.868968,4.837405547643184,0.13941218650449191
18.871348,4.842949110889349,0.13903168100542518
18.873748,4.845140098948739,0.13874760602415864
18.876136,4.848215030739663,0.1385065155379812
18.878516,4.858087660702757,0.13812479491363275
18.88092,4.8690312258524875,0.13771583509425964
18.883308,4.879695251748499,0.13733158989368682
18.885688,4.896737666936098,0.13683984757314144
18.888092,4.917876831415148,0.1363016344642896
18.890476,4.9358031903342825,0.1358486342653512
18.892856,4.95335746220108,0.1353745929040838
18.89526,4.969049402948321,0.1349423851026938
18.897648,4.9858122788822,0.13447927750358435
18.900028,4.999222579629303,0.13411537792256287
18.902432,5.008908218137293,0.13381798866030545
18.90482,5.018454087018423,0.13353531690550177
18.9072,5.023436675899278,0.13337803973396423
18.909596,5.031724618138666,0.1331885946959946
18.911984,5.048812359296639,0.13282916020606797
18.914364,5.0660398700814735,0.13246124330392925
18.916768,5.083546920120027,0.13207344920044636
18.919156,5.102776531651277,0.13167275831550057
18.921536,5.130386633220533,0.13114522239866536
18.923932,5.159067669976427,0.13059728178079213
18.92632,5.1838842748663465,0.1301266611515957
18.9287,5.20683854863671,0.12968504441263023
18.931096,5.227930491287518,0.12927240227357745
18.933484,5.24501823244549,0.12893971735090592
18.935864,5.2608027209913475,0.1285959760576124
18.938268,5.277937683977565,0.12820648201468895
18.940656,5.292651237336785,0.1278864134544307
18.943036,5.304943381069006,0.12763546273162613
18.945436,5.317887151107286,0.12738928410830017
18.947824,5.3321813955859225,0.1271019053453228
18.950204,5.347267035997479,0.12680893257192866
18.9526,5.361281741222397,0.12654302784218074
18.954988,5.381954374992623,0.12616919945881336
18.957372,5.404629109509267,0.1257630792460141
18.959768,5.419714749920824,0.12548228628903707
18.962156,5.4342885336531825,0.12518803973200435
18.96454,5.451516044438016,0.12486702094715141
18.966936,5.464739353730016,0.12462035594676113
18.969324,5.466928445931536,0.12452254923152173
18.971704,5.466603580707441,0.1244449957869771
18.974104,5.467070111416266,0.12436411499144046
18.976492,5.469818282125227,0.12422968435198455
18.978872,5.476710423953883,0.1240175827429763
18.981276,5.489888407275509,0.12368732027321826
18.983664,5.503578247276332,0.12337176051089682
18.98604,5.519130418396712,0.12303377128740448
18.988448,5.540688891756343,0.1225992145364714
18.990832,5.564529005116112,0.12211334306803509
18.993212,5.591721693662654,0.12155995965201896
18.995612,5.616632742209061,0.12106114928128707
18.997996,5.639960998889632,0.120565581379181
19.000376,5.662917168517864,0.12004912725370952
19.00278,5.679494948854509,0.11960841619072769
19.005164,5.690206196578763,0.11925656447585321
19.007544,5.702640005795715,0.11888864740485296
19.009948,5.715445902065004,0.11854633494141523
19.012336,5.7255980712818175,0.11823328541547866
19.01472,5.735610470871771,0.11792751492106539
19.017116,5.751721720499592,0.11756415100305996
19.019504,5.768344826806611,0.11721543282070356
19.021884,5.785107702740489,0.11685991561572642
19.02428,5.803313600913344,0.11651275408816006
19.026668,5.815233657593229,0.11627959688569554
19.029048,5.821007642407,0.11615279424925241
19.031444,5.827992332034273,0.11599749067605483
19.033832,5.834185625728627,0.11584613043749631
19.036216,5.82971678938484,0.11584283180397768
19.038612,5.823106082667774,0.11587898632598848
19.040996,5.81528467113721,0.11594188914018703
19.043376,5.808022338114087,0.11597004693887332
19.04578,5.803413732143438,0.11597447391786357
19.048168,5.797826738784769,0.11603922861872394
19.050552,5.798618134717687,0.11603709469652879
19.052948,5.800200926583523,0.11603257026766688
19.055336,5.805648150315333,0.11597634987928945
19.057716,5.81216630923378,0.11590129201674679
19.060112,5.818265159271648,0.1158520993656745
19.0625,5.825714483749874,0.11576630238675147
19.06488,5.833583117108682,0.11565613059273615
19.06728,5.843593620840766,0.11550856487695253
19.069664,5.852393419759352,0.11538885370579754
19.072064,5.8593308875583805,0.11529120238041637
19.07446,5.871343492036883,0.11511584355468207
19.076848,5.886009823567859,0.11491801402933942
19.079224,5.901467551031753,0.11472021906518438
19.081628,5.915435034428427,0.11456670393181562
19.084016,5.937783007863107,0.11431781151778686
19.086396,5.962644938723401,0.1140545859702193
19.0888,5.986156395143336,0.11382892857210591
19.091188,6.010179708242468,0.11361997995593298
19.093568,6.03606535246116,0.11339370526681974
19.095968,6.062370305560428,0.11314128880887023
19.098356,6.085090366047446,0.11292443409399876
19.100736,6.114096268027434,0.11260857144205905
19.103132,6.141239838887865,0.11231878653276889
19.105516,6.168662949002017,0.11201717681577347
19.107896,6.1991590950492235,0.11167357564922557
19.1103,6.231238032962268,0.11132990879715897
19.112688,6.259964395688535,0.11104734677457063
19.115068,6.2856177224817475,0.1108096476337884
19.117472,6.313273150021378,0.11054645996135218
19.11986,6.339066246441451,0.11030193518253806
19.12224,6.36672167398108,0.11004428620782374
19.12464,6.391723374468234,0.10980657278506166
19.127028,6.415142283089552,0.10957349692269236
19.129408,6.440842831711008,0.10930014278945363
19.131808,6.465100358093486,0.1090248369471793
19.134196,6.488985797423629,0.10872987437835863
19.136576,6.510497048955016,0.10843731330027565
19.138976,6.532148070113265,0.10813885117197558
19.14136,6.551424903472758,0.10784669481176859
19.14374,6.5727038375786675,0.10753139582765844
19.146144,6.593843002057718,0.10722397966580788
19.148532,6.613119835417212,0.10693938593731445
19.150912,6.627601071350954,0.10670375904684651
19.15332,6.638078105791862,0.10651684550510913
19.155708,6.645761643553436,0.1063561388195378
19.158088,6.651862389449172,0.10619785382963219
19.160484,6.659453379412128,0.10600146686103123
19.162872,6.672538814935137,0.10572215906563545
19.165252,6.684460767472889,0.10542431029688372
19.167648,6.69880412963764,0.10508213476395166
19.170036,6.708491664003499,0.10478154717937999
19.17242,6.720600607996356,0.10443702949734246
19.174816,6.732709551989213,0.10409332010235267
19.177204,6.743095934489373,0.10375956804717096
19.179584,6.751619985869977,0.10344177532065661
19.181988,6.760283806877441,0.10311866602071719
19.184376,6.775093699751015,0.10272458699447723
19.18676,6.790974527811227,0.10231888660372135
19.189156,6.809648852550775,0.10189517439997899
19.19154,6.826880155051347,0.10146762579369402
19.193924,6.84439099680564,0.1010266196331351
19.19632,6.859899737813515,0.10060944252425344
19.198704,6.878621284381306,0.10014880203361312
19.201088,6.8996244709492345,0.09965231161571979
19.203492,6.9229092975173,0.09912433884730279
19.20588,6.94312108815231,0.0986291654122889
19.20826,6.961330778040904,0.09815414090255695
19.210664,6.973394396063388,0.09775153018177828
19.213052,6.984107539645511,0.09737731843735037
19.215432,6.991468108040861,0.09705133785508527
19.217828,6.998968446063069,0.09671779817242204
19.220216,7.004187144085139,0.09641924382292671
19.222596,7.0064725758010145,0.09614685671522626
19.225,7.0087580075168905,0.09587478356739014
19.227388,7.013045539979183,0.09558287255799497
19.229768,7.013468640575502,0.09532405453638647
19.232164,7.005743568559293,0.09515271411746021
19.234552,6.993222899117334,0.09502077889739206
19.236932,6.973764761876344,0.0949550737576565
19.239332,6.953887315754775,0.09490922877253564
19.241716,6.936011970379623,0.09484249628549345
19.2441,6.915994754631193,0.09480222427831868
19.246492,6.894487294815543,0.09479575731263036
19.24888,6.871489590932675,0.0948231361805567
19.25126,6.8431372111166135,0.09491670354836554
19.253656,6.82265346465936,0.09493719587892323
19.256048,6.805894380441219,0.09493203381149934
19.258428,6.79299972808905,0.09489440563675704
19.260824,6.780337393162361,0.09488508626347755
19.263212,6.769537389355228,0.09486330415758686
19.265592,6.760459947040791,0.09483550115750941
19.267996,6.752313670286133,0.09480127470163215
19.270388,6.750545782823063,0.0947299439322327
19.272768,6.749429521666051,0.09466619598942416
19.275164,6.748825117188235,0.09461702209550092
19.277552,6.754459332375148,0.09453874741702464
19.279932,6.7643300664803725,0.09444936771959064
19.282332,6.779508254690546,0.09433649371456436
19.284716,6.800925062565448,0.09419301280390209
19.2871,6.822993496746406,0.09405742283104468
19.289496,6.840778190180812,0.09397460502188408
19.29188,6.861216610667692,0.09387949490989275
19.294264,6.885659232647407,0.09374647933964322
19.296664,6.9122437250003985,0.09358732501685603
19.299052,6.944834519592638,0.09337062193752789
19.301432,6.974352278251825,0.09319112272148176
19.303832,7.00400980653787,0.09300781753018662
19.306216,7.028312658890725,0.09288727039220843
19.308596,7.054385294564517,0.09272077971023755
19.310996,7.084601901358003,0.09251334469787365
19.313384,7.110954076285516,0.09233546766790472
19.315764,7.136886942332449,0.09217739881058243
19.31816,7.163239117259963,0.09200366773551945
19.320548,7.188799896254558,0.09182977943683103
19.322928,7.211567178569819,0.09167344162705633
19.325328,7.230889337899686,0.0915285219255557
19.327716,7.25426292055063,0.09131092974272244
19.330112,7.274750458723622,0.09107835564926936
19.332508,7.294214283538219,0.0908203134203688
19.334896,7.311443690180921,0.09055271298004881
19.33728,7.332956837570178,0.09023838635484378
19.339676,7.353958128280236,0.08991100292081469
19.342064,7.370443360818264,0.08960506484465011
19.344448,7.386276967050235,0.08929295898762225
