Time,Force,Position
5.786747999999999,8.916730888200286,0.1576512583920299
5.789132,8.919571606707864,0.1575889040581455
5.791532,8.934330486037457,0.1574289722954469
5.793927999999999,8.963521483614679,0.1571513551470777
5.796315999999999,9.006400425334855,0.1567240653539756
5.798696,9.05184054630889,0.1562498181576694
5.801091999999999,9.103194421723558,0.1556868250389471
5.80348,9.15501482784705,0.1550815876746584
5.805864,9.194218225014223,0.1545925670891416
5.808259999999999,9.236913966995038,0.1540304768010228
5.810647999999999,9.287338572707796,0.1533656317651685
5.813032,9.346795294764618,0.1526013339579895
5.815427999999999,9.410116448687411,0.1517958319180413
5.817815999999999,9.461424998131706,0.1511605968113426
5.820195999999999,9.515991679106287,0.1505320760421687
5.822595999999999,9.567577871946432,0.1499656302284376
5.824983999999999,9.620234999973215,0.1493886749336944
5.827363999999999,9.677827495052613,0.1487615865921231
5.829763999999999,9.730624392706256,0.1481860280857916
5.832151999999999,9.783561059986765,0.1475936601091402
5.867991999999999,9.87969015906432,0.1471835177418109
5.870367999999999,9.88937390171444,0.1471034316539052
5.872764,9.900036031752585,0.1469866558902763
5.875152,9.90180581507352,0.1469451694404021
5.877547999999999,9.911536779551884,0.1468385899672834
5.879951999999999,9.924153788508198,0.1467269082166276
5.882335999999999,9.935839631904736,0.1466251013703521
5.88472,9.953019920861326,0.1464508690896446
5.887112,9.96791856981778,0.1463091051729708
5.8895,9.99501491884997,0.146070966635066
5.8918800000000005,10.02858220497236,0.1457952732682109
5.894276,10.063919274415694,0.1454810748373496
5.896659999999999,10.09678960826166,0.1451553983476968
5.899039999999999,10.124819018711497,0.1448263527122971
5.901444,10.146889348750324,0.1445356140396397
5.903832,10.16788874360251,0.1442597671681956
5.906212,10.175991590244664,0.1441093787807767
5.908607999999999,10.181627701289448,0.1439490488875882
5.910995999999999,10.195923841625955,0.1436976625109213
5.913376,10.214688818306254,0.1434314699509222
5.91578,10.237643092076617,0.1431690587119511
5.918168,10.26185529248872,0.1428650384590723
5.920544,10.276104210996984,0.142645730019659
5.922939999999999,10.28285658319878,0.1425217123045263
5.925324,10.288910107266275,0.1424249567060165
5.927719999999999,10.306604148759932,0.14218276115011
5.930116,10.326534504283355,0.1418602740343564
5.932504,10.326678065625952,0.1416972491303106
5.934884,10.330825828461384,0.1414893859105402
5.93728,10.330922167975736,0.1413533851820613
5.939663999999999,10.336420405251529,0.1411231252622191
5.94206,10.342292625437528,0.1408301698282552
5.944455999999999,10.34113483002588,0.1405848822245832
5.94684,10.340394447636942,0.1404011383572264
5.949223999999999,10.35194431312236,0.1401545375546744
5.95162,10.37327236491438,0.1397862200668728
5.954003999999999,10.396417421855588,0.1393527514960556
5.956387999999999,10.405547773571874,0.1390681108645632
5.958791999999999,10.408205292340089,0.1388901800253353
5.961176,10.42203679782564,0.1386146379022173
5.963555999999999,10.430143436183537,0.1383173451830783
5.965959999999999,10.43233821595866,0.1380309082950712
5.968347999999999,10.437606031666846,0.1377081776883557
5.970727999999999,10.45078780670421,0.1373514081440406
5.973124,10.46476097767449,0.1369929948366371
5.975512,10.465884822262977,0.1367177948906554
5.977891999999999,10.455834680134128,0.1365371303464493
5.980288,10.4511373180806,0.136367879977473
5.982671999999999,10.451513196848676,0.1362224924389136
5.985056,10.46329727561744,0.1359213773166157
5.987451999999999,10.464234128750824,0.1356787173521301
5.989839999999999,10.45222721184593,0.1355678511909617
5.992236,10.449577276509194,0.1354285679407547
5.994627999999999,10.45921948490468,0.1351545821100719
5.997016,10.46420776135914,0.1348437332459002
5.999392,10.451551114006058,0.1346518779800895
6.001788,10.43377210814526,0.1345400857500224
6.004171999999999,10.429773594226033,0.1343459210755951
6.006568,10.44128002959894,0.133981946752017
6.008963999999999,10.441287613030417,0.1336706503877203
6.011348,10.43328679347623,0.1334387447409143
6.013728,10.41876591914572,0.1333379069544981
6.016131999999999,10.412670860823592,0.1332191345166062
6.018519999999999,10.413328174703258,0.1329874153624814
6.020899999999999,10.4074220036941,0.1327575102444994
6.023296,10.400677214923784,0.1325570237961381
6.025684,10.403708716602203,0.132315831301783
6.028063999999999,10.413305599027314,0.1319930280422342
6.030467999999999,10.41438411764543,0.1316648538931754
6.032852,10.405219815105983,0.1314207663750051
6.035231999999999,10.400105040029745,0.1311867488153471
6.037632,10.40839866984274,0.1308606376180345
6.040016,10.419952327043896,0.1304720686857529
6.042396,10.417818040102096,0.130184289519077
6.0448,10.41642792726497,0.1299226959778666
6.047188,10.42546573118264,0.1296260962621934
6.049567999999999,10.44009052845898,0.1292857387339059
6.051964,10.449594863085474,0.1289475620791327
6.054352,10.445364031740771,0.1287353766661599
6.056747999999999,10.446672971926496,0.1285078260479611
6.059151999999999,10.45715379808314,0.1282129806000647
6.061539999999999,10.471965586814584,0.1278391166337907
6.06392,10.47700108509729,0.127502527899645
6.066315999999999,10.47947540412614,0.1272075050049876
6.0687,10.490003452111027,0.1268867516337919
6.071083999999999,10.505327097521668,0.1265261247289144
6.07348,10.51296910102861,0.1262037126888495
6.075868,10.519400399722048,0.1258995572335777
6.078248,10.53253495293117,0.1255918531594414
6.080639999999999,10.549486716178023,0.1252794230549367
6.083027999999999,10.567277097186036,0.1249387726866548
6.085419999999999,10.575476283342544,0.1246772919527915
6.087824,10.579903585431694,0.1244719461807959
6.090211999999999,10.595225334984466,0.1241957467046143
6.092587999999999,10.606031026365208,0.1239483781843334
6.094984,10.615301147708356,0.1236792091555136
6.097368,10.624711038678363,0.1234067864540032
6.099748,10.636075808566542,0.1231439392829565
6.102143999999999,10.654098507000032,0.1228298869361882
6.104528,10.672959823194685,0.1224893885352166
6.106919999999999,10.694614636068671,0.122133416540367
6.109323999999999,10.721809220473087,0.1217683641183257
6.111711999999999,10.757616612340984,0.1213652621104693
6.114091999999999,10.790350968275822,0.120991713009694
6.116488,10.818848805292353,0.1206371894109991
6.118872,10.850000369361355,0.1202730684068505
6.121252,10.89032381940128,0.1198540742337966
6.123656,10.933720305374262,0.1194120435559378
6.12604,10.97623284761571,0.1189529022866412
6.128423999999999,11.01744213724504,0.1184894349258095
6.130823999999999,11.060234218740208,0.1180276288186338
6.133212,11.111034703221044,0.1175019270428628
6.135591999999999,11.159181460649403,0.1169887551063007
6.137988,11.201321915838513,0.1165273386258768
6.140376,11.245557019572656,0.1160696503821979
6.142752,11.287742800732138,0.115655997760526
6.145156,11.32499321483901,0.1152804651352199
6.147544,11.35637709633349,0.1149466621281463
6.149924,11.387760977827972,0.1146152942954638
6.15232,11.415512744881957,0.114329460618448
6.154703999999999,11.436466813763774,0.1140937202229866
6.157095999999999,11.451461802234585,0.1138803215884608
6.192936,11.282760386469771,0.1138674548273801
6.19534,11.278246224155607,0.1138178873513637
6.197728,11.274942766654949,0.1137543915604213
6.200108,11.274572575460478,0.1136708792683889
6.202511999999999,11.28113985206504,0.1135382991044739
6.204896,11.293154352401409,0.1133796104572717
6.207276,11.309033284603752,0.1131962337920576
6.209667999999999,11.329707814231847,0.1129837177348418
6.212055999999999,11.349730717553884,0.1127686902909023
6.214435999999999,11.375480383861452,0.1125186136127377
6.216832,11.404954712408134,0.1122481693217494
6.21922,11.436570911328092,0.1119584974432635
6.221599999999999,11.47568365655452,0.1116026481679564
6.224003999999999,11.512934070661396,0.1112573917698564
6.226388,11.554328455887958,0.1108793707554878
6.228767999999999,11.595583071487663,0.1105062536675824
6.231164,11.63856024858006,0.110127883246622
6.233552,11.685541627165298,0.1097210403375544
6.235947999999999,11.727587638697925,0.1093507965456575
6.238351999999999,11.768842254297628,0.1089823528128934
6.240739999999999,11.809165704337554,0.1086214399591658
6.243119999999999,11.844693556951729,0.1082924153128088
6.245512,11.87635697769993,0.1079889435301319
6.2479,11.906577376209157,0.10768396468893
6.250276,11.927858206172935,0.1074396545302586
6.252671999999999,11.943691812404904,0.1072206589585591
6.255056,11.957942626771038,0.1070036928060189
6.257451999999999,11.967025756659083,0.1068030743312956
6.259843999999999,11.973734698748371,0.1066041345063395
6.262231999999999,11.97564804341191,0.106432469887225
6.264612,11.976397905090192,0.106249759223526
6.267007999999999,11.977287536395336,0.1060630410343157
6.269392,11.977385771767562,0.1058777031609978
6.271787999999999,11.977623776766649,0.1056880361715522
6.274184,11.9738575802729,0.1055246601951776
6.276567999999999,11.967437656726675,0.1053703779783331
6.278948,11.961297272434171,0.1052080757575332
6.281352,11.952642930716056,0.1050510366311988
6.283735999999999,11.9429176538113,0.1049022491059218
6.286116,11.931469815413845,0.1047580310203976
6.28852,11.914946840336924,0.1046481811343534
6.290908,11.89763246932708,0.104538431509267
6.293287999999999,11.880038559063514,0.104436673816169
6.295679999999999,11.862165109546233,0.1043428337024056
6.298067999999999,11.84936679670842,0.1042142856471451
6.300447999999999,11.839501750176806,0.1040681115213002
6.302844,11.828425998831689,0.1039343776229392
6.305232,11.818001873792632,0.1038041404969923
6.307627999999999,11.81088310211211,0.1036685727764388
6.310024,11.807908301551276,0.1035029865682256
6.312408,11.808518393602698,0.1033247982657714
6.314788,11.80991988158704,0.1031466570764148
6.317192,11.808108564011466,0.1029938023110621
6.319576,11.811372383115362,0.1028081753560439
6.321959999999999,11.817709238152316,0.1026018189272041
6.324356,11.82884169061502,0.1023705004644053
6.326739999999999,11.838251581585023,0.102143926232453
6.32912,11.850454969234368,0.1019056305067759
6.331524,11.869083968003542,0.101619679941329
6.333912,11.889575297892272,0.1013255605949459
6.336288,11.917283634833751,0.1009830187835618
6.338695999999999,11.946994072521653,0.1006292785648716
6.34108,11.978194754276766,0.1002559152774584
6.343463999999999,12.009674975285604,0.099875423261624
6.34586,12.038361699615104,0.0995074447083976
6.348243999999999,12.064254927265267,0.0991521368318595
6.350624,12.091498629355796,0.0987814073607634
6.353016,12.11995303625982,0.0983991643330808
6.355404,12.145893485738233,0.0980219328201709
6.357795999999999,12.171042539283723,0.0976461485194345
6.360192,12.191675534657184,0.097287803037768
6.36258,12.209003176672113,0.0969329369610386
6.364955999999999,12.225539422754125,0.0965774296374325
6.367352,12.236488675477462,0.0962461200355259
6.369736,12.246926071521605,0.0959076968535471
6.372131999999999,12.252987179020574,0.0955802333303866
6.374528,12.260119221706182,0.09524541547067
6.376916,12.264597537339316,0.0949184437711705
6.379296,12.26199861554656,0.0946330453783779
6.3817,12.259539463380666,0.0943439267447021
6.384084,12.25228471378902,0.0940768211795155
6.386464,12.2411655323314,0.0938273810655331
6.388867999999999,12.229766811620062,0.0935856333400078
6.391256,12.21850786053558,0.093339944426506
6.393635999999999,12.210321945384155,0.0930759793118407
6.396032,12.203579052471708,0.0928163898520153
6.398415999999999,12.19562545474576,0.0925678275241066
6.4008,12.188742792206453,0.0923122296370261
6.4032,12.18479339597334,0.0920429889243425
6.405588,12.180704230113363,0.0917777428999783
6.407968,12.174333424253254,0.0915300011691059
6.410371999999999,12.16833470544548,0.0912935205268775
6.412759999999999,12.16634018813054,0.0910362371357163
6.415139999999999,12.16285542674838,0.0907968480143209
6.417544,12.156949255739224,0.0905792210383209
6.419927999999999,12.155279603648376,0.0903566983857465
6.422307999999999,12.152259477117171,0.0901489398754894
6.424704,12.148680272078527,0.0899563552975696
6.427088,12.148685959652138,0.0897544666479445
6.429484,12.149622812785523,0.0895497160520533
6.43188,12.154284328158024,0.0893324717693482
6.434267999999999,12.162810275396495,0.0890986583946212
6.436648,12.17026528744833,0.088871897719436
6.439052,12.175298889873169,0.0886666664028985
6.441436,12.178050852297863,0.088479428809197
6.443816,12.181082353976285,0.0882846648386258
6.446211999999999,12.183694546774122,0.088101165078464
6.448599999999999,12.182954164385183,0.0879422626388532
6.45098,12.176859106063056,0.0878178238725466
6.453372,12.170344738860344,0.0877048200627785
6.45576,12.166484098710107,0.0875862169280026
6.458155999999999,12.169700695985764,0.0874313987558233
6.460559999999999,12.16942494844778,0.0873048995973497
6.462944,12.175946899081966,0.087150000763433
6.465328,12.185122576768627,0.0869899120976962
6.46772,12.191364988149092,0.0868428263758756
6.470108,12.203613701768806,0.0866675674736359
6.472488,12.21600218501538,0.0864883786490963
6.474879999999999,12.22559717158262,0.0863180383954669
6.477267999999999,12.2338416837095,0.0861623104381223
6.479647999999999,12.234729419156771,0.0860492987074943
6.482047999999999,12.236129011283245,0.0859450376658986
6.484435999999999,12.240182330462186,0.0858360620610817
6.486815999999999,12.248891477440024,0.0857129396821197
6.48922,12.26225645221675,0.0855761526065703
6.491603999999999,12.27655259255326,0.0854370240464048
6.493983999999999,12.296063639196095,0.0852697273323751
6.496388,12.320649822518403,0.0850780012372224
6.498771999999999,12.348309041773774,0.084870092744265
6.501151999999999,12.37811013140242,0.0846501042894521
6.503556,12.408190760284782,0.0844231519866286
6.505944,12.434127418047453,0.0842202651624508
6.508324,12.462485485437124,0.0839976756590364
6.510719999999999,12.486979120960818,0.083790817055054
6.513104,12.511892065365092,0.0835738764887485
6.515499999999999,12.54188014644884,0.0833340956520783
6.517896,12.5647909901067,0.0831282584735198
6.52028,12.591706035257392,0.0829059109782877
6.52266,12.62248551227406,0.0826703065109731
6.525064,12.654475694104224,0.0824256514274689
6.527452,12.697826854106832,0.0821252488956785
6.529831999999999,12.741597322990025,0.0818160750883885
6.532223999999999,12.780851733701184,0.0815158761968274
6.534611999999999,12.816661021426947,0.0812195210507679
6.536992,12.845020984674484,0.0809432614399286
6.539396,12.876314214228216,0.0806582636830947
6.541779999999999,12.902951615983058,0.0803868652426587
6.54416,12.927447147364624,0.0801287899988525
6.546567999999999,12.953944779492604,0.0798634941491768
6.548952,12.979651015687663,0.0795984045080984
6.551332,13.008290518188922,0.0793244290637152
6.553728,13.034276293637708,0.0790540085441037
6.556115999999999,13.057840659459494,0.0788023959823133
6.558491999999999,13.08261573009478,0.0785423723328902
6.560896,13.106180095916567,0.0782922779856118
6.563284,13.123877929125962,0.0780631297376429
6.565664,13.144648798268411,0.0778206541046504
6.568059999999999,13.164488501851084,0.0775819855359181
6.570444,13.183397039873975,0.0773464894966348
6.572839999999999,13.202585117150592,0.077105148656556
6.575236,13.21376479144154,0.0768951631204019
6.577624,13.222150969053152,0.0766918087079912
6.580003999999999,13.235612283344238,0.0764684120608636
6.582407999999999,13.25214663356838,0.0762329482678829
6.584792,13.274687286031767,0.0759756014466459
6.587171999999999,13.292432341069407,0.0757325818880492
6.589568,13.310829022413104,0.075494587730033
6.591956,13.328713847077603,0.0752491245096692
6.594339999999999,13.347949146182463,0.0749933830834306
6.596736,13.36704467566046,0.0747419016158279
6.599124,13.381344607712704,0.0745036204203863
6.601504,13.399648741257788,0.0742519376583184
6.603907999999999,13.417860327004243,0.0739819739062541
6.606292,13.434349351258014,0.0737129218224928
6.608675999999999,13.450466288459443,0.0734327358715001
6.611072,13.47007557047451,0.0731311802886959
6.61346,13.48609995987732,0.0728333446163168
6.61584,13.49732875185438,0.0725476694199617
6.618236,13.505903816778968,0.0722639876025242
6.620619999999999,13.513268176890053,0.07198918303351
6.623016,13.526918378494113,0.0716888622757547
6.625411999999999,13.540568580098167,0.0713886083486635
6.627799999999999,13.552496220209528,0.0710894542348571
6.630179999999999,13.559488493268276,0.0708050401800474
6.632579999999999,13.564618435207468,0.0705246163858282
6.634964,13.57002791640038,0.0702376172666745
6.637343999999999,13.574785771287235,0.0699456984715331
6.63974,13.575259885427537,0.0696723380428464
6.642128,13.569727697328585,0.0694180149439851
6.644523999999999,13.561541782177162,0.069164826252562
6.64692,13.554426802212378,0.0689064579219793
6.649308,13.543307620754758,0.06866048654137
6.651688,13.53563356228253,0.0684152494875017
6.654083999999999,13.527540194929724,0.0681794579851413
6.656468,13.520889849815893,0.0679506130744004
6.658847999999999,13.512889030261702,0.0677330472820513
6.661244,13.509404268879544,0.0675117983235316
6.663632,13.50871300417672,0.0672861412739661
6.666015999999999,13.508952905033674,0.0670588564977112
6.668419999999999,13.508261640330849,0.0668328837582337
6.670804,13.500353368575276,0.0666324472813957
6.673183999999999,13.49337626237948,0.0664306127515818
6.675587999999999,13.484908912116463,0.0662427881297242
6.677975999999999,13.479374828159647,0.0660476162967547
6.680356,13.47048816901605,0.0658686999677309
6.68276,13.461042431365016,0.065702403530006
6.685143999999999,13.45145692408712,0.0655390741071182
6.687524,13.44615515755578,0.065357542740556
6.689924,13.442436182890273,0.0651795833250612
6.692307999999999,13.436575337851488,0.0650098534267449
6.694692,13.431505888745626,0.064842078547432
6.697087999999999,13.42736760519954,0.064672813372515
6.699472,13.421366990533896,0.0645061620213335
6.701855999999999,13.414714749562195,0.0643338824855535
6.704252,13.407131343030718,0.0641628652805249
6.70664,13.39926839724552,0.0639982899824204
6.709035999999999,13.387680789221209,0.0638381355811864
6.711432,13.377303886010392,0.0636704860019361
6.71382,13.369860249105775,0.0634964811393892
6.716199999999999,13.362556381828016,0.063319047145682
6.718596,13.358325550483311,0.0631317292236709
6.720984,13.351813079138472,0.0629558913579668
6.723364,13.348513413353547,0.0627675433564366
6.725759999999999,13.344282582008844,0.0625801602856608
6.728147999999999,13.345406426597332,0.0623718225056805
6.730528,13.347089349693263,0.0621505606939675
6.732923999999999,13.349982977602693,0.0619220197162374
6.735312,13.355530332564596,0.0616946153226171
6.737708,13.36270770122058,0.0614505037797901
6.740103999999999,13.37775370323537,0.0611899382168633
6.742492,13.394801805996575,0.0609252507327068
6.744871999999999,13.4138520095042,0.0606561314748529
6.747275999999999,13.43597524894488,0.0603794925015834
6.749663999999999,13.461823150624673,0.0601001737584229
6.752044,13.487810821931324,0.0598183379333172
6.754439999999999,13.510073830998866,0.0595392599110502
6.756827999999999,13.53568941525318,0.0592458592445872
6.759207999999999,13.560094294693997,0.0589604248683392
6.761604,13.583568008575034,0.0586772159431146
6.763992,13.609043823202487,0.0583901907419994
6.766371999999999,13.633588472270164,0.05810436531744
6.768768,13.661625466151476,0.0578013063981805
6.771156,13.68752058965951,0.0575069956009984
6.773536,13.715417813913964,0.057209080748398
6.775931999999999,13.73917106704872,0.0569238105142257
6.778319999999999,13.763855485743258,0.0566385489679266
6.780716,13.789331300370714,0.056356735270737
6.783111999999999,13.808288956079725,0.0560794414738204
6.785499999999999,13.828038007721648,0.0558056319455863
6.78788,13.84406239712446,0.0555354160605103
6.790275999999999,13.85757282910166,0.0552614492468129
6.792667999999999,13.873085361825272,0.0549847638939183
6.795043999999999,13.88058949156322,0.0547240165521309
