Time,Force,Position
4.186244,7.990502056525102,0.1697753088425227
4.188628,7.998325363913535,0.1695817126233111
4.191012000000001,8.010105650966556,0.1693542177023135
4.193408,8.027146170296286,0.169098498411971
4.195796,8.048795295596664,0.1688130680805231
4.198176,8.072491847613833,0.1685565315536341
4.200571999999999,8.097351882616257,0.1683045677281476
4.202960000000001,8.127938680604213,0.167963588714539
4.20534,8.162529680085003,0.1675615630427577
4.207739999999999,8.206432335163575,0.1670156292173611
4.210124,8.251405925428784,0.1664434055165619
4.212524,8.286695773043874,0.1659968431201436
4.214919999999999,8.325105878420263,0.165473609451003
4.217308000000001,8.367520185289486,0.1648971655021296
4.219688,8.40299702435968,0.1644366656625258
4.222084000000001,8.430465460444204,0.1641048745983673
4.224472,8.467013234701035,0.1636158766257802
4.226856,8.504771713771364,0.1630987769266037
4.229252000000001,8.541971114334252,0.1626113893735629
4.2316400000000005,8.56631929265748,0.1623701738114196
4.234020000000001,8.584613946913215,0.1622618232152003
4.236416,8.605981637102007,0.1621012453674132
4.238804,8.62781585799962,0.1618871814006879
4.2411840000000005,8.642620063299585,0.16175519064468
4.243584,8.655701707106859,0.161643179469465
4.245972,8.669110111996092,0.1614840426416978
4.248355999999999,8.68242596908671,0.1612961277759531
4.250752,8.694950430244408,0.1611160528585158
4.25314,8.699466488416437,0.161061327183597
4.255520000000001,8.708778144014222,0.1609408276707891
4.25792,8.724607958530454,0.1607378391068452
4.260308,8.748958032711549,0.1604221392317213
4.262688000000001,8.763297603160561,0.1602595249368108
4.265088,8.770839475437404,0.1601933424395756
4.267476,8.78182647069964,0.1600933281717332
4.26986,8.80212512155966,0.1598766795380497
4.272252,8.821772146113622,0.15966110708689
4.27464,8.845283602533557,0.1593959283363473
4.277036000000001,8.874149734886686,0.1590474877143271
4.279427999999999,8.907531925411844,0.1586482937361009
4.281816000000001,8.943707612616338,0.1582136793597564
4.284192000000001,8.97615863758172,0.1578227800697861
4.286595999999999,9.004605461054268,0.1574898583733887
4.2889800000000005,9.037196255646508,0.1570940620106783
4.291360000000001,9.070950533224003,0.1567097464098763
4.293764,9.10945318639901,0.1563006481308888
4.2961480000000005,9.15046979699963,0.1558702421576365
4.298528000000001,9.186970349428217,0.155489245681009
4.300924,9.232550240029113,0.1549813474169865
4.303312,9.272915224323675,0.1545596752184541
4.305704,9.308624380819346,0.154197511747284
4.3081,9.338606774329486,0.1539090180629002
4.310484000000001,9.370638490414288,0.1535598434801669
4.312863999999999,9.40108741463325,0.1532190210764812
4.31526,9.430884712546158,0.1528784418823319
4.317644,9.46375504639212,0.1525031519238039
4.320043999999999,9.495135136170862,0.1521630934735764
4.322444000000001,9.521347541471512,0.1518700498016504
4.324832000000001,9.541041787853718,0.1516518634056684
4.327211999999999,9.561295112743364,0.1514127981094312
4.329616,9.581548437633009,0.1511743061382856
4.332004,9.607808064761906,0.1508591358113682
4.334384,9.641284698943553,0.1504482336005745
4.336788,9.675692498684976,0.1500332099346443
4.339172,9.7125217080534,0.1495817351667982
4.341552,9.746557420742484,0.1491643099278883
4.343956,9.78194360787193,0.1487236675525599
4.34634,9.820170513508954,0.1482249291297074
4.348724000000001,9.847223432428637,0.1478411412341778
4.351128000000001,9.872414020228764,0.1474753393386352
4.353512,9.899047630267866,0.1471087913366855
4.355892000000001,9.928894045866883,0.1466993083480962
4.358295999999999,9.96074256221232,0.1462677970393664
4.360684000000001,9.994081322624975,0.1458047103854835
4.363064,10.031144745276745,0.1453093705928821
4.365460000000001,10.062481404942982,0.144881184537442
4.367844,10.097869487930296,0.1443813399195119
4.370224,10.132373627186077,0.1438612501779552
4.37262,10.162920786777264,0.1433561808079753
4.375007999999999,10.193328176741591,0.1428611462745531
4.377388,10.226436515586638,0.1423202451848015
4.379784000000001,10.257450205886649,0.1417837581445478
4.382168,10.278640383909678,0.1413276804453105
4.384551999999999,10.292660776708203,0.1409301244139301
4.386944,10.30188557208098,0.1405826664138812
4.389332,10.309527575587916,0.1402425138734236
4.391712,10.311862124989904,0.1399421875398606
4.394108000000001,10.30725920659286,0.1397152563714088
4.396496000000001,10.309174447114271,0.1394284542805661
4.398888,10.317235759501788,0.1390711361007404
4.401284,10.328277560023745,0.1386582762277812
4.403672,10.332568884201777,0.1382851379770765
4.406052000000001,10.330062510207636,0.1379793565337105
4.408443999999999,10.32606589214628,0.1377026881156728
4.410832000000001,10.318484381472668,0.1374549805484085
4.413228,10.310670553373582,0.1371895580435898
4.4156200000000005,10.295127861542548,0.1369988359689292
4.418008,10.277256307883134,0.1368676692340066
4.420388000000001,10.263713820940646,0.1367344668781145
4.422784,10.251661578065375,0.136572307320662
4.425172,10.23509327701808,0.1364445905749983
4.427552,10.213310069664448,0.1363768969402591
4.429948,10.193062432348407,0.136332444638162
4.432335999999999,10.17798247951046,0.1362549450391952
4.434728,10.16439277073973,0.136148148355401
4.437128,10.149779348610606,0.1360255801577138
4.439512000000001,10.139170127974314,0.1358597237949805
4.441891999999999,10.135730692562529,0.1356390373386122
4.4443,10.130568695658049,0.1354296056481356
4.446683999999999,10.11916807908884,0.1352660269428268
4.4490680000000005,10.1008299947206,0.1351729702703936
4.451460000000001,10.08789191225593,0.1350656983854869
4.453848000000001,10.08384617650846,0.1348947148619428
4.456227999999999,10.08357232482835,0.1346638107572421
4.458624,10.080132889416562,0.1344433303785373
4.461012,10.075342979564418,0.1342462259414148
4.463392000000001,10.074649819003724,0.1340300458418937
4.4658,10.079962960682284,0.1337505972931113
4.468184000000001,10.086673798629445,0.1334197658366676
4.470568,10.08314181541904,0.1331746079000027
4.472963999999999,10.083846351126947,0.1329065891568037
4.475352000000001,10.093722772805778,0.132566826554385
4.477732,10.112026906350858,0.1321304334992907
4.480136,10.127025686537406,0.1317096679314923
4.482524,10.13736863892506,0.1313267873216852
4.484904,10.146453664670975,0.1309896196670127
4.487299999999999,10.15376890709595,0.130691550211437
4.489688000000001,10.162574393588145,0.130366745287734
4.492068,10.171799188960918,0.1300271250229158
4.494468,10.181675610639749,0.129689706878178
4.4968520000000005,10.194857385677114,0.1293373625477125
4.499232000000001,10.206316599221784,0.12899523755778
4.50164,10.21288766754208,0.128673480575406
4.504023999999999,10.213964290302329,0.1284198001841174
4.506408,10.220348367167524,0.1281323751247363
4.508804,10.22496266071178,0.1278823984595618
4.511191999999999,10.22757485350962,0.1276520605076439
4.513572,10.227393549628124,0.1274442913640572
4.515968000000001,10.22544246242569,0.1272749203775244
4.518356000000001,10.233175117873376,0.1270447707860345
4.520735999999999,10.235972406268449,0.1268620148851832
4.523132,10.230109665371796,0.1267553638886518
4.52552,10.21903201816881,0.1267050992778971
4.527915999999999,10.212051120257277,0.1266391593225961
4.530312,10.209027202010333,0.126562574130485
4.5327,10.21349983006986,0.1264009500601818
4.535080000000001,10.218763854062304,0.1262371235291676
4.537484000000001,10.22118715954717,0.1261232518419886
4.539872000000001,10.222632077644016,0.1260447112878086
4.542252,10.228732823539753,0.1259314637639574
4.5446480000000005,10.235113108689212,0.1258086867087399
4.547036,10.243215955331364,0.1256771618068024
4.549416000000001,10.252342515331916,0.1255616235264445
4.5518160000000005,10.267195838317994,0.125399496869373
4.5542,10.278976125371017,0.1252690813968009
4.556584000000001,10.2921068868644,0.1251160942001423
4.558987999999999,10.31296651208973,0.1248995411654311
4.561376000000001,10.336479864367533,0.124668165489851
4.563756,10.361203921458836,0.1244207185664668
4.566152000000001,10.377547488512135,0.1242342827492732
4.5685400000000005,10.400828523364462,0.1239870676949891
4.570924,10.431558882695017,0.1236861003316073
4.573320000000001,10.464710651652569,0.1233540924097159
4.5757080000000006,10.495907541691944,0.1230149667959421
4.578087999999999,10.52952584135832,0.122645521393656
4.58048,10.556578760278002,0.1223522584757259
4.582868,10.587915419944242,0.1220162491317627
4.58526,10.62009069737164,0.121651703166538
4.587656000000001,10.655758319612676,0.1212456443929013
4.59004,10.690774315547651,0.120841587025322
4.592420000000001,10.725371002602047,0.1204535026174238
4.594816,10.759967689656444,0.1200668959224778
4.597200000000001,10.79577508152434,0.1196651377457089
4.599592,10.82785781115312,0.1192896707948211
4.601996,10.857798670408627,0.1189350579851247
4.604384,10.88960186078369,0.1185683998397329
4.606764,10.911394547426667,0.1182881630009167
4.6091560000000005,10.93132490295009,0.118021179753636
4.611544,10.952046654406429,0.1177541744645995
4.613924000000001,10.984501471087547,0.1173970725113119
4.666496,10.924872924438574,0.117258750689581
4.66888,10.924780376639958,0.1172370810320553
4.671276000000001,10.927900634401258,0.1171842998139882
4.673680000000001,10.931300431416275,0.1171223602862585
4.676064,10.937353955483772,0.1170477046951882
4.678444000000001,10.943407479551263,0.1169732382817976
4.68084,10.952813578805534,0.1168634676279515
4.683224000000001,10.963150843619582,0.1167485190051445
4.685604,10.980565345859516,0.1165758622647303
4.688008,11.005196855152205,0.1163413703488604
4.690392000000001,11.03625397556472,0.1160462760853038
4.692772,11.071455067096933,0.1157167663712227
4.695168000000001,11.107355006763443,0.1153665645149709
4.697552,11.145396816803231,0.1149993576275322
4.699948000000001,11.17971396460391,0.1146571263919291
4.702344,11.21230855091189,0.1143242741030092
4.704727999999999,11.249745956473866,0.1139379557663649
4.707108,11.289465002035977,0.1135287898399812
4.709504000000001,11.333887097225224,0.1130682573541849
4.711888,11.382081076481828,0.1125633854274608
4.714268000000001,11.428040637566536,0.1120580621559824
4.716672000000001,11.4681808878671,0.111571186011374
4.719060000000001,11.51037046074232,0.1110483555449833
4.721436000000001,11.553678190632423,0.1104931443722473
4.723840000000001,11.594798724178876,0.1099126656272587
4.726228000000001,11.637316953993928,0.109292741212561
4.728608,11.679602866383506,0.1086609539753538
4.731012,11.717140403175575,0.1080333755080286
4.733396000000001,11.751791895489692,0.1074047714880706
4.735776,11.7822068688855,0.1067913511289771
4.73818,11.80996811522883,0.1061915842214793
4.740568,11.836286339333183,0.1055927111449039
4.742948,11.86409480750476,0.1049767563035685
4.7453520000000005,11.887666756758025,0.1043732307581026
4.747736,11.910866618958948,0.1037586270195677
4.750120000000001,11.929829962241564,0.1031537095849398
4.752511999999999,11.939853736978732,0.1026056756285981
4.7548960000000005,11.94578076242445,0.1020626887466508
4.757292,11.947331499324996,0.1015335579185348
4.759684,11.944878034732714,0.1010304235536531
4.762072,11.94521806681976,0.1005148759998301
4.764452,11.946069955586006,0.1000068461933339
4.766848,11.943429499538611,0.0995327771950987
4.769232000000001,11.94022996498378,0.0990755738095984
4.771628,11.936983208600706,0.0986421890638238
4.774024000000001,11.925029201097663,0.0982762460799193
4.7764120000000005,11.905299108034432,0.0979741396026496
4.778791999999999,11.886872267583314,0.0976789154606538
4.781188,11.862531672691564,0.0974397312885734
4.783576,11.836840603359455,0.0972159351543227
4.785952,11.811661390706544,0.0969999254398641
4.788348000000001,11.784060768426636,0.0968075195337938
4.790732,11.750546391706091,0.0966707087347349
4.793127999999999,11.719126663530584,0.0965416223121658
4.795524,11.686868317593914,0.0964361959323585
4.797912,11.658427181694972,0.0963350699704686
4.800292000000001,11.6372956006474,0.0962065111294404
4.802696000000001,11.619701690383836,0.0960907017445111
4.80508,11.601129392732254,0.0960029714564026
4.807460000000001,11.582789412506145,0.0959315496019859
4.809856,11.564821519332371,0.0958721574314958
4.812240000000001,11.547645022091524,0.0958126614297025
4.814636,11.529118050410313,0.0957689612538267
4.817031999999999,11.512965266527852,0.0957256902717536
4.819416,11.499466209697871,0.0956750099953259
4.821796000000001,11.495418578092536,0.0955827282340077
4.824199999999999,11.501660989473,0.0954244770782143
4.826588000000001,11.509625962346163,0.0952627421016403
4.828968,11.524528403018357,0.0950622695965192
4.831372,11.540734096302664,0.0948705341955097
4.833755999999999,11.556008624027196,0.0946831938351005
4.836136,11.57114338212486,0.0944999106177523
4.83854,11.589490945782448,0.0942928845364938
4.840928,11.606907343880255,0.0940901314538279
4.843308,11.627536547537977,0.0938648197675672
4.845712000000001,11.649236686382336,0.0936328450298184
4.848096,11.663999357427668,0.0934385200786807
4.8504760000000005,11.683185538846413,0.0932113115633611
4.852872,11.7125219936241,0.0929261623414575
4.855256000000001,11.746281958775205,0.0926082518965974
4.857635999999999,11.779390297620251,0.092287817111394
4.86004,11.809285830905385,0.0919892016685447
4.862428,11.844116731243126,0.0916661630166381
4.864808,11.87322086859534,0.0913682968135586
4.867204000000001,11.900602444454856,0.0910746114322393
4.869588,11.926261458821678,0.0907856067858628
4.871968000000001,11.947357193188225,0.0905354253368835
4.874371999999999,11.969523862741406,0.090278755524201
4.876760000000001,11.98954866192131,0.0900374157208024
4.87914,12.0082702084891,0.089786893338209
4.8815360000000005,12.023778949496975,0.0895575304296896
4.883924,12.039147920877989,0.0893318796987686
4.886304000000001,12.053306187445504,0.0891174433579119
4.8887,12.06439141807997,0.0889202557491553
4.891083999999999,12.072263843154513,0.0887451108351615
4.89348,12.074269735616667,0.0885971945671581
4.895884000000001,12.082002391064355,0.0884254864621733
4.898272,12.082657809086149,0.0882928447907685
4.900652000000001,12.070369457069669,0.0882255908242765
4.903048,12.05165549393335,0.0882008132740047
4.905431999999999,12.030520121170037,0.0881977751419954
4.907816,12.014459885086197,0.0881669876178604
4.910212,11.992533116389964,0.0881627896293383
4.917384,11.927916293286527,0.0881627883761381
4.919768,11.910133495709992,0.0881333104906018
4.922148,11.89393348999929,0.0881051079991388
4.924552,11.875871153169031,0.0880830006688437
4.926936,11.858041133764257,0.0880771209039702
4.929316,11.847288351785364,0.0880340506187666
4.931712000000001,11.837466735366252,0.0879878544277826
4.934096,11.83365142118639,0.0879118613094962
4.936488000000001,11.836913344432416,0.0877994665405572
4.938884,11.839244102118665,0.0876898479228074
4.941272,11.851585363536998,0.0875313903129572
4.943648,11.862483602716352,0.0873679570918771
4.9460560000000005,11.876315108201904,0.0871918159682578
4.94844,11.898806642979183,0.0869808779908739
4.95082,11.926513084062798,0.0867396747934571
4.9532240000000005,11.953567898840353,0.0864932089606485
4.955608,11.981553879177678,0.0862457782084587
4.957988,12.014475226567624,0.085976241372387
4.960392000000001,12.05060937951748,0.0856871591929042
4.962776,12.090468194706451,0.085387036944676
4.965156,12.130466779522283,0.0850848770648956
4.967560000000001,12.164039753218283,0.0848239442763349
4.9699480000000005,12.193096668742252,0.0845740768115394
4.972328000000001,12.229370591318972,0.0842873133104249
4.974724,12.269136858709324,0.0839740387733663
4.977112,12.307971960539902,0.0836670541700557
4.9794920000000005,12.349880098303531,0.0833460299129583
4.981888,12.384990537894996,0.0830531878170792
4.984276,12.418238646366902,0.0827684763569602
4.9866600000000005,12.455490956331644,0.0824664398524041
4.98906,12.48380369775094,0.0822041516951696
4.991448,12.512907835103151,0.0819440138427607
4.993828000000001,12.54028941096267,0.0816858741205716
4.996232000000001,12.56608819495635,0.0814271067981097
4.998616,12.592026748576892,0.081166409119157
5.000996000000001,12.620758798876768,0.0808984853570116
5.003400000000001,12.647488748430224,0.080640620967276
5.005788000000001,12.674358467610544,0.0803808593690572
5.008164000000001,12.70150772604458,0.0801157468132998
5.010572,12.726934422985924,0.0798527698264827
5.012956000000001,12.751150415113766,0.0796000668217248
5.015336,12.778067356122328,0.0793212930956023
5.0177320000000005,12.808057333063946,0.079028867978036
5.02012,12.828688432579536,0.0787827239901025
5.022500000000001,12.849039992841409,0.0785450162319739
5.024903999999999,12.863525020490892,0.0783282718141016
5.027288,12.873493989968342,0.0781196867374229
5.029668000000001,12.886396225751986,0.0779010649569901
5.032071999999999,12.894363094483015,0.0777005821614501
5.034459999999999,12.901678336907992,0.0774960709428334
5.03684,12.91313755045266,0.0772723501999905
5.039244,12.921663497691132,0.0770586371115838
5.041627999999999,12.9331227112358,0.0768355824110777
5.044008,12.945513090340244,0.0766114252302798
5.046412,12.954039037578717,0.0763994002739601
5.0488,12.964846624817326,0.0761739141609628
5.05118,12.975282125003597,0.0759372330205882
5.053584000000001,12.982924128510533,0.0757071120353139
5.055972000000001,12.986701700151496,0.0754886638543273
5.058351999999999,12.990758811046184,0.0752636231308201
5.060748,12.99509546119459,0.0750319402776976
5.063136,12.9964988450368,0.0748092078971033
5.065516000000001,12.998321537759592,0.074576860287122
5.067912,13.00899125122921,0.0742958713405811
5.070296000000001,13.019568416900212,0.0739975623273041
5.072676,13.032566992198213,0.0736816129069913
5.0750720000000005,13.049709538615906,0.0733491124253858
5.077456,13.064477897234848,0.0730121921153248
5.079852000000001,13.08138812622706,0.0726643836140557
5.082255999999999,13.095225319286222,0.0723289402656538
5.08464,13.106408785292908,0.0719956420871318
5.087020000000001,13.122015761673008,0.0716392668124052
5.089423999999999,13.135248550254357,0.071278902792225
5.091808,13.14303411510389,0.0709251246219321
5.094188000000001,13.154312024767062,0.0705500703538243
5.096584,13.158000840325148,0.0701911992740055
5.098967999999999,13.157545684763535,0.0698481236187563
5.101352,13.160023795508128,0.069497595690671
5.103756000000001,13.164364237372268,0.0691438364363104
5.10614,13.167633744049771,0.0687951277977541
5.10852,13.169180689234585,0.0684459753405319
5.110916,13.178596267778198,0.0680760244078211
5.113300000000001,13.186521602254595,0.0677217241427139
5.115679999999999,13.183225728185407,0.067406154452089
5.118084,13.177368674862365,0.0671102242664589
5.120468000000001,13.172163247845376,0.0668195180203983
5.122847999999999,13.164676180828254,0.0665419738898119
5.125252,13.158632136050104,0.0662714147040407
5.12764,13.153659026458598,0.0659962027695911
5.13002,13.150688017613508,0.065714870434979
5.132424,13.151301901380666,0.065431986516892
5.134812,13.148702979587911,0.0651631797860818
5.137192000000001,13.1435428785413,0.064912663849065
5.139588,13.14075696529344,0.0646676269462289
5.141976,13.133128232791588,0.0644534741600135
5.144356,13.130946724021545,0.0642349767465822
5.146751999999999,13.127554510438005,0.0640229770739968
5.149140000000001,13.116153893868796,0.063833160470227
5.151532,13.103542572486088,0.0636509634814757
5.1539280000000005,13.092793582222937,0.0634663797324162
5.156316,13.083347844571902,0.0632924902168229
5.158696000000001,13.065474395054618,0.0631507995231241
5.161099999999999,13.043317204790778,0.0630263959203417
5.163488000000001,13.031542605311364,0.0628861000134915
5.165872,13.018697070645308,0.0627498727725551
5.168272,13.005571996725532,0.0626201653611908
5.17066,12.992307153178896,0.0624936307290219
5.17304,12.98104441037868,0.0623617262910343
5.175444000000001,12.971224689817438,0.0622377115087211
5.177832,12.961265199629336,0.0621169011522584
5.180212000000001,12.950374543881455,0.0619972133544326
