Time,Force,Position
5.618055999999999,8.93653006893384,0.1558998482349832
5.62046,9.076650579172853,0.1549909740116913
5.622844000000001,9.199362274745535,0.1541511472675134
5.651508,9.152728511678832,0.1535342548588188
5.653903999999999,9.153334812014515,0.153479815733715
5.6563,9.158549718320849,0.1534032835755072
5.658683999999999,9.176893490262694,0.1532033613588376
5.661064,9.215118500041848,0.1527444346647427
5.663468,9.252878874970047,0.1522587330064579
5.665856,9.284587621688624,0.1518005621083906
5.668236,9.295810726092077,0.1515631084431009
5.670640000000001,9.29450936933783,0.1514724320993046
5.673024,9.303171294487422,0.1512807874134584
5.675404,9.316164182211816,0.150996387519158
5.677807999999999,9.335535459227794,0.1506496574813099
5.6801960000000005,9.356255314826264,0.1503582207290059
5.682575999999999,9.37650863971591,0.1501116507176053
5.684972,9.410217591323034,0.1497064552363191
5.68736,9.444765160691317,0.1492754333803242
5.6897400000000005,9.47628691595479,0.1488517178276721
5.692143999999999,9.509903319763296,0.1484181409734807
5.694532000000001,9.541889709877722,0.1480264944064748
5.696911999999999,9.574807265551923,0.1476366196920044
5.699308,9.607260186375177,0.1472196138832311
5.701696,9.626491693764295,0.1468892990885649
5.704079999999999,9.65023925932545,0.1465121283361815
5.706476,9.667141904886188,0.1462451690955031
5.708864,9.672311485222147,0.1461215062979421
5.711243999999999,9.677900374438687,0.1459837899007071
5.713647999999999,9.675293869214451,0.1459761769103971
5.716032,9.680321784065685,0.1459416300205579
5.718411999999999,9.709699773098007,0.1456537348839912
5.720808,9.746993617317385,0.1452551040758007
5.723196,9.775767201871895,0.1449480571562423
5.725576,9.787220727842952,0.1448260156209566
5.727971999999999,9.800024728254376,0.144676028553418
5.730359999999999,9.82176829721124,0.1444187621568891
5.732756,9.83694838127928,0.1441789801619934
5.735151999999999,9.846868233070618,0.1439561732523128
5.737539999999999,9.857811798220348,0.1437459671756162
5.73992,9.866938358220896,0.1436043283801534
5.742315999999999,9.883514242699672,0.1433910761403314
5.7447040000000005,9.892548254901603,0.1432296056075551
5.747083999999999,9.89399317299845,0.1431460862026607
5.74948,9.897997374491284,0.1430989834484869
5.751863999999999,9.905352255313025,0.1430855541474359
5.7542480000000005,9.92136716542649,0.1429791292817934
5.756644,9.937569066995058,0.1428397148402629
5.759032,9.942224894793949,0.1427954233360476
5.770987999999999,9.949626997443932,0.1427436290074112
5.773375999999999,9.956657013041578,0.1426887708888682
5.775756,9.973975175767158,0.1425895860439638
5.778152,9.996648014425933,0.1424246200465244
5.78054,10.011731758979616,0.1423345899004938
5.782919999999999,10.02197268427931,0.1423214634172677
5.7853200000000005,10.039336172975265,0.1422790940766365
5.787704,10.077232525814583,0.1420213821210553
5.790087999999999,10.109636328951725,0.1417638909008141
5.792484,10.141807814663384,0.1414909284457028
5.794872,10.174351387427382,0.1412304291867955
5.797267999999999,10.213924975789029,0.1409169982536743
5.7996680000000005,10.261042332285385,0.1404867750255071
5.802052,10.307090649452972,0.1400008993672236
5.804435999999999,10.344106850276496,0.1395849489596788
5.806832,10.380749068189814,0.1392289168581084
5.80922,10.426515950245811,0.1388257164592544
5.8116,10.489929651967223,0.1382261839929511
5.814,10.555951754770737,0.1375672569321829
5.816383999999999,10.607307526043272,0.1370507060540424
5.818764,10.66178165921924,0.1365477316489085
5.821168,10.714765548327987,0.1360734039507261
5.823551999999999,10.766400858854244,0.1355557537695633
5.825932,10.807468482998845,0.1350940780316115
5.828336,10.85174891270336,0.1345941045326885
5.830724,10.900218639497943,0.134094387225019
5.8331040000000005,10.951109775919528,0.1335658415568569
5.8355,10.991293456332594,0.1330987287556411
5.837883999999999,11.023655725215097,0.1326790292153599
5.840264,11.05345681484374,0.1322985460778358
5.842668,11.08158066895006,0.1319734156039045
5.845056,11.112917328616296,0.131615535655193
5.847436,11.139133525632689,0.13126771822004
5.849843999999999,11.156270384476771,0.1310078526350138
5.852228,11.180017950037923,0.1307192306217734
5.854612,11.216849055264216,0.1303076011884655
5.857008,11.247256445228548,0.1298959200008024
5.859392,11.259367285079271,0.1295908661753575
5.861775999999999,11.25760318933194,0.1294070465283746
5.864172,11.269247498473842,0.1291391562885165
5.866555999999999,11.289971145788051,0.1287903043127534
5.868936,11.315352516759017,0.1283389961705626
5.871331999999999,11.32690617396017,0.1279823057311939
5.873716,11.331335371907194,0.1277143399937201
5.876111999999999,11.33636897433203,0.1274750517137462
5.878508,11.345873308958524,0.1271619592139602
5.880896,11.34625297944234,0.1268846351743585
5.883276,11.340486578060045,0.1266645321245791
5.885672,11.339840639327592,0.1264441837825191
5.888055999999999,11.343059132461114,0.1261934042187575
5.890435999999999,11.351586975557458,0.1258401834499743
5.892832,11.350058988951345,0.1255282503939678
5.89522,11.337821650478842,0.1253262235446685
5.897615999999999,11.334197119469822,0.1250827089823084
5.900012,11.332342371781742,0.1248060034801471
5.902396,11.316939449577568,0.1246109991153391
5.904776,11.302327923306311,0.1244137655790751
5.907171999999999,11.293348716364102,0.1242248623510874
5.909559999999999,11.2999197846844,0.1239374841392656
5.911956,11.300671542220552,0.1236718233348963
5.914351999999999,11.285873024494192,0.123503522792716
5.916739999999999,11.26287911232706,0.1234324209233248
5.91912,11.248498007623414,0.1233218443450377
5.921524,11.242544614786016,0.123128804292388
5.923907999999999,11.231982615977968,0.1229408125562332
5.926292,11.213551983811112,0.1228163850601611
5.928696,11.199590187988049,0.122690810201457
5.93108,11.19149492477737,0.1225181746890352
5.93346,11.184378048954716,0.1223135960065786
5.935855999999999,11.172465575706308,0.1221443976102387
5.938243999999999,11.161948902868634,0.1220025024883447
5.940624,11.159113871934665,0.1218282081510315
5.943028,11.161493747307023,0.121603644243954
5.945416,11.15591244152196,0.1214208564252059
5.947796,11.14776995648304,0.1212732855493489
5.950187999999999,11.148799357415044,0.1210690344682051
5.9525760000000005,11.149688988720188,0.1208696113368409
5.95496,11.14783234517424,0.1206624797245403
5.957355999999999,11.13387054935117,0.1205336223099532
5.95974,11.124285042073277,0.1203836028980918
5.9621200000000005,11.122940255206526,0.1201833324949384
5.964523999999999,11.12615874834005,0.1199313795786733
5.966911999999999,11.129936319981017,0.119661925326187
5.969291999999999,11.133294582741398,0.1194070102383323
5.971696,11.143682861099428,0.1191184076147974
5.974084,11.15793557132343,0.1188009981078472
5.976468000000001,11.16944200669634,0.1184751434847073
5.978871999999999,11.178806571695972,0.1181714134015814
5.981256,11.183607856695332,0.1179180962279965
5.983635999999999,11.190551012067967,0.1176433503500812
5.986032,11.189672755910038,0.1174029460294851
5.98842,11.18534937676672,0.1171771896240005
5.9908,11.18554205579543,0.1169274492407695
5.9932,11.189599166690114,0.1166495390348002
5.995583999999999,11.19328419053246,0.1163593195009157
5.997964,11.192965012881976,0.1161017226213352
6.000368,11.190503964858213,0.115864278571566
6.002756,11.187623607953867,0.1156397963376528
6.005136,11.190749553288777,0.1153663653880058
6.007531999999999,11.187869196384431,0.1151406250206583
6.009919999999999,11.184849069853229,0.1149198511042185
6.0123,11.179267764068166,0.1147331321637778
6.014704,11.172615523096466,0.1145566671493052
6.017092,11.165032116564984,0.1143858585269008
6.019468,11.153584278167532,0.1142418758004838
6.021863999999999,11.139575260516224,0.11413124124325
6.024252000000001,11.128592056969724,0.1140206107874938
6.026631999999999,11.11560675267681,0.1139253072675288
6.029036,11.106905189130446,0.1137896850108044
6.031424,11.099646647823064,0.1136564494011272
6.033799999999999,11.097416021366907,0.1135077441583038
6.036204,11.099980992336503,0.1133276816277239
6.038592,11.098681531440128,0.1131742576338593
6.040972,11.097893927222946,0.1130290235927443
6.043367999999999,11.09333443893841,0.1129308716784058
6.045755999999999,11.090497512146571,0.112826366781094
6.048136,11.093247578713402,0.1126897887337435
6.0505320000000005,11.100933012332844,0.1125179123869645
6.05292,11.110201237818124,0.1123449929723589
6.055316,11.12747786628907,0.1121123313452334
6.057715999999999,11.144894264386876,0.1118762798100417
6.060103999999999,11.163381597671322,0.1116305836141108
6.062484,11.179307751701907,0.1114172410114902
6.0648800000000005,11.194674827225052,0.1112217767215658
6.067268,11.212323542748337,0.1110030538095939
6.069647999999999,11.233185063831536,0.1107552396919834
6.072044,11.256328224914872,0.1104856567738717
6.074427999999999,11.282264882677543,0.1102007661393835
6.076812,11.306711296372995,0.1099394804587867
6.079208,11.332368414881948,0.1096658354889253
6.081595999999999,11.359655547084978,0.1093670296847227
6.083976,11.377863341115702,0.1091356197312468
6.086371999999999,11.39914417107948,0.1088813940773317
6.088759999999999,11.419913144364063,0.1086199893259764
6.091156,11.447107728768476,0.1083022753993852
6.093551999999999,11.471508816493554,0.1079994049846523
6.095940000000001,11.4913938460466,0.1077185723649243
6.098324,11.508066070039732,0.1074668041785337
6.100719999999999,11.523946898099949,0.1072168743149439
6.103107999999999,11.535823524667322,0.1069962134448604
6.105487999999999,11.550633417540896,0.1067587926836828
6.107884,11.567445411160888,0.1065086973646286
6.110272,11.59254534702027,0.1061976733062114
6.112655999999999,11.619275296573726,0.1058617421900307
6.115052,11.645725706873469,0.1055357534824982
6.11744,11.671384721240289,0.105211174089368
6.119824,11.69397069967405,0.1049103066661008
6.122223999999999,11.715485742921176,0.1046187588161716
6.124611999999999,11.741284526914855,0.1042945542235041
6.126992,11.76508121016212,0.1039846569236774
6.1293880000000005,11.785385548595746,0.1037094329104274
6.131776,11.817143413000435,0.1033743282168498
6.134155999999999,11.846619637404984,0.1030616968954038
6.136556000000001,11.8726035169959,0.1027819800993851
6.13894,11.899099253266016,0.1025123795943609
6.141323999999999,11.927876629536264,0.1022219524545669
6.143716,11.955163761739293,0.1019514631134786
6.146103999999999,11.97844669244949,0.1017052494420004
6.148496,11.998656587226629,0.1014803590730284
6.150891999999999,12.01872671237691,0.1012598594666509
6.1532800000000005,12.033302391967135,0.1010861933400882
6.155659999999999,12.043594330810812,0.1009460738062392
6.158064,12.0443876226016,0.1008772000633544
6.160451999999999,12.04741533256428,0.1008122800861796
6.189119999999999,12.022137884539148,0.1007884634721447
6.191504,12.025490459725924,0.1007607813430715
6.1938960000000005,12.037130977152088,0.1006778989460835
6.196284,12.049702660138026,0.1005908486179304
6.198663999999999,12.063764587191187,0.1004844882354871
6.20106,12.07773396644573,0.100358069202373
6.203448,12.09626662570055,0.1001924485415965
6.205843999999999,12.119921643463083,0.099971474046036
6.20824,12.136826184881691,0.0997625664717085
6.210623999999999,12.154848883315184,0.0995230415263451
6.213004,12.173710199509832,0.0992604238017368
6.215399999999999,12.195412234212062,0.0989630569586127
6.2177880000000005,12.216230325182757,0.0986472046479478
6.220167999999999,12.242542861713504,0.0982901331403908
6.222567999999999,12.27048541193833,0.0979107738818373
6.224952,12.290327011378873,0.0975585935411428
6.227347999999999,12.316733991566108,0.0971569722841961
6.229744,12.348263330261055,0.0967024751002914
6.232132,12.37290242298522,0.0962638556437249
6.2345120000000005,12.393165227164213,0.0958355217765638
6.236908,12.410541986865251,0.0953991496239236
6.239296,12.425684328394397,0.0949612188149513
6.241676,12.435379446191734,0.0945423022953537
6.244071999999999,12.448846448056424,0.0940873184924828
6.246459999999999,12.459380183614922,0.0936469391248652
6.24884,12.47112462398692,0.0931952518271302
6.251244,12.48128627249308,0.0927445209081253
6.253627999999999,12.487443719506404,0.0923150188287056
6.256012,12.497465598385704,0.0918677677754862
6.258407999999999,12.504414441331951,0.0914386004942095
6.260795999999999,12.512294449837974,0.0910073452387448
6.263176,12.51831212722444,0.0905833947713161
6.265572000000001,12.52218793423763,0.0901734624239004
6.26796,12.515913467891874,0.0898171081929904
6.270351999999999,12.508056209680284,0.0894597830754649
6.272748,12.502712908894305,0.0890994560640771
6.275136,12.491083766615356,0.088776348436226
6.277516,12.474239718030075,0.0884834744570103
6.279916,12.459909626870408,0.0881881965390404
6.282299999999999,12.449164428322993,0.0878836126428087
6.28468,12.43907085608164,0.0875829186486228
6.287075999999999,12.422411903093588,0.0873259752214578
6.289463999999999,12.406916433090796,0.0870813714174165
6.29186,12.38671791346087,0.0868748470060317
6.294255999999999,12.3701042864432,0.0866599491663331
6.296644000000001,12.35078971054481,0.0864728923368312
6.299028,12.328634416138836,0.086317607781112
6.301423999999999,12.311507036584096,0.0861594501908637
6.303811999999999,12.292889412962134,0.0860188590681996
6.306191999999999,12.274504106765653,0.0858937525706973
6.308588,12.253417851688452,0.0857966899363267
6.310976,12.230282274036592,0.0857323026092876
6.313359999999999,12.208589718623706,0.0856730008075668
6.315764,12.19835068918188,0.0855714490748055
6.318152,12.188343977165534,0.0854855978329906
6.320532,12.178197495522326,0.0854033169835656
6.322927999999999,12.176711043170842,0.0852880589779897
6.325315999999999,12.179600879364532,0.0851662316456745
6.327696,12.18421327705092,0.0850429427038195
6.3301,12.194272898469114,0.084907794475192
6.332488,12.206706707686063,0.0847759750737871
6.334868,12.2267296110081,0.0846186546631865
6.337268,12.249825550263193,0.0844466670106282
6.339651999999999,12.27478382063784,0.0842691131052984
6.342036,12.296529285452571,0.0841111532090887
6.344431999999999,12.326422922879834,0.0839142536297437
6.3468160000000005,12.359529365867012,0.0836984498272054
6.349195999999999,12.389050916241938,0.0834903438720117
6.3516,12.42043479773642,0.0832774310005936
6.353987999999999,12.454100319231037,0.0830486130293789
6.356368,12.489116315166012,0.0828062912398991
6.358772,12.53162885740746,0.082521305209447
6.361155999999999,12.571719990021908,0.0822556097243218
6.363536,12.607155294837469,0.0820050179105433
6.365936,12.646455031519,0.0817423371561388
6.368319999999999,12.687477329693229,0.0814786632583298
6.370704,12.72477496562834,0.0812277352998229
6.373108,12.75820816969748,0.0809906916197637
6.375492,12.792712308953265,0.0807496688157318
6.377872,12.818835958171038,0.080531716478447
6.380276,12.84644985145603,0.0802988120531909
6.38266,12.873272348808108,0.0800663123367837
6.38504,12.896509953547929,0.0798406419613806
6.387447999999999,12.924031299034304,0.0795931808885817
6.389832,12.954253593401395,0.079320792169828
6.392211999999999,12.97954052071588,0.0790686085225417
6.394615999999999,13.005898383217003,0.0788120930335381
6.397,13.032675554598704,0.0785454010140314
6.399384,13.05773016448771,0.0782800808743581
6.4017800000000005,13.083343852884155,0.07800236206756
6.404164,13.110308015720962,0.0777133202913392
6.406547999999999,13.13075401963932,0.0774405424997822
6.408944,13.15618261243853,0.0771291314717404
6.411332,13.181890744491463,0.0768116792671752
6.413712,13.196145350573335,0.0765248756614747
6.416108,13.208165538483316,0.0762306317474155
6.418495999999999,13.214179424154043,0.0759581912560419
6.420876,13.224477050571323,0.0756643111244352
6.423276,13.229979079562854,0.0753843871459297
6.425663999999999,13.2362725044873,0.0751050899545657
6.428044,13.237770331986,0.0748396060948298
6.430436,13.23675420205908,0.0745735434731577
6.432824,13.234527367318664,0.0743158161239274
6.435219999999999,13.227644704779356,0.0740682756541662
6.437616,13.219411567799686,0.0738329981240205
6.440004,13.21024726526024,0.0735994348804544
6.4423840000000006,13.198149696414598,0.073374886414395
6.444787999999999,13.189637020181207,0.0731467348078308
6.447175999999999,13.18298667506738,0.0729150332348732
6.449555999999999,13.173495611445968,0.0727104116410912
6.451952,13.165307800436675,0.0725161906638379
6.45434,13.15656091091994,0.0723348529283397
6.456724,13.145252842149349,0.0721738014685987
6.45912,13.133525464498176,0.0720226621765726
6.461508,13.134322548004702,0.0718393489023797
6.463887999999999,13.140566855243035,0.0716498889542636
6.466284,13.152677695093764,0.0714434220612802
6.468672,13.161575729384571,0.0712523542215457
6.471052,13.173407029981576,0.0710532593565775
6.473452,13.191244632817837,0.0708352982854294
6.475835999999999,13.210385488266208,0.0706273286158636
6.478216,13.229898430766914,0.0704312780214825
6.480623999999999,13.255277905880016,0.0702199771716307
6.483008,13.282100403232093,0.0700160774819476
6.485388,13.306781030210889,0.069821866728944
6.487788,13.331461657189688,0.0696278170770681
6.490176,13.357213219355126,0.0694293598557845
6.492556,13.376958479281312,0.0692502242489673
6.494952,13.39698327846122,0.0690653512559934
6.49734,13.42050042245476,0.0688601820806507
6.49972,13.439641277903132,0.068656343349693
6.50212,13.46213470853828,0.0684353611787604
6.504503999999999,13.487980714360209,0.0681982642052392
6.506888,13.513314863502927,0.0679532123830464
6.509283999999999,13.535203889660265,0.0677091643065042
6.511668,13.552856396899283,0.0674635125450539
6.514063999999999,13.570928213018886,0.067209206374797
6.51646,13.59049027320571,0.0669411445613598
6.518844,13.606467440780277,0.06667521050834
6.521227999999999,13.6159264494364,0.0664188171039411
6.523624,13.62757455029404,0.0661331321224039
6.526012,13.638338707420145,0.0658276400533585
6.528392,13.641141683388826,0.0655235987045656
6.530787999999999,13.646925147491944,0.0651932455548896
6.533175999999999,13.65676003491614,0.064831379704667
6.535572,13.668224936034417,0.0644530405444368
6.537967999999999,13.68038868528699,0.0640598104029967
6.540352,13.697535023420423,0.0636342737586043
6.542731999999999,13.713238339314875,0.0632024435500576
6.545131999999999,13.724565366664162,0.0627699770197256
6.547516,13.73738263808067,0.0623239529442563
6.549899999999999,13.749408513564257,0.0618768859888925
6.552304,13.755987165316032,0.0614331453826756
6.5546880000000005,13.763636752254447,0.0609857609316071
6.557067999999999,13.766350972140252,0.0605486566164162
6.559464,13.769577048705251,0.0601202701738225
6.561852,13.769730089337196,0.059700777775967
6.5642320000000005,13.769883129969138,0.0592818007980348
6.566632,13.771758732093778,0.0588635972054635
6.569016,13.775356895711116,0.0584462306538914
6.571400000000001,13.775602484141675,0.0580438711344352
6.5738,13.777151325184354,0.0576523786503833
6.576188,13.78465924663804,0.0572679766551877
6.578571999999999,13.78145781622534,0.0569207723127761
6.580968,13.77727799842462,0.0565959400692892
6.583356,13.771188627676098,0.0562932450337056
6.58574,13.762910164726057,0.0560187404131198
6.588136,13.751511444014715,0.0557730785304402
6.590524,13.740065501475137,0.0555480998194878
6.592903999999999,13.730574437853726,0.0553393616127719
6.5953,13.717963116471015,0.055158740881246
6.597688,13.705863651767508,0.0549868007931456
6.600083999999999,13.696790001168807,0.0548278144196407
6.60248,13.688228207249306,0.0546775568007692
6.604868,13.6831115363152,0.0545310861486311
6.607251999999999,13.676784160567594,0.0543911052302666
6.609648,13.676183547805516,0.054245610141321
6.612036,13.674884086909136,0.0541153962861439
6.614416,13.677960914557932,0.0539894875198278
6.616816,13.68262053407256,0.0538689379750574
6.619204,13.689374802132225,0.053762353292137
6.621584,13.697711862057725,0.053661340163291
6.623984,13.706188691610087,0.053557802528242
6.626372,13.722394384894397,0.0534449613053363
6.628752,13.736597977432286,0.0533360702935039
