Time,Force,Position
5.491916,8.849474269982377,0.1576902889521612
5.494295999999999,8.924977957117957,0.157386706431262
5.496699999999999,8.988848710258848,0.1569201869457754
5.499084,9.026000888993496,0.1565158589221476
5.506247999999999,8.99779586223577,0.1564010209577722
5.508628,8.991746129884017,0.1563378239252573
5.511023999999999,8.992307104249326,0.1562228860960424
5.515787999999999,8.984906897457213,0.1561885835502813
5.518184,8.988072481188883,0.1561693897583164
5.520572,8.995567131637486,0.1561387888495199
5.522967999999999,9.007810157683595,0.1560773597498774
5.525368,9.025128320409175,0.1559400323659487
5.554036,9.063343850898985,0.1558923347403104
5.556419999999999,9.08620178515499,0.1557350672174545
5.5588,9.114274625717332,0.1555043422918232
5.561204,9.13890234329428,0.1553007609704804
5.563592,9.1579902893408,0.155128409965467
5.565971999999999,9.179127557961982,0.1549015041567842
5.568372,9.212556970315385,0.1545095385161271
5.57076,9.251341058601978,0.1540406854266743
5.573139999999999,9.294920744314323,0.1535236801237868
5.575536,9.340874617825426,0.1529986141563799
5.577923999999999,9.387712435068062,0.1524960764221035
5.580304,9.436924440109454,0.151979005570415
5.582704,9.495028791868046,0.1513788220165482
5.585092,9.560302928851147,0.1507089691966339
5.587472,9.626228692140304,0.1500403259080212
5.589875999999999,9.690943750615965,0.1493959042233344
5.59226,9.766181169502904,0.148626215746707
5.594643999999999,9.839603479098532,0.1478605714375169
5.597047999999999,9.91125790123109,0.1470553122247848
5.599432,9.974346737728409,0.1462864168524848
5.601811999999999,10.026261587508383,0.1456464051798897
5.604215999999999,10.06099614833177,0.1452066242611256
5.606603999999999,10.090423255050206,0.1448163001217315
5.608984,10.128417843261753,0.1443095570795302
5.611388,10.170137093712412,0.1437641033802635
5.613771999999999,10.210738187148191,0.1432706254558796
5.616152,10.242352490210282,0.1429174586543839
5.618556,10.27024213103326,0.1426034308522192
5.620944,10.286026619579117,0.142403441821045
5.623324,10.296783193273743,0.1422349236488765
5.625727999999999,10.314384686968785,0.1419707183620109
5.628112,10.340833201410652,0.1415921049882523
5.630492,10.365885915441789,0.1411912308409986
5.632895999999999,10.38670211055461,0.1408169007630062
5.635283999999999,10.406726909734518,0.1404452735405099
5.637663999999999,10.42409798186195,0.1400923272907951
5.640067999999999,10.438443239884569,0.1397493826438363
5.642455999999999,10.444268238242325,0.1394840026717438
5.644836,10.444878330293744,0.1392783217134622
5.647231999999999,10.450888424248737,0.1390554462466241
5.649616,10.464068303428228,0.138778661024776
5.651995999999999,10.483394254473833,0.138432685998451
5.654392,10.501696492161043,0.1380724981494649
5.65678,10.507474268690553,0.1378328197549224
5.65916,10.510830635593068,0.137629884746378
5.661551999999999,10.508088152457711,0.1374688443166429
5.66394,10.505440112978844,0.1372522677413332
5.666319999999999,10.502047899395302,0.1370106103101358
5.668716,10.500238477677598,0.1367607315770925
5.683059999999999,10.39550984214164,0.1365128451578972
5.685443999999999,10.38438686896828,0.1364228323238113
5.687823999999999,10.372100412809669,0.1363224813769761
5.69022,10.362327914076667,0.1362084645337125
5.692608,10.358374726127815,0.1360645982090312
5.694999999999999,10.360055753365875,0.1358468718230702
5.697403999999999,10.350889554968562,0.1356846407656698
5.699788,10.33404171466754,0.135566046664093
5.702167999999999,10.317518739590616,0.1354872741208736
5.704571999999999,10.308909723842872,0.1353819307805422
5.706959999999999,10.307657484774738,0.1351916629669185
5.709339999999999,10.309525503467905,0.1349396129348866
5.711736,10.303896975854595,0.1347770394504232
5.714119999999999,10.293098867905334,0.1347251243870556
5.7165,10.289470545180576,0.1346203521646704
5.718895999999999,10.284865730925665,0.1344725205074346
5.721283999999999,10.283940252939493,0.1342419191438699
5.723663999999999,10.284178257938578,0.1340204774696296
5.726059999999999,10.28953672558751,0.133794729757807
5.728444,10.299598242863574,0.1335009075889089
5.730839999999999,10.301745800810462,0.1332343700339973
5.733236,10.288435631293453,0.1331143636382771
5.735624,10.27372776550784,0.1330454516525555
5.738004,10.265630606439297,0.1329453659215895
5.740395999999999,10.260606483303803,0.1328120088810611
5.742783999999999,10.245339539010752,0.1327628655096636
5.74518,10.234820970315209,0.1326983703441344
5.747572,10.232076591321988,0.1326133024549565
5.74996,10.23105477382146,0.1325179916982058
5.75234,10.232781127029895,0.1323486229148373
5.754735999999999,10.224823737588212,0.1322427041985716
5.757123999999999,10.216027730385363,0.1321671817597424
5.759504,10.215332673966802,0.1320334193146325
5.761908,10.222553472735289,0.1317943773271463
5.764291999999999,10.227027996652684,0.1315507083434113
5.766672,10.23001227650286,0.131335781435821
5.769076,10.229317220084296,0.1312021109632022
5.771464,10.234209157024404,0.1310240017424334
5.773843999999999,10.236215049486562,0.1308448272323693
5.77624,10.235427445269382,0.1306883373753037
5.778627999999999,10.242181713329044,0.1304955836218858
5.781008,10.255826227359494,0.1302629811471505
5.783412,10.270960985457164,0.1300023918687604
5.785796,10.280416202397545,0.1297637957578642
5.788176,10.285634900419616,0.1295475531673176
5.790576,10.298023383666193,0.1292821240139277
5.792964,10.313904211726406,0.1289708550259311
5.795344,10.322894793815832,0.1286979225060134
5.797739999999999,10.331001432173723,0.1284045758697293
5.800127999999999,10.333473855344709,0.1281831740186566
5.802524,10.340694654113197,0.1279478482246707
5.804927999999999,10.348194992135404,0.1277026672760509
5.807316,10.352389976799078,0.1274715099235332
5.809695999999999,10.355094717395534,0.1272686820841332
5.812099999999999,10.357752236163748,0.1270939199106278
5.814487999999999,10.358267884558684,0.1269433499310519
5.816868,10.364697287394254,0.1267120714914631
5.819263999999999,10.364608531311374,0.1265309836605334
5.821652,10.36796489821389,0.1263313063649733
5.824028,10.369970790676044,0.1261533768607963
5.826423999999999,10.366948768286967,0.1259983081719552
5.828811999999999,10.363694428472416,0.125825661423319
5.831196,10.360020779777283,0.1256680102627141
5.833592,10.364448081866438,0.1254583483686034
5.835975999999999,10.377116104366737,0.1251935778015561
5.83836,10.386199234254782,0.1249519703340544
5.840752,10.391929788956052,0.1247513615243511
5.84314,10.401896862575631,0.1245311288051951
5.845519999999999,10.411676944740105,0.1243434622838853
5.84792,10.427463329143832,0.1241009192203037
5.850308,10.440456216868222,0.123878286224954
5.852687999999999,10.454100730898672,0.1236593857087189
5.855084,10.471330137541376,0.123419107245205
5.857467999999999,10.486557443437665,0.1231971912407191
5.859864,10.504066389334085,0.122948017712686
5.862259999999999,10.524229062282982,0.122683535162094
5.864647999999999,10.54355311747072,0.122451048653127
5.867028,10.569255561950047,0.1221783456132281
5.869423999999999,10.597891272735566,0.1218838669504711
5.871812,10.633324681693257,0.1215364256060414
5.874191999999999,10.674856940688812,0.1211612263106504
5.876595999999999,10.714479646736567,0.1208270322553572
5.878979999999999,10.754102352784324,0.1204928382000641
5.881364,10.786927360659911,0.1202151355115684
5.883768,10.808950468870496,0.1200264754300863
5.886151999999999,10.835769174506837,0.1198037317108537
5.888536,10.86458998088959,0.1195651470116654
5.890931999999999,10.89704290171284,0.1192828497985529
5.893319999999999,10.931917232163086,0.1189706921181185
5.8957,10.967582958546252,0.1186612956304305
5.898095999999999,11.009115217541808,0.1183083732941215
5.90048,11.051578642097144,0.1179515426519441
5.902863999999999,11.094973232212254,0.1175923717393771
5.90526,11.142232254193342,0.1172066778899958
5.907648,11.190562211361067,0.1168147406506983
5.910043999999999,11.23996310371543,0.1164145410495416
5.91244,11.2876414345771,0.1160237654282953
5.914828,11.333597203946068,0.1156437943831122
5.917207999999999,11.377830411822345,0.1152747816400786
5.919604,11.415405691153309,0.1149506992403654
5.921992,11.445391876379183,0.1146756494237226
5.924372,11.475937140112508,0.1143830200097849
5.926767999999999,11.507693108659325,0.114076875480843
5.929155999999999,11.541870486833142,0.1137430027334831
5.931536,11.58205416724621,0.1133626693481411
5.933931999999999,11.616231545420025,0.1130294826363176
5.93632,11.648546592474284,0.1127085620381001
5.938715999999999,11.675646733222209,0.1124337611252302
5.94112,11.70009314691766,0.1121714656541524
5.943508,11.718812797627582,0.1119459567643284
5.945888,11.736089426098529,0.1117201517124804
5.948291999999999,11.751783262703638,0.1114969156609328
5.950676,11.766825473002688,0.1112719663624853
5.953056,11.779633265129846,0.1110463290616418
5.955456,11.78857662539103,0.1108456486643909
5.957839999999999,11.79421463229368,0.1106524163900659
5.960224,11.794545185091383,0.1104800077672035
5.962619999999999,11.789148974903558,0.1103414527729346
5.965003999999999,11.77881739766312,0.1102360823844697
5.967388,11.771838395609452,0.1100987566586932
5.969783999999999,11.768211968742564,0.1099293345308728
5.972171999999999,11.765936016316036,0.1097424780538317
5.974551999999999,11.763148207210309,0.1095480934737208
5.976948,11.756216426984889,0.1093856692093412
5.979336,11.74663091970699,0.1092336643136169
5.981715999999999,11.737324951682815,0.1090728534466549
5.984119999999999,11.72722758772572,0.1089125215159941
5.986507999999999,11.71540766227593,0.1087573230829087
5.988892,11.704518902385916,0.108597037913822
5.991287999999999,11.694980616936263,0.1084188107126807
5.993675999999999,11.67915648999364,0.1082907233936795
5.996055999999999,11.664543067864516,0.1081490454067789
5.99846,11.641921242749724,0.1080627198879749
6.000843999999999,11.617157547261655,0.1079940077470136
6.003224,11.593464786960228,0.1079158744341111
6.005619999999999,11.574427854457689,0.1078132202282118
6.008008,11.56591328236643,0.1076496042077453
6.010387999999999,11.563684551768144,0.1074362907805755
6.012791999999999,11.568812597849467,0.1071652422201706
6.015179999999999,11.575942744677208,0.1068822842152415
6.01756,11.583864287437866,0.1065995808884956
6.019964,11.588573024638608,0.1063432363951156
6.022352,11.593141992212487,0.1060914738818408
6.024728,11.603205405346422,0.1057924258235258
6.027127999999999,11.610475321801022,0.1055059736306379
6.029511999999999,11.6210978134424,0.1051896142820316
6.031891999999999,11.633722405830191,0.1048606904189711
6.034295999999999,11.654495170830511,0.1044770484001247
6.036683999999999,11.676478640644332,0.1040820853977494
6.039064,11.69939327601793,0.1036833528473002
6.041459999999999,11.72780235695158,0.103237548732369
6.043847999999999,11.752998632325315,0.1028177943072805
6.046227999999999,11.786482849938436,0.1023374695164047
6.048624,11.823831499417537,0.1018368867464576
6.051012,11.861319918523492,0.1013335109392457
6.053391999999999,11.893081574643915,0.1008612960175204
6.055788,11.91324993516642,0.1004535646243011
6.058176,11.9269926845691,0.1000958102220981
6.060571999999999,11.934589362105662,0.0997810482406023
6.062968,11.93389809740284,0.0995239843597284
6.065351999999999,11.930553105647537,0.0992752507368773
6.067732,11.930420919452152,0.0990018297996807
6.070136,11.928286632510352,0.0987405077010527
6.072524,11.921728835195138,0.0985160926854133
6.0749,11.922108505678953,0.098250997346744
6.077307999999999,11.921137701722408,0.098002601417255
6.079692,11.917233631459668,0.0977702229676422
6.082072,11.905181388584404,0.0975900684106572
6.084475999999999,11.89005610977608,0.0974294898402009
6.086863999999999,11.874930830967754,0.0972686509499476
6.089243999999999,11.859526012905716,0.0971156724326404
6.09164,11.843329798910752,0.0969619982643008
6.094023999999999,11.824991714542511,0.0968237292141685
6.096404,11.802649428681445,0.0967083395041538
6.098808,11.778444811700815,0.0965999541905766
6.101191999999999,11.75810462658616,0.096472042867094
6.103575999999999,11.744562139643673,0.0963092522208244
6.105972,11.737585033447878,0.0960954767320826
6.108355999999999,11.730468157625223,0.0958851510003305
6.110735999999999,11.73070805848218,0.0956239309919337
6.11314,11.733601686391603,0.0953555533291025
6.115527999999999,11.734353443927755,0.0951029661480144
6.117908,11.73990079888966,0.0948284196219431
6.120312,11.747310484971122,0.09454626352868
6.122696,11.751088056612083,0.0943000944541694
6.125076,11.755936563439686,0.0940468299890835
6.127479999999999,11.762507631759986,0.0937901666310476
6.129868,11.771872196759618,0.0935222444869489
6.132247999999999,11.780677683251811,0.0932695350615317
6.134644,11.78720152974387,0.0930359330009142
6.137032,11.792374901795569,0.0928183862698843
6.139412,11.803135267205931,0.0925797137108468
6.141807999999999,11.81361609336258,0.0923494184329341
6.144195999999999,11.82838066026578,0.0920896099780397
6.146576,11.846590350154374,0.0918242611444379
6.148971999999999,11.864520500789247,0.0915679298632028
6.151359999999999,11.881100176983765,0.091327628006738
6.153739999999999,11.899914271350172,0.0910953987955802
6.156148,11.921661632022774,0.0908493781580968
6.158531999999999,11.93977687825488,0.0906377143559082
6.160915999999999,11.956821189300353,0.0904339026406295
6.163316,11.974377357025018,0.0902385509826668
6.165704,11.989931424003268,0.0900549606365519
6.168083999999999,12.007487591727934,0.0898617535777066
6.17048,12.024531902773402,0.0896601751755802
6.172867999999999,12.040225739378512,0.0894740076624642
6.175248,12.0568507415434,0.089285126600284
6.177643999999999,12.07254457814851,0.0890995338825407
6.180031999999999,12.09266192512703,0.0888821734902094
6.182428,12.11478137285197,0.0886544347618304
6.184823999999999,12.138111525390409,0.0884164461245045
6.187211999999999,12.157577246062871,0.088195803947709
6.189591999999999,12.176763427481616,0.0879830291179714
6.191987999999999,12.19110678964637,0.0878137468631903
6.194376,12.205450151811116,0.0876453880797225
6.196755999999999,12.215789312483032,0.087496774565697
6.199159999999999,12.226128473154947,0.0873482605014835
6.201544,12.22645713009478,0.0872495305115322
6.203923999999999,12.225575082221113,0.0871616070991409
6.20632,12.226695135093864,0.0870637960999432
6.208708,12.229677519086168,0.0869601671286468
6.211091999999999,12.234010377518832,0.08684227742493
6.213488,12.234990660764725,0.0867485582955035
6.215876,12.233829073637336,0.0866685854988503
6.218256,12.233319112816003,0.0865931960881681
6.220651999999999,12.233880087181314,0.0865111409200471
6.223039999999999,12.23551199673326,0.0864226324786061
6.225436,12.23993740296454,0.0863255301453707
6.227831999999999,12.243152104382323,0.086239209331391
6.230219999999999,12.249300072106305,0.08614092139562
6.232603999999999,12.255168500576566,0.086050388151807
6.234999999999999,12.264621821659077,0.0859525858207879
6.237387999999999,12.275285847555091,0.085844724719754
6.239768,12.29223571494407,0.0857018355285081
6.242168,12.30532115046708,0.085573973271804
6.244555999999999,12.323341953042702,0.0854247846834301
6.246936,12.342573460431824,0.0852658614560517
6.249331999999999,12.369301514127416,0.0850613314355063
6.251719999999999,12.39682096375592,0.0848580619131789
6.254099999999999,12.425551118197925,0.0846457211596617
6.256495999999999,12.451487775960596,0.0844422020272409
6.258884,12.479426534469685,0.0842311670598112
6.261263999999999,12.51365113447174,0.083986552457247
6.263663999999999,12.548946669660438,0.0837362567742718
6.266048,12.588525945595691,0.0834627045401326
6.268443999999999,12.626242890411383,0.0831949617993048
6.27084,12.659955633734247,0.0829454496873319
6.273223999999999,12.693947916310828,0.0826904565710533
6.275604,12.727148802954492,0.0824352832782174
6.277999999999999,12.756485257732182,0.0821949331982709
6.280387999999999,12.78451845989776,0.0819458737281526
6.282767999999999,12.808315143145022,0.0816992614937313
6.285171999999999,12.83546440157906,0.0814329151936476
6.287559999999999,12.857026666654429,0.0811822230937094
6.28994,12.882872672476353,0.0809082240198784
6.292335999999999,12.909137987178855,0.0806253104060332
6.294723999999999,12.936474237067998,0.0803380053038582
6.297103999999999,12.962599782143643,0.0800616367394526
6.299507999999999,12.98863277942067,0.079767406175815
6.301895999999999,13.01308298483186,0.0794720505906507
6.304276,13.039814830243188,0.0791624388938473
6.306671999999999,13.060819912668986,0.0788703819180403
6.309059999999999,13.075446605803196,0.0785912426384633
6.311439999999999,13.08970121188507,0.0783012102037083
6.313839999999999,13.097949515727688,0.0780353098395802
6.316224,13.10647735882403,0.0777624081130189
6.318619999999999,13.11835777710715,0.0774694670230764
6.321016,13.127444698710931,0.0771835352046645
6.3234,13.138673490687994,0.0768874851969278
6.32578,13.152183922665191,0.076577496795965
6.328183999999999,13.16727714650822,0.0762708296519588
6.330572,13.181439204791475,0.0759655548103771
6.332951999999999,13.187592860089064,0.075690497589103
6.335355999999999,13.196028155386792,0.0754012313775822
6.33774,13.19938831400504,0.0751321755794558
6.340123999999999,13.201025911130598,0.0748643778190421
6.342516,13.19693674527062,0.0746113101521062
6.344904,13.19112501791795,0.0743587518700155
6.347284,13.186896082431115,0.0741096902459997
6.349687999999999,13.18252737731742,0.0738641447786046
6.352075999999999,13.17722750664395,0.0736207268419097
6.354455999999999,13.174721132649813,0.0733714747674565
6.356852,13.173797550521511,0.0731248508558818
6.359235999999999,13.17473629951277,0.0728753386119703
6.361619999999999,13.1802383285043,0.0725990514907417
6.364016,13.186671523055608,0.0723211901356264
6.366403999999999,13.190031681673862,0.0720552842048352
6.368784,13.193252070665254,0.0717925990742914
6.371179999999999,13.194470358910229,0.0715372670004085
6.373564,13.193546776781924,0.0712921110016683
6.375959999999999,13.193833899467124,0.0710394093221086
6.378356,13.20091872032449,0.0707694490450298
6.380744,13.214149613047969,0.0704768026368699
6.383123999999999,13.22789236245064,0.0701932985223947
6.38552,13.24792095334629,0.0698847366492816
6.387903999999999,13.26352603386852,0.0695983625544161
6.390283999999999,13.288070682936196,0.069286298016485
6.392691999999999,13.313546497563651,0.0689732568139726
6.395076,13.33622881551177,0.0686655903964214
6.397456,13.355838097526837,0.0683686343599013
6.399859999999999,13.373305509168622,0.0680812763356238
6.402248,13.391052460064133,0.0677879513467957
6.404627999999999,13.409870346146276,0.0674902554650306
6.407031999999999,13.422262621108592,0.0672205058060871
6.409419999999999,13.429951846443776,0.0669795865859221
6.4118,13.436570136592314,0.0667434067060794
6.414204,13.447332397860553,0.0664925345939648
6.416587999999999,13.460376299128924,0.0662297756028502
6.418968,13.470486934091104,0.0659739663784719
6.421367999999999,13.48287920905342,0.06570633802451
6.423751999999999,13.49219844808268,0.0654495926865914
6.426136,13.497233946365387,0.065211767500131
6.428535999999999,13.49584383352826,0.0650004250168144
6.430923999999999,13.491799993638663,0.0647894183512749
6.433304,13.483332643375649,0.0645995363384178
6.435699999999999,13.479800660165246,0.0643970359496821
6.438087999999999,13.469191439528956,0.0642158206576238
6.440467999999999,13.457511283706024,0.0640387634484986
6.442864,13.445691358256235,0.0638646162446434
6.445252,13.440157274299414,0.0636678967962837
6.447631999999999,13.437556456648789,0.063464692825393
6.450035999999999,13.434536330117584,0.0632711582639674
6.45242,13.429374333213106,0.0630859030533252
6.454799999999999,13.429567012241815,0.0628791655727008
6.457203999999999,13.432041331270662,0.0626606122810405
6.459591999999999,13.436657520672789,0.0624338890557098
6.461971999999999,13.439923235634554,0.0622184681752182
6.464376,13.441698706529102,0.062017076828132
6.466764,13.446267674102986,0.0618125472005737
