Time,Force,Position
7.930639999999999,6.294696416033187,0.1682142908531303
7.933027999999999,6.295767351219826,0.1681899167778371
7.935408,6.304287610884689,0.1680378181226539
7.937812,6.314250892788531,0.1678764227967005
7.9402,6.330173255103381,0.1676384588962192
7.94258,6.356198668948929,0.1672311558561359
7.944976,6.393770156564157,0.166631710233237
7.947363999999999,6.440094221269727,0.165903267922929
7.949748,6.493727840826663,0.1650589587096783
7.952144,6.547593777809079,0.164238303166369
7.954531999999999,6.601087627739155,0.1634053735757841
7.956912,6.649413793191141,0.1626353616746979
7.959312,6.69652925382963,0.1619015662884711
7.961699999999999,6.740851217788783,0.1612291181612604
7.96408,6.777584087642849,0.1607103545993236
7.966475999999999,6.822744669363163,0.1600085604551717
7.968863999999999,6.876844819628924,0.1591321051738361
7.97126,6.932155674708183,0.1582485994392315
7.973655999999999,6.993612601653554,0.1572745163182906
7.97604,7.0499943919194505,0.1564185786989654
7.978419999999999,7.092361476960432,0.1558253949529315
7.98082,7.1355199579343305,0.1552367680478235
7.983208,7.1828224100279225,0.1545871481983151
7.985587999999999,7.238273034734042,0.1537967596003464
7.987984,7.292560176454906,0.1530135023397834
7.990372,7.344053821496437,0.152283681025807
7.992752,7.395966775418546,0.1515380386267294
7.995156000000001,7.441361570422206,0.1508878604478037
7.997544,7.48107682426858,0.1502920860778127
7.999923999999999,7.522981170316474,0.1496206946651702
8.002320000000001,7.563954350804591,0.1489645574538749
8.004708,7.610095215770797,0.1482479032436859
8.007088,7.661031678162753,0.1474685768677414
8.009484,7.714110010927989,0.1466593395212438
8.011872,7.764953925521328,0.1458567291461535
8.014268000000001,7.805787336382583,0.1452153078605419
8.016663999999999,7.841545610564366,0.1446641506876204
8.019051999999999,7.873159913626456,0.1441907119533022
8.021432,7.896813035531122,0.1438138398131473
8.023827999999998,7.919442444077392,0.1434198992695594
8.026215999999998,7.951151190795966,0.1428830810918434
8.028596,7.979135275275427,0.1423961290388694
8.030999999999999,7.998459330463165,0.1420313770204439
8.033387999999999,8.015037110799812,0.1416717774206932
8.035768000000001,8.024305336285089,0.1413936234400853
8.038167999999999,8.028498425090895,0.1411898613197647
8.040555999999999,8.033343140202758,0.1409901913415977
8.042936000000001,8.04633602792715,0.1406729189328186
8.045331999999998,8.062401951584597,0.1403130998595326
8.047719999999998,8.07446367374921,0.1400095173027487
8.0501,8.088899583712578,0.1396955965008456
8.052499999999998,8.107619234422499,0.1393172469259018
8.054887999999998,8.12373237990819,0.1389332826407215
8.057272000000001,8.132443422743897,0.1385955714147931
8.059667999999999,8.141806091885663,0.1382592967773726
8.062055999999998,8.156615984759238,0.137865059697591
8.064436,8.169423776886395,0.1374962737974869
8.066831999999998,8.183209956401575,0.1370841337743257
8.069220000000001,8.190338207371447,0.1367486931356823
8.0716,8.192903178341043,0.1364923022916965
8.073999999999998,8.190625330056644,0.1363303479776144
8.076388000000001,8.187416316212467,0.1361786292120588
8.078768,8.189841517555202,0.1359295576032169
8.081167999999998,8.186120647031826,0.1357687314876751
8.083552000000001,8.187287921732821,0.1355787470119929
8.085936,8.194833585725403,0.1353229744518017
8.088335999999998,8.200144831546092,0.135072903791682
8.109848,8.070879130373934,0.1350428482060466
8.112236,8.062827297275762,0.1349823748664737
8.114615999999998,8.049979866751839,0.1349767851124962
8.11702,8.045373156639059,0.1348896580691406
8.119408,8.04649320951181,0.1347366927665353
8.121783999999998,8.047660484212805,0.1345467457546079
8.124192,8.04966637667496,0.1343170383652515
8.126576,8.04152199577817,0.1342264339276386
8.128955999999999,8.034680867493497,0.1341420558910843
8.13136,8.025977408089268,0.1340778149499555
8.133748,8.015319069766862,0.134003618588136
8.136128,8.004381192190738,0.13394227253935
8.138524,7.996329359092567,0.1338807325468124
8.140908,8.000662217525234,0.1336753540786101
8.143287999999998,8.002201579278564,0.1335003820838411
8.145692,8.00229791879292,0.133325238346261
8.14808,8.002254488680416,0.1331568630173361
8.150459999999999,8.008449678232639,0.1329320069080645
8.152864000000001,8.009989039985971,0.1327571952440591
8.155252,8.012227249873604,0.1325500970985691
8.157632,8.011160106402704,0.1323631260618873
8.160028,8.009673654051223,0.1321962150846721
8.162416,8.011772094311995,0.1319969800934966
8.164795999999999,8.008795397893294,0.1318656377089537
8.167192,8.008240111101593,0.1316899812068691
8.169576,8.015134148788118,0.1314398647339985
8.171959999999999,8.024402374273395,0.1311821142330861
8.17436,8.042889707557839,0.1308010893213969
8.176748,8.063938220096142,0.1303699572250263
8.179127999999999,8.088339307821219,0.1298870830053707
8.181524,8.114043648158415,0.1294146373031132
8.183912,8.139747988495607,0.1289427530055642
8.186291999999998,8.171086544019714,0.1283843483973222
8.188687999999999,8.194044609505816,0.1279115859911628
8.191075999999999,8.219004775738338,0.1274154275305079
8.193456000000001,8.244337029023193,0.1269336035458849
8.195851999999999,8.266596246374993,0.1264895924374341
8.198239999999998,8.284339405554762,0.1260855681799596
8.200636,8.302873960667451,0.1256771185712122
8.203032,8.318055940593364,0.1253211987691756
8.205416,8.332539072384975,0.1249964212021785
8.207795999999998,8.346230808243668,0.1246752955995762
8.2102,8.356989277796165,0.1243873156134159
8.212588,8.370169156975658,0.1240553716512584
8.214967999999999,8.379856691341518,0.1237839331357878
8.217368,8.383677693094986,0.1235796175541342
8.219752,8.383774032609342,0.1234103836641274
8.222131999999998,8.381309192869839,0.1232902959377568
8.224536,8.377633648316838,0.1231912281047029
8.226924,8.36981413264414,0.1231445480869368
8.229303999999999,8.359340889918972,0.1231168144790345
8.231704,8.348076251260883,0.123091191731337
8.234088,8.336671842975933,0.123070292981554
8.236472,8.329503953609294,0.1230265254456978
8.238868,8.322196294615795,0.1229886484245602
8.241256,8.320243311555489,0.1228800798911898
8.243635999999999,8.325507335547933,0.1226855270433251
8.24604,8.334496021779488,0.1224593541473746
8.248428,8.349491010250295,0.1221695597504813
8.250808,8.369421365773714,0.1218292851312765
8.253208,8.394706397230328,0.1214225664425868
8.255592,8.419851659060077,0.1210225060116214
8.257971999999999,8.447650647942302,0.1206045906000166
8.260368,8.477311967944088,0.1201742067344073
8.262756,8.505250726453179,0.1197521844014117
8.265135999999998,8.535191585708679,0.1193095835033598
8.267532,8.568577567949578,0.1188485410401589
8.269919999999999,8.602243089444194,0.1183778915173781
8.272316,8.635489302058227,0.1179252554319386
8.274712000000001,8.67367088172488,0.1174247415839029
8.277096,8.71157292213781,0.1169349583343554
8.27948,8.75413079034963,0.1164112713585436
8.281876,8.784396514829227,0.116022469564677
8.28426,8.81387084337591,0.1156376662647215
8.286643999999999,8.842553775989673,0.1152559686600311
8.28904,8.868163672670383,0.1149128019972412
8.291424,8.889350058977676,0.1146309802312277
8.29382,8.908394574911693,0.1143764020825831
8.296223999999999,8.9207811623004,0.1141795474374598
8.298611999999999,8.929443087449995,0.1140120199469451
8.300992,8.9310277751737,0.1139169060314526
8.303387999999998,8.93568549883046,0.1137900960071159
8.305775999999998,8.944487193606914,0.1136202768998372
8.308156,8.949936313196593,0.1134936619770532
8.310552000000001,8.960181030212024,0.1133279070221813
8.312940000000001,8.970285977600595,0.113168475835783
8.31532,8.980810233869743,0.1129936825843295
8.317723999999998,8.991334490138895,0.1128197673627817
8.320108000000001,9.004140386408183,0.1126168371163331
8.322488,9.014664642677335,0.1124448012858546
8.324884,9.02826193487954,0.1122428813180764
8.327272,9.037855025588913,0.1120788477041121
8.329652,9.060391886336564,0.1117972722687955
8.332059999999998,9.081857811897576,0.1115282076425277
8.334447999999998,9.103835594137788,0.1112695991521574
8.336828,9.123391966751,0.1110455644047542
8.339223999999998,9.141877404177578,0.1108328950444387
8.341612000000001,9.160642380857874,0.110609642086659
8.343992,9.183783646083342,0.1103658533721216
8.346391999999998,9.208367933547784,0.1101257058687349
8.348776,9.23881875362462,0.1098367047302227
8.351156,9.267127703328176,0.1095740280693741
8.353552,9.28929058116562,0.1093725317138367
8.35594,9.312664163816567,0.1091536909049968
8.358319999999999,9.334966811280871,0.1089487391004866
8.360716,9.357269458745176,0.1087448085152452
8.363104,9.377430235836204,0.1085649737371051
8.3655,9.394378207367318,0.1084191412294693
8.367895999999998,9.413188510017989,0.1082633081954302
8.370280000000001,9.429345085616182,0.1081200719340052
8.37266,9.44242862528132,0.1080057247298987
8.375056,9.455000308267264,0.1078816688200804
8.377444,9.464126868267815,0.1077723754758495
8.379828,9.474883441962444,0.1076318082705277
8.382224,9.483405597485175,0.1074878774343009
8.384608,9.49383730595571,0.1073017839349791
8.386992,9.503617388120189,0.1071103675610119
8.389388,9.512606074351744,0.1069197311321325
8.391776,9.517637780918712,0.1067326704531063
8.394172000000001,9.521645774127288,0.1065262105763919
8.396567999999998,9.522208644350467,0.1063329861859449
8.398955999999998,9.519326391588251,0.106151946582464
8.401336,9.514349490281004,0.1059613430806868
8.403739999999999,9.507929566734784,0.105766271702132
8.406127999999999,9.498204289830026,0.1055783690328502
8.408508000000001,9.485313429193598,0.1053919937324247
8.410908,9.470979546318192,0.1052009263920604
8.413295999999999,9.45641334601731,0.1049887579306567
8.415676000000001,9.435608526051702,0.1048056413213512
8.418076,9.414012310153172,0.1046224402440611
8.420459999999999,9.394977273508504,0.1044012647013309
8.422844000000001,9.377292711304191,0.1041580233229344
8.425239999999999,9.356814652420546,0.1039309184532876
8.427623999999998,9.3351258887234,0.1037192079435317
8.430008,9.313716664279974,0.1034960307347177
8.432403999999998,9.290305339090134,0.1032880858924055
8.434791999999998,9.272388459460348,0.1030210969070139
8.437172,9.25940694688317,0.1027170229512478
8.439568000000001,9.249079161358468,0.1024016945847102
8.441956000000001,9.240473937326463,0.1020808914893376
8.444336,9.232660109227377,0.1017597232632133
8.446732,9.227639777807624,0.101422071968303
8.44912,9.226344108626986,0.1010624685604572
8.451515999999998,9.232637533551436,0.1006584718159165
8.453911999999999,9.24479749108827,0.1002157096060417
8.456299999999999,9.26026280198364,0.0997679405786628
8.458683999999998,9.276379739185067,0.0993246508905836
8.461079999999999,9.29608156899875,0.0988663713591493
8.463463999999998,9.316574794745351,0.0984065972423371
8.465848000000001,9.342934553104342,0.0979076095225442
8.468243999999999,9.366081505903416,0.0974397904080438
8.470631999999998,9.384385639448498,0.0970313708579896
8.473016000000001,9.403061860045916,0.0966376319710761
8.47542,9.419735979896917,0.0962588216884048
8.477808,9.440506849039366,0.0958771765483425
8.480187999999998,9.46458307154035,0.095492089831377
8.482584,9.48409601404106,0.0951594785141807
8.484971999999999,9.49532101430238,0.0948965198156708
8.487352000000001,9.503984835309844,0.0946688439883013
8.489752,9.51036701631717,0.0944663093444353
8.49214,9.515538492510998,0.0942786886829456
8.494520000000001,9.522432530197523,0.0940874246024108
8.49692,9.531049129376743,0.0938928103378574
8.499303999999999,9.52979499445074,0.093765026173454
8.501688000000001,9.521044313218267,0.0937042389188755
8.504083999999999,9.513504336799294,0.0936288526211403
8.506471999999999,9.508757857059654,0.093540018832188
8.508852000000001,9.503871607693156,0.0934561978325526
8.511247999999998,9.502710020565768,0.0933547770369725
8.513635999999998,9.500757037505464,0.0932532970174816
8.516016,9.50373942149777,0.0931209261451489
8.518415999999998,9.514358121423406,0.0929198389543494
8.520803999999998,9.52846916616268,0.092682440479054
8.523184,9.54537370758129,0.0924325809298859
8.525580000000001,9.560043830828004,0.0921774347520768
8.527968000000001,9.573410701462604,0.0919124482922808
8.530352,9.58891944247048,0.0916300921847613
8.532747999999998,9.610574255344464,0.0913034852543219
8.535136000000001,9.634930017099167,0.0909404137077147
8.537531999999999,9.66142764922715,0.0905602941515581
8.539928,9.690206921355266,0.0901586070695016
8.542316,9.71633246643091,0.0897656016752945
8.544699999999999,9.73952474520036,0.0893906625676018
8.547096,9.769654491768836,0.0889741542829669
8.549484,9.801134712777674,0.0885368171215442
8.551863999999998,9.828610732293678,0.0881261952862844
8.554264,9.851151384757069,0.0877447643261629
8.556652,9.871689936474043,0.0873764710180988
8.559031999999998,9.888224286698186,0.0870339627611156
8.561432,9.900614665802632,0.0867221368470311
8.56382,9.907138512294688,0.0864434096886214
8.566199999999998,9.909890474719386,0.0862104762668682
8.568596,9.908358696397531,0.0860117375515052
8.570984,9.90603552214276,0.0858122597687942
8.573367999999999,9.900080233447488,0.0856518573202091
8.575768,9.89342609661792,0.0855150911212516
8.578156,9.88556125497485,0.0853914763054992
8.580535999999999,9.874623377398724,0.0852881660611431
8.582932,9.863126421315162,0.0852035245838034
8.58532,9.851629465231596,0.0851187041497386
8.587703999999999,9.836640164334396,0.0850676979580358
8.5901,9.82430459048967,0.0850105370806832
8.592492,9.814762513324276,0.0849427674708308
8.594871999999999,9.801867860972113,0.0849037969917111
8.597268,9.793768806045696,0.0848429017130246
8.59966,9.78632137742534,0.0847877200609844
8.602044,9.781946984738036,0.0847128396165047
8.604436,9.78185633279729,0.0846059615172405
8.606819999999999,9.783488242349238,0.0844967575625645
8.609200000000001,9.786702943767022,0.0843898895712517
8.611595999999999,9.794573472983698,0.0842661263837422
8.613979999999998,9.803794476640734,0.0841252688753635
8.616375999999999,9.816740142536885,0.0839710889458825
8.618780000000001,9.830197665112228,0.083827892104421
8.621164,9.850872194740324,0.0836387492416525
8.623543999999999,9.869684393248862,0.0834557872644388
8.625948000000001,9.887705195824484,0.083271627689728
8.628332,9.905865768026963,0.0830826928832853
8.630711999999999,9.923374713923389,0.0828884883320065
8.633116000000001,9.939812724633171,0.0827029572035996
8.635504000000001,9.960674245716373,0.0824816363483653
8.63788,9.974877838254264,0.0822873226823582
8.640276,9.98735886929946,0.0820957727092015
8.642664,10.000259209225236,0.0818906695307463
8.645039999999998,10.010505822098532,0.0816917735764235
8.647444,10.02303407497197,0.0814730917186079
8.649832,10.038775133405323,0.0812328117130432
8.652211999999999,10.050372220718982,0.0810196103235023
8.654608,10.0645304872865,0.0807786588072801
8.656991999999999,10.080178997921234,0.0805173284603573
8.659388,10.093173781503497,0.0802612096960167
8.66178,10.103934146913865,0.0799963872681145
8.664168,10.114462194898753,0.0797135084576668
8.666552,10.124897695085023,0.079407530708655
8.668952,10.130537597845546,0.079121546273782
8.671336,10.141671946166117,0.078795811752127
8.673715999999999,10.154296538553911,0.0784500682094946
8.676123999999998,10.17013393650162,0.0780840302333652
8.678508,10.184109003329771,0.0777233418367331
8.680888,10.197292674225006,0.0773611058592588
8.683291999999998,10.206611913254264,0.0770145914303121
8.685680000000001,10.224870720828967,0.0766270491274486
8.68806,10.242198362843896,0.076242503744729
8.690459999999998,10.25766367373927,0.0758631110408793
8.692848000000001,10.270847344634502,0.075501884241649
8.695228,10.284170785156595,0.0751377431358854
8.697624000000001,10.293350254558998,0.0747981370121975
8.700012000000001,10.30560275989445,0.0744432811583478
8.702392,10.313851063737076,0.0741076223800024
8.704795999999998,10.321959597952835,0.0737774947978761
8.707180000000001,10.332861628847931,0.0734410770396181
8.70956,10.3469292434747,0.0731132961264925
8.711963999999998,10.356573347728055,0.0728163306014858
8.714351999999998,10.364866977541052,0.0725349638536233
8.716732,10.37688526959316,0.0722456224025877
8.719128000000001,10.385690756085356,0.0719772763279295
8.721516000000001,10.39673066074944,0.0717208017783281
8.723896,10.403626594293836,0.0714860312378956
8.726299999999998,10.412245089330924,0.0712511416414715
8.728687999999998,10.42286568511443,0.0710083437685771
8.731064,10.437210943137051,0.0707577946212072
8.733467999999998,10.44447896373378,0.0705390299095014
8.735855999999998,10.455611416196486,0.0703089518925548
8.738236,10.466604099032333,0.0700825501222467
8.740639999999999,10.480018191495173,0.0698354049898701
8.743023999999998,10.491290413584736,0.0696010572387932
8.745404,10.50456473642072,0.0693590580865519
8.747808,10.515976728137144,0.0691219815850317
8.750191999999998,10.528180115786489,0.0688869060607073
8.752572,10.536379301942995,0.068667507098759
8.754967999999998,10.540714056233533,0.0684599590999406
8.757356000000001,10.544257414591147,0.0682508590192335
8.759736,10.549011477762264,0.068030804191051
8.762132000000001,10.55348600167966,0.0678188932885613
8.764520000000001,10.551302597051746,0.0676236800497499
8.7669,10.54725686130428,0.0674317600749521
8.769296,10.540697168131194,0.0672372618742993
8.77168,10.53520841014475,0.0670363896422649
8.774076,10.528928256225388,0.0668329117249189
8.776471999999998,10.521437397492525,0.0666396025254599
8.778859999999998,10.515157243573162,0.0664371762091884
8.78124,10.515023161519908,0.066208632610436
8.783643999999999,10.509022546854268,0.0659980088350226
8.786031999999999,10.509168004054736,0.0657620897867236
8.788412000000001,10.51089625312104,0.0655319675637952
8.790807999999998,10.51476637256062,0.0652909317320911
8.793195999999998,10.517845096067282,0.0650478399619398
8.795576,10.517571244387169,0.064824919776064
8.797979999999999,10.52051019826697,0.0645859330903906
8.800367999999999,10.527593123266469,0.0643288870056746
8.802748000000001,10.540822120132075,0.0640483103711267
8.805143999999999,10.549255519571933,0.0637782965035875
8.807531999999998,10.559271710877626,0.0635134434981252
8.809912,10.573431873303011,0.0632319583787812
8.812307999999998,10.593458568340786,0.0629344512276778
8.814696000000001,10.613205724124844,0.0626443721630102
8.817076,10.630531470281902,0.0623730411266601
8.819479999999999,10.64864861237188,0.0621047249971403
8.821867999999998,10.667417380767914,0.0618434018818776
8.824248,10.68539475323103,0.0615795677520394
8.826643999999998,10.696155118641396,0.0613449712220341
8.829028000000001,10.701840347372292,0.0611292840526516
8.831412,10.71059861203624,0.0609016291295291
8.833808000000001,10.71307103520722,0.0607019814803981
8.836196000000001,10.709676925765809,0.0605171055944021
8.838576,10.70493234188404,0.0603456461589585
8.840972,10.700047988375408,0.0601782343975692
8.84336,10.69944737561333,0.0599900952077068
8.845755999999998,10.69442325247784,0.0598264451150152
8.848151999999999,10.688188424528851,0.0596720083948356
8.850535999999998,10.673525884713614,0.0595538164436922
8.852916,10.665521273443684,0.0594242159184655
8.855315999999998,10.66194017254717,0.0592711280679922
8.857703999999998,10.653563474224905,0.0591269784435302
8.860084,10.64304490552936,0.0589927609915949
8.862480000000001,10.63746170388643,0.0588460869355292
8.864864,10.632949437430137,0.0586941706059325
8.867248,10.63258114209354,0.0585274335987354
8.869651999999999,10.632632155637522,0.0583490198469327
8.872036000000001,10.63333479548756,0.0581775355001353
8.874416,10.638181406457292,0.057990291404958
8.876812000000001,10.64475057891972,0.0578050816234785
8.8792,10.651691838434488,0.057635128928888
8.881584,10.657562162762616,0.0574692448879054
8.883980000000001,10.671161350822691,0.0572890407512031
8.886364,10.684108912576711,0.0571018859326351
8.888763999999998,10.69691670470387,0.0569190327668332
8.89116,10.711447058323726,0.0567397326423362
8.893543999999999,10.728119282316856,0.0565508790631772
