Time,Force,Position
7.859948,6.655699404725704,0.1616450304971329
7.862336,6.653092899501469,0.1616396893400302
7.864719999999999,6.660170136927357,0.1615023570363917
7.867112,6.6720882977493705,0.1613616534723431
7.869499999999999,6.690058086781011,0.1611901643160397
7.87188,6.712496712156437,0.1609921125240724
7.874275999999999,6.7381009212635385,0.1607612068070726
7.876663999999999,6.774227490781922,0.1603464748569459
7.87906,6.820783872912969,0.1597249115429575
7.881455999999999,6.868550959857516,0.159077792577603
7.883843999999999,6.9122212975106105,0.1584751524316257
7.886223999999999,6.959895836656541,0.1577988165359654
7.888628,7.00878108061597,0.1570960626056197
7.891016,7.0532900360302255,0.1564517981042902
7.893396,7.097426904392146,0.1558036043562859
7.895791999999999,7.138211197567289,0.1552316982869293
7.898179999999999,7.179227808167911,0.154676809677882
7.90056,7.227274434366179,0.1540308033623743
7.902964,7.279465031684141,0.1533193228707879
7.905352,7.329793297882547,0.1526523536954636
7.907732,7.375325966655198,0.1520700367412806
7.910127999999999,7.422628418748791,0.1514329870436119
7.912515999999999,7.462202007110436,0.1509282449020677
7.914896,7.496096054314795,0.1504765004436924
7.9173,7.52137729405567,0.1501228581255857
7.919683999999999,7.549918561184702,0.1496721976417521
7.922068,7.579810302754095,0.1491828355572513
7.924463999999999,7.605697842830653,0.1487643439702676
7.926848000000001,7.626370476600882,0.1484475609578201
7.929232,7.647322649624829,0.1481203072701493
7.931627999999999,7.670556462648914,0.1477480672538128
7.934012,7.689506534926444,0.1474531247372656
7.936395999999999,7.709899629442949,0.1471587483290952
7.9388,7.7341571558254305,0.1468099521609632
7.941183999999999,7.754038393662738,0.1465094427072776
7.943568,7.774338940380629,0.1461861439426003
7.945963999999999,7.795338335232819,0.1458240319980423
7.948351999999999,7.812101211166698,0.1455029484245005
7.950736,7.823696402622487,0.1452364326209191
7.953131999999999,7.828541117734351,0.1450284274456824
7.955519999999999,7.832734206540157,0.1448175888502
7.957899999999999,7.836787525719103,0.1446153581702212
7.960296,7.842982715271326,0.1443764586658401
7.962684,7.851459544823687,0.1440949046617337
7.965063999999999,7.858213812883351,0.1438273406449536
7.967464,7.859473635382963,0.1436594819126052
7.969848,7.862967876054468,0.1434851266607935
7.972231999999999,7.866881425606554,0.1432902192911219
7.974628,7.869631492173384,0.1430848048858309
7.977011999999999,7.866934335008405,0.1429403004678504
7.979408,7.85967389784315,0.1428824182835253
7.981803999999999,7.8593509284769265,0.1427246224432473
7.984191999999999,7.858004245752306,0.1425490888132687
7.986576,7.856984324109648,0.142324497590343
7.988971999999999,7.854753697653493,0.1421235277097468
7.991359999999999,7.853546784555732,0.1419411164935274
7.99374,7.859369887055618,0.1416925710306079
7.996135999999999,7.868545564742279,0.141385825440247
7.998523999999999,7.876278220189965,0.1410812926860322
8.000903999999998,7.887828085675381,0.140761687392437
8.0033,7.901193060452109,0.1404566559697469
8.005688,7.914138726348257,0.1401741684022255
8.008084,7.927783240378707,0.1398606745792957
8.010487999999999,7.936911696237125,0.1395939317313658
8.012871999999998,7.950556210267575,0.1392802840293118
8.015252,7.968065156163998,0.1389164492097403
8.017655999999999,7.988414820568,0.1384890947429602
8.020039999999998,8.007461232359885,0.1380569773062854
8.022424,8.023434608218714,0.1376700521501622
8.024828,8.042433798182358,0.1372725971416559
8.027216,8.067671607810729,0.1368136363083465
8.029592000000001,8.085180553707152,0.1364536299304671
8.032,8.09961646367052,0.1361396412104469
8.034384,8.109209554379893,0.1359214454708601
8.036763999999998,8.121548919940357,0.1357074842601568
8.039164,8.133236659194765,0.1354899069377395
8.075,8.036788382466717,0.1354367410281
8.077388,8.033857012018391,0.1353722955716839
8.079768000000001,8.033719138249399,0.1352786247225968
8.082172,8.03837686190616,0.1351300336001779
8.084556,8.042430181085107,0.1349428179120086
8.086936000000001,8.050767241010607,0.1346921346148064
8.089331999999999,8.064411755041057,0.134397121886905
8.091719999999999,8.089230255788845,0.1339907770418215
8.094100000000001,8.120334598029606,0.1334957254897313
8.096504,8.149064752471613,0.133014182924561
8.098892,8.178306763592818,0.1325423380103417
8.101271999999998,8.209550875460438,0.1320419883920281
8.103667999999999,8.243169175126813,0.1315317378648567
8.106051999999998,8.272271416621155,0.1310660476251516
8.108436000000001,8.30100157106316,0.1305840518166913
8.110831999999998,8.324796358452554,0.1301615026449697
8.113219999999998,8.346589045095532,0.1297647947453934
8.115604000000001,8.373596638044843,0.1292994633004115
8.117999999999999,8.3982300431954,0.1288408650096414
8.120387999999998,8.42607625390587,0.1283393580768377
8.122768,8.451780594243065,0.1278721801537837
8.125163999999998,8.473992589766622,0.1274656437123118
8.127552000000001,8.494621793424344,0.1270669126757397
8.129936,8.511526334842952,0.1267056104666557
8.132331999999998,8.530805064060315,0.1263382354125543
8.134720000000002,8.545008656598204,0.1260348488214093
8.1371,8.553625255777426,0.1257842561990748
8.139496000000001,8.54999693305267,0.1256537426722922
8.141884000000001,8.54157301290216,0.1255723966855174
8.144268,8.530587913497794,0.1255387297154014
8.146664000000001,8.522955389280202,0.1254546286479965
8.149052000000001,8.519327066555444,0.1253244670429805
8.151432,8.516397591964987,0.1251642883118107
8.153832000000001,8.515470218120948,0.1249814043030834
8.156216,8.517196571329382,0.1247799632074367
8.1586,8.526139931590567,0.124491312245581
8.160996,8.536433766292111,0.124176593506499
8.163384,8.544725500247235,0.1238874050064338
8.165779999999998,8.557673062001253,0.1235579911122432
8.168175999999999,8.568478753381996,0.1232589795963804
8.170563999999999,8.577282344016318,0.1229812898506717
8.172944000000001,8.589298740210559,0.122662894981138
8.175352,8.596239999725325,0.1224002478118167
8.177736,8.604531733680451,0.1221119935159272
8.180119999999999,8.613894402822215,0.1218124726581367
8.182516,8.627121503829954,0.1214762003689523
8.184904,8.645283971890304,0.1210892956420659
8.187283999999998,8.67103553405574,0.1206333540895209
8.189688,8.699720362527374,0.1201486184353892
8.192076,8.730686830999142,0.1196292090325873
8.19446,8.757509328351219,0.1191616362007097
8.196856,8.78125878977024,0.1187320174517344
8.199244,8.80379754637576,0.1183236859398866
8.201623999999999,8.824054662981144,0.117948622878361
8.20402,8.844451549213389,0.1175710332374473
8.206408,8.855769097273324,0.1172898119425714
8.208787999999998,8.86652756682582,0.1170321209167584
8.211188,8.873421604512343,0.1168102662724689
8.213572,8.878453311079312,0.1166039527519589
8.215955999999998,8.88162268652672,0.1164124782982156
8.218352,8.887725328280325,0.1161933532098415
8.22074,8.889544229287376,0.1160263378120393
8.223119999999998,8.900302698839873,0.1157710855128675
8.225515999999999,8.912783729885064,0.115508648948351
8.227903999999999,8.92205195537034,0.1152860516644301
8.230284000000001,8.931320180855618,0.1150650508299222
8.232683999999999,8.938446535967618,0.1148701846120319
8.235071999999999,8.939706358467228,0.1147283862545276
8.237452000000001,8.937613605780061,0.1146297838106372
8.239847999999999,8.937383184212452,0.1145175786906344
8.242235999999998,8.935942057831342,0.1144231871055551
8.244616,8.9317074347709,0.1143494388589398
8.247011999999998,8.926541646150678,0.1142825371042466
8.249400000000001,8.923238188650014,0.1142017329707938
8.251784,8.916721925589433,0.114158561112697
8.254179999999998,8.919936627007218,0.1140294969035951
8.256568000000001,8.923570637305584,0.113883734591795
8.258963999999999,8.929718605029562,0.1137284717492786
8.26136,8.938008443126817,0.1135492120239461
8.263748,8.948160612343631,0.1133567052268344
8.266127999999998,8.955239745627392,0.1131956212504379
8.268528,8.965950993351646,0.1129807880942419
8.270916,8.974520370702624,0.1127927157558161
8.273295999999998,8.979876942493688,0.1126415331120215
8.275692,8.983930261672633,0.1124813010406421
8.27808,8.985469623425963,0.1123302080073142
8.280463999999998,8.989150855552571,0.1121555998117249
8.28286,8.997255598052597,0.1119273721421821
8.285248,9.011925721299312,0.1116231871345533
8.287631999999999,9.022871182306911,0.1113452114554008
8.290028,9.04131318962098,0.1109863484917782
8.29242,9.064830333614522,0.1105798098104728
8.294804,9.092491448727758,0.1101344882173563
8.2972,9.11992024641552,0.1096701776075394
8.299584,9.14604579149116,0.109194978924441
8.301967999999999,9.166724112834997,0.1087555590493742
8.304368,9.187262664551971,0.1083224543258364
8.306756,9.203564697350636,0.1079026884295895
8.309135999999999,9.219866730149295,0.1074863230929017
8.311536,9.234306431828402,0.1070825999055105
8.313924,9.254240579067565,0.1066184935487124
8.316308,9.273103791120084,0.1061678456701525
8.3187,9.286240240187077,0.1057572542039101
8.321083999999999,9.30393996925434,0.1052934034543653
8.323464000000001,9.321360159067885,0.1048388781285938
8.325859999999999,9.338361040000848,0.1043999935547309
8.328243999999998,9.34963515794828,0.1040010925388319
8.330635999999998,9.3576964703358,0.1036358812556796
8.333032,9.360403106790129,0.1033275401373403
8.335415999999999,9.36511184399087,0.1030021836940909
8.337812,9.35981007745953,0.1027601971825141
8.340215999999998,9.352366440554908,0.102540339178949
8.342600000000001,9.340499293276876,0.102369059659065
8.34498,9.327421441185342,0.1022132903868735
8.347383999999998,9.320861748012256,0.1020191424078736
8.349771999999998,9.314813911518373,0.1018349846697078
8.352152,9.309837010211126,0.1016403803201921
8.354551999999998,9.311378267822327,0.1014081396342239
8.356939999999998,9.31077765506025,0.1011975594252167
8.35932,9.31231891267145,0.1009663157070712
8.361723999999999,9.309576429536095,0.1007771849586724
8.364111999999999,9.306414637520165,0.1006034846518432
8.366492000000001,9.30925914774348,0.10038320015316
8.368891999999999,9.306609212406746,0.1002196613542011
8.371279999999999,9.30889464412262,0.1000208040299057
8.373660000000001,9.315463816585048,0.0997822521621213
8.376064,9.329901622406286,0.0994891647001848
8.378447999999999,9.350345730466774,0.0991529481812084
8.380828000000001,9.371348917034702,0.0987966091662821
8.383223999999998,9.395564909162546,0.0984135301759675
8.385608000000001,9.42699790834314,0.0979712487492586
8.387988,9.461131856404451,0.097492871987099
8.390391999999999,9.494893717413426,0.0969982830931839
8.392779999999998,9.531588844728596,0.0964868928514743
8.395156,9.563907683498591,0.0959934926680417
8.397559999999999,9.59771676633581,0.0954777300406689
8.399947999999998,9.62873235249369,0.0949765453287736
8.402328,9.65523188047954,0.0944953225486783
8.404732,9.679077681412917,0.0940219780243879
8.407115999999998,9.703063251973154,0.0935465713602952
8.409496,9.72732836178711,0.0930613308102805
8.4119,9.752152550108509,0.09255760585902
8.414287999999999,9.775393946564067,0.0920559650602233
8.416668000000001,9.799613730407648,0.0915190070423149
8.419063999999999,9.81903791682548,0.0910103897776272
8.421447999999998,9.830733239511364,0.0905457588373682
8.423828,9.83577063365194,0.0901169247658085
8.426224000000001,9.832939394433708,0.0897363864650079
8.428612000000001,9.831830716708172,0.0893528660864865
8.430988,9.82858016860936,0.0889889116707769
8.433392000000001,9.823979146070188,0.0886445422290349
8.435780000000001,9.811602037970829,0.0883699085239026
8.43816,9.80267005285686,0.0880891196179011
8.440563999999998,9.790804801436696,0.0878248444230788
8.442951999999998,9.77917186744201,0.0875801638784778
8.445332,9.761253091954348,0.0873814015382001
8.447735999999999,9.745196647586248,0.0871744272989504
8.450119999999998,9.730722995083983,0.086968842809438
8.452504000000001,9.720765400753752,0.0867488016019339
8.454899999999999,9.7093175623563,0.0865515865835075
8.457284000000001,9.698381580638044,0.0863646278928326
8.459664,9.68581558522571,0.0862048585764907
8.462060000000001,9.673202367985132,0.086074510235985
8.464444,9.664266591155425,0.0859588724651569
8.466823999999999,9.657844771751332,0.0858416506497197
8.46922,9.65645086719847,0.0857212063468445
8.471608,9.65836231600414,0.0856003330685336
8.474004,9.66278772223542,0.0854774835511072
8.476399999999998,9.663581014026208,0.0853941395869229
8.478787999999998,9.6607421913765,0.0853503073061357
8.481168,9.655342189472934,0.0853375983865416
8.483564000000001,9.657810820928177,0.0852813702480086
8.485948,9.65734618607722,0.0852409093653448
8.488328,9.65832457346524,0.0852075422178274
8.490735999999998,9.662096457532598,0.0851635675892573
8.493120000000001,9.678392802757651,0.085059571056905
8.4955,9.696271939848542,0.0849586717072945
8.497903999999998,9.714662933618632,0.0848686613478994
8.500291999999998,9.73291415776186,0.0847842419629718
8.502672,9.752096547464868,0.0846967211535451
8.505068000000001,9.77393266422035,0.0846041554921288
8.507456000000001,9.79791065134911,0.084495678617361
8.509836,9.822168177731587,0.0843782689039629
8.512239999999998,9.844703142621372,0.0842638688115866
8.514627999999998,9.868169273070931,0.0841469193245422
8.517008,9.892054712401077,0.0840166620287472
8.519403999999998,9.914729446917718,0.0838991188071641
8.521792000000001,9.941268613300334,0.0837642746223504
8.524176,9.97716665710898,0.0835696201768538
8.526575999999999,10.016277506477538,0.0833509303500768
8.528963999999998,10.056878599913317,0.0831103144940767
8.531348000000001,10.096408758162454,0.082879913340131
8.533743999999999,10.137941017158012,0.0826391367819747
8.536128000000001,10.178821649847512,0.0823932927036896
8.538512,10.216908785857676,0.0821585109341386
8.540907999999998,10.244613331083418,0.0819653162751353
8.543295999999998,10.2716662500031,0.0817676456851219
8.545676,10.300209412990002,0.0815501653249557
8.548072000000001,10.32703001448421,0.0813353504950702
8.550460000000001,10.34998618411244,0.0811367648758639
8.55284,10.371639101128556,0.0809279806872772
8.555236,10.39529411889109,0.0807104765004909
8.557624,10.415224474414511,0.0805045590364358
8.560019999999998,10.434503203631872,0.0802934779576364
8.562415999999999,10.448986335423486,0.0801013586189569
8.564803999999999,10.466682272775012,0.0798891541264636
8.567184000000001,10.487079159007257,0.0796459748392719
8.569579999999998,10.506964188560302,0.0793945575819183
8.571967999999998,10.516978484008124,0.079189793843085
8.574348,10.525549757216972,0.0789779504675506
8.576751999999999,10.53533173523932,0.0787554073259323
8.579139999999999,10.540597655089632,0.0785420685276654
8.581523999999998,10.546934510126585,0.0783226450125533
8.583919999999999,10.554342300350177,0.0780968006372605
8.586303999999998,10.560027529081072,0.077871710142412
8.588688000000001,10.567575088931523,0.0776406977220408
8.591083999999999,10.574051713595336,0.0774170978003499
8.593471999999998,10.578526237512731,0.0772036260500814
8.595852,10.583140531056989,0.0769861363690024
8.598247999999998,10.59096763016116,0.0767477077071685
8.600635999999998,10.595721693332276,0.0765255772605983
8.603016,10.592467353517728,0.0763405287005659
8.605419999999999,10.593496754449731,0.0761280753335077
8.607807999999999,10.59559709056837,0.0759092917780041
8.610188,10.604123037806843,0.075650429895741
8.612583999999998,10.605431977992565,0.0754304681102338
8.614971999999998,10.604459278178153,0.0752286111958319
8.617352,10.60176401687104,0.0750278371944011
8.619751999999998,10.600139690750568,0.0748196682619022
8.622139999999998,10.600237926122793,0.0746111636855992
8.624531999999999,10.59926522630838,0.0744095476868144
8.626928,10.601086023173302,0.0742005668409168
8.629311999999999,10.59811122261247,0.0740072450139791
8.631692000000001,10.594065486865002,0.0738206173797234
8.634087999999998,10.590950916677311,0.0736312926397286
8.636472000000001,10.5887675120494,0.0734396051880605
8.638863999999998,10.586584107421489,0.0732479843133628
8.641259999999999,10.581886745367962,0.0730542431603333
8.643643999999998,10.575327052194876,0.0728646380918932
8.646024,10.57170062532799,0.0726647959723277
8.648428,10.56779465920738,0.0724726963821254
8.650811999999998,10.57310780088594,0.0722358024497191
8.653192,10.577210237750997,0.0720100461295922
8.655596,10.580241739429416,0.0717910900379843
8.657979999999998,10.584064637040754,0.071576057192604
8.66036,10.592031505771786,0.0713402382993139
8.662755999999998,10.601069309689455,0.0710988135090566
8.665140000000001,10.607825473606988,0.0708737574582696
8.667535999999998,10.618585839017356,0.0706329370043045
8.66994,10.626412938121527,0.0704022160836204
8.672328,10.634240037225702,0.0701718571378098
8.674703999999998,10.644348776330007,0.069926267316906
8.6771,10.658601486554012,0.0696609200699474
8.679483999999999,10.67127140491218,0.0693911094478046
8.681864000000001,10.686222963270485,0.0691059418756056
8.684268,10.703595931255784,0.0688021675900694
8.686656,10.718315172188609,0.0684993191238522
8.689032000000001,10.739692341666746,0.0681812875538894
8.69144,10.763351151145018,0.0678480744882725
8.693824,10.782354132824398,0.0675247131309287
8.696203999999998,10.805128998571137,0.0671684511764671
8.698599999999999,10.820175000585923,0.0668344460173189
8.700987999999999,10.834289837040938,0.066502345028902
8.703364,10.844400472003116,0.0661839410708424
8.705772,10.846502703979628,0.0658948766298544
8.708155999999999,10.846090978530524,0.0656025113171514
8.710536000000001,10.842094360469169,0.0653119914974185
8.712936,10.835955872034535,0.0650312329460811
8.715323999999999,10.82381108136065,0.0647714106073239
8.717716,10.81660165773938,0.0644961172812567
8.720112,10.809392234118103,0.0642208760954678
8.7225,10.802043040869972,0.0639506495598378
8.724879999999999,10.791341272435066,0.0637005655155091
8.72728,10.781430899933074,0.0634524440212589
8.729668,10.770449592244445,0.0632098528454824
8.732047999999999,10.752251277503063,0.0629960655190259
8.734448,10.73791739462766,0.0627723731163118
8.736836,10.716506274326363,0.0625737995380715
8.739215999999999,10.693185601077271,0.0624041037415998
8.741620000000001,10.66958538857446,0.0622415589276986
8.744008000000001,10.644494932004427,0.0620956747331965
8.746388,10.626341943233424,0.0619286558365905
8.748791999999998,10.609911515955115,0.0617630296840503
8.751176000000001,10.59962716054292,0.0615739825464212
8.753556,10.593347006623556,0.061371636826106
8.755959999999998,10.589301270876089,0.0611816892592538
8.758347999999998,10.589771593300652,0.0609900451963388
8.760728,10.601602893897656,0.060755392338318
8.763124000000001,10.62051143192055,0.0604975924153251
8.765512000000001,10.635555538077467,0.0602491269467468
8.767892,10.648597543487972,0.0600066530715288
8.770288,10.658706282592284,0.0597719023682537
8.772676,10.674821323935843,0.0595202313725424
8.775056,10.69279869639896,0.0592671865321404
8.777452,10.710356759981496,0.0590264021615329
8.77984,10.737645788042396,0.0587650553215817
8.782219999999999,10.764795046476436,0.0585090346719829
8.78462,10.79422594491061,0.0582391674203297
8.787008,10.827428727412142,0.0579402783048575
8.789387999999999,10.866637812152929,0.0576262585249633
8.791792000000001,10.906917832080348,0.0573090862738098
8.794176,10.942774341634356,0.0570163660466623
8.796555999999999,10.978910390442088,0.0567174637734969
8.798952,11.010622928876398,0.0564416846036901
8.801336,11.04233546731071,0.0561667854045814
8.803732,11.075678019439106,0.0558738099039065
8.806135999999999,11.107018470821082,0.0555873364910633
8.808520000000001,11.128068879217254,0.0553362902278633
8.8109,11.14525485574745,0.0550928688889053
8.813296000000001,11.163651537091146,0.0548418081127223
8.81568,11.18619218955454,0.0545778203733164
8.818064,11.209803777204566,0.0543100524815693
8.820456,11.227968141122783,0.0540431392668703
8.822844,11.246272274667866,0.053773611974047
8.825223999999999,11.265135486720387,0.0534897335620296
8.82762,11.279203101347155,0.0532137056002475
