Time,Force,Position
8.0136,6.632457017627142,0.1642950014254389
8.015996,6.678357981736394,0.1638011165691492
8.018384,6.702753381887866,0.1634330401110695
8.02078,6.707503653343245,0.1632662927829458
8.023176,6.7024776343498855,0.1632063162140289
8.025564,6.696660219423607,0.1631528418212004
8.030339999999999,6.683627693302445,0.163124912708885
8.032727999999999,6.681300727331932,0.1631031429010729
8.035108,6.689029591063879,0.1629693366212271
8.037504,6.714263608976513,0.1625976588609665
8.039892,6.7486222910318245,0.1621288680668206
8.042276,6.787729348684644,0.1616200374199754
8.044672,6.836148061935247,0.1609698791035235
8.047056,6.88428723593213,0.1603332003923679
8.049439999999999,6.933265027690177,0.1596449202781525
8.051836,6.982569580530184,0.1588955699728997
8.054219999999999,7.03662440482557,0.1579874065392672
8.056616,7.081507343150032,0.1572185342383211
8.059012,7.122013992929324,0.1565225983993672
8.061399999999999,7.156793879723086,0.1559226404733699
8.063784,7.185427694650738,0.1554473196671465
8.06618,7.214061509578387,0.1549712351846143
8.068564,7.242927641931514,0.154524658365563
8.070948,7.276030293202956,0.154038443829324
8.073343999999999,7.303266411862006,0.1536587160027246
8.075728,7.333296027200391,0.1532464173698277
8.078123999999999,7.365467512912052,0.1527921239614149
8.08052,7.392471314145626,0.1523964260818631
8.082908,7.416589070901245,0.1520154193219317
8.085288,7.442663602432908,0.1515434772002916
8.087691999999999,7.462546736128086,0.1511131219222776
8.090076,7.477309407173417,0.1506988357305716
8.092456,7.478895990754991,0.1504697357470532
8.094852,7.485185623963701,0.1501405596128117
8.09724,7.494268753851745,0.149775857838214
8.09962,7.502141178926292,0.149437335599982
8.102024,7.505962180679761,0.1492021920377506
8.104412,7.51988623396393,0.1488375981930342
8.106791999999999,7.534973770233356,0.1484871520543115
8.109188,7.5591406446750895,0.147993510624006
8.111576,7.584146136877983,0.147454327331923
8.113956,7.605846275722343,0.1469386710084958
8.116352,7.620236859715337,0.1465108188799598
8.118739999999999,7.628388824043604,0.1461583124748112
8.12112,7.63900941982711,0.1457153078791731
8.123515999999999,7.639154877027579,0.1453826726662924
8.125904,7.633853110496237,0.1451149468035299
8.1283,7.635860898816261,0.1447574877673918
8.130695999999999,7.637728917509428,0.1444092132976411
8.133084,7.631308993963202,0.1442013413004447
8.135463999999999,7.624981618215595,0.1440238452705231
8.13786,7.622843539558057,0.1438467524162765
8.140248,7.633602009110555,0.1435118935841944
8.142628,7.642078838662915,0.1432255710022646
8.145024,7.647529854110463,0.1429516850943835
8.147407999999999,7.6574043799314255,0.1425983536695627
8.149788,7.67263358168558,0.1421551389957228
8.152196,7.68441766045434,0.1417473548066224
8.15458,7.696668269931926,0.1412859067502107
8.15696,7.6996072238117295,0.1409351039391226
8.159367999999999,7.700776394370591,0.1406344430847299
8.161752,7.707345566833021,0.1403115254599632
8.164131999999999,7.721503833400538,0.1398915394675217
8.166528,7.735801869594916,0.1394634065425159
8.168916,7.747771043960911,0.1391176333163362
8.171296,7.765791846536532,0.1387500147814612
8.173691999999999,7.789492190269441,0.1383440787473141
8.176079999999999,7.80760554064368,0.1380078071734125
8.178476,7.824415638405801,0.1376679837756655
8.180871999999999,7.842156901727701,0.1373174197905664
8.183256,7.859758395422742,0.136972667985762
8.18564,7.875916866878806,0.1366301464988528
8.188036,7.885185092364084,0.1363504729035146
8.190424,7.892590986729807,0.1360933343477266
8.192803999999999,7.900089428894146,0.1358667203188366
8.204756,7.90190643404333,0.1357783563430884
8.207136,7.909680623745652,0.1357489729991666
8.209536,7.918153661582274,0.1356866893052649
8.21192,7.925975073112838,0.1356219731571327
8.214304,7.935658815762959,0.1355371595223029
8.2167,7.94548232803994,0.1354456119734007
8.219083999999999,7.956935854011,0.1353115179526353
8.221484,7.9690882281163615,0.135145607733545
8.22388,7.9821717677815025,0.1349693356309209
8.226268,7.995347855245259,0.1348231718691412
8.228648,8.009827195321131,0.1346840308060949
8.231048,8.027100032076339,0.1345154974016876
8.233436,8.045164264764464,0.1343441936656213
8.235816,8.06266941894515,0.1341986056495242
8.238211999999999,8.08161759536481,0.1340534749084838
8.240599999999999,8.10629253477,0.1338460097562222
8.24298,8.128313747122716,0.1336607110287763
8.245379999999999,8.150894037982873,0.1334490549841071
8.247764,8.174964572910248,0.1332022439087005
8.250148,8.206252114890376,0.1328529523507806
8.252544,8.236096634631524,0.1325065362100863
8.254928,8.259283225827364,0.132237862070143
8.257311999999999,8.27925701146329,0.1320179142984949
8.259708,8.300673819338192,0.1318001976638242
8.262096,8.326094828705926,0.1315362914530642
8.264479999999999,8.35244700363344,0.1312636574644272
8.266876,8.377728243374314,0.1310090160238745
8.269264,8.401798778301691,0.1307781119111283
8.271656,8.432806781028095,0.1304700656417315
8.274056,8.465584567075439,0.130118769219527
8.276444,8.495336539017972,0.1297726715288251
8.278824,8.526718524654584,0.129392100472271
8.281224,8.557448883985137,0.1290094051208594
8.283612,8.591531818502467,0.128577597927856
8.285992,8.620586838168567,0.1281722705859962
8.288388,8.640190432610025,0.1278615522563886
8.290776,8.660772414439503,0.127507835535244
8.293156,8.682285561828762,0.1271464608597893
8.295556,8.703938478844877,0.1267813111371712
8.297944,8.720004402502324,0.1264679311882388
8.300324,8.732485433547518,0.126182264396603
8.302719999999999,8.74631693903307,0.1258698938046056
8.305107999999999,8.765503120451816,0.1254869110928787
8.307488,8.781011861459694,0.1251056992442288
8.309884,8.790933609108901,0.1247775502577465
8.312272,8.79969187377285,0.1244368367977216
8.314656,8.80779851213074,0.1240933944676635
8.317052,8.813670732316739,0.1237508551185126
8.31944,8.804364764292565,0.1235508409727475
8.321836,8.789843889962057,0.1234151902937423
8.324232,8.77997884343044,0.1232385036293762
8.32662,8.767692387271826,0.1231014554551719
8.328999999999999,8.754334995926573,0.1229780607149533
8.331396,8.737764799021406,0.1228959183310346
8.333784,8.728923465848183,0.1227381872675611
8.336164,8.724365873421517,0.1225246937288853
8.338564,8.719249202487411,0.1223343361919313
8.340948,8.709616473381272,0.1221774464045717
8.343328,8.69611931240916,0.122057948154991
8.345728,8.687837057743376,0.1218747705818057
8.348116,8.683559004570432,0.1216477072334225
8.350496,8.68207444807682,0.121397813271825
8.352896,8.674723358970816,0.1212067760756421
8.355284,8.66625411284993,0.1210619656472755
8.357664,8.658296723408245,0.1209267708541443
8.360064,8.649360946578538,0.1208324121657991
8.362447999999999,8.642007961614667,0.1207341495770086
8.364832,8.637168934076408,0.120624226904716
8.367232,8.643503893255492,0.1204203779547961
8.36962,8.649978622061434,0.1202090099865102
8.372,8.64937611344149,0.1200764214185442
8.374395999999999,8.64397800739579,0.1199890122140941
8.376788,8.63871967097695,0.1198954811904121
8.379168,8.63602251381197,0.1197562890334026
8.381568,8.6262481192211,0.119695929017166
8.383951999999999,8.615914646122791,0.1196590568751006
8.386336,8.610376770450229,0.1195772032112036
8.388736,8.610425888136339,0.1194486852078
8.391124,8.612849193621205,0.1193141806726931
8.393507999999999,8.611640384665577,0.1192387116917814
8.3959,8.608801562015866,0.1192005301647495
8.398284,8.6028897034331,0.1191969566354689
8.40068,8.598700406343033,0.1191839710550081
8.403072,8.599865785186157,0.1191035350584307
8.40546,8.60317303440256,0.1189965051180115
8.40784,8.608110297313042,0.1188525134556791
8.410243999999999,8.610533602797908,0.1187198419049022
8.412628,8.610954807536357,0.1186081260274607
8.415008,8.609932990035828,0.1184944184602484
8.417411999999999,8.617710971453885,0.1182979281654207
8.419799999999999,8.632705959924692,0.1180213256634126
8.422179999999999,8.655849121008028,0.1176582700892315
8.424584,8.684858814703755,0.1172441010414426
8.426967999999999,8.712238494705405,0.116867587073165
8.429348,8.74697495138666,0.1164092185610144
8.43174,8.785063983254695,0.115910489097488
8.434128,8.816495086577419,0.1154682277841583
8.436523999999999,8.848065959527002,0.1150245082850575
8.43892,8.881406615797527,0.1145420668997752
8.441303999999999,8.91730845132191,0.1140187685000869
8.443684,8.95498007016723,0.1134571544796431
8.446088,8.99200006270649,0.112891584281167
8.448476,9.030230760059254,0.1123102351795663
8.450852,9.0635260903594,0.1117757987236516
8.45326,9.091374196927742,0.1112758386373851
8.455644,9.12029323868272,0.110766171861381
8.458024,9.151074611557254,0.110244853743911
8.460428,9.186139725178345,0.1096784785837027
8.462812,9.2159899324931,0.1091656377101788
8.465195999999999,9.238390815329629,0.1087092656455352
8.467595999999999,9.25613587036727,0.108286915263013
8.469984,9.26680368797902,0.1079319280419369
8.472363999999999,9.27081357704546,0.107627859388711
8.474768,9.276313710179124,0.1072966852772465
8.477152,9.277530102566228,0.1070132896628717
8.479531999999999,9.271669257527444,0.1067934795720106
8.481936,9.271023318794995,0.1065220246681313
8.484323999999999,9.265302243383072,0.1062964901053772
8.486704,9.260232794277206,0.1060762530305877
8.489099999999999,9.254883805917622,0.105867011063954
8.491484,9.249115508677455,0.105673945594428
8.493864,9.241205341064015,0.1055024390262312
8.49626,9.234366108637207,0.1053201713070029
8.498643999999999,9.232881552143596,0.1050833413160907
8.501028,9.232979787515822,0.1048443419410872
8.503428,9.228002886208577,0.1046493037902643
8.505816,9.219021783408497,0.10448742566727
8.508196,9.202823673555663,0.1043917022796417
8.5106,9.191560930755443,0.104256574709737
8.512984,9.182532606127122,0.1041252726957273
8.515364,9.173736598924275,0.1040145024556484
8.517768,9.16987595877404,0.1038643048774315
8.520156,9.165596009743224,0.1037296079637321
8.522532,9.15917419033913,0.1036169610471732
8.524936,9.149539565375123,0.1035373226920952
8.527324,9.147261717090725,0.10338535862441
8.529703999999999,9.14056035843291,0.1032828373489076
8.5321,9.138142740521651,0.1031360209570887
8.534488,9.133723021863975,0.1030060831519961
8.536868,9.12944307283316,0.1028710277341032
8.539271999999999,9.124231958242566,0.1027416004500432
8.541656,9.123816441077723,0.1025791224686706
8.544036,9.11911718316633,0.1024598652324107
8.546436,9.111065350068158,0.1023780720931345
8.54882,9.108088653649457,0.1022535526765393
8.5512,9.112701051335844,0.1020809233842645
8.553595999999999,9.122109046447983,0.1018762368732258
8.555983999999999,9.137663113426232,0.1016182603978513
8.558375999999999,9.158432086710814,0.1013167741277402
8.560775999999999,9.176687102569783,0.1010205321145972
8.56316,9.200576333615665,0.1006641443087257
8.565539999999999,9.223394629474903,0.1003204056294108
8.567943999999999,9.24942573089406,0.0999459443973455
8.570331999999999,9.275177293059498,0.0995811538357429
8.572716,9.307074927091046,0.0991654177571472
8.575108,9.335340446682098,0.0987987828190207
8.577496,9.365747836646426,0.0984111364687192
8.579875999999999,9.396015456983896,0.0980312614892056
8.582272,9.421347710268751,0.097684597072162
8.58466,9.442535992433914,0.097373106811374
8.58704,9.464795209785716,0.0970527346966568
8.589436,9.48440070008504,0.0967433987187896
8.591823999999999,9.505496434451588,0.0964079846633812
8.59422,9.52659216881813,0.0960732337056522
8.596616,9.5455460328114,0.0957611342411604
8.599003999999999,9.563056874565694,0.0954469001289484
8.601384,9.578984924454153,0.0951336759654203
8.603779999999999,9.59356249990225,0.0948418914801311
8.606168,9.59906073717804,0.094618078372353
8.608547999999999,9.609494341506444,0.0943622763725877
8.610952,9.614433500274794,0.0941598691927236
8.613336,9.618441493483369,0.0939623470532593
8.61572,9.620587155572382,0.0937739489135148
8.618115999999999,9.626085392848172,0.0935531587000772
8.620503999999999,9.62799873751171,0.0933457098440906
8.622883999999999,9.628329290309413,0.0931368304580244
8.62528,9.628939382360834,0.0929183947445269
8.627668,9.628478539225618,0.0927094747969506
8.630047999999999,9.636817495008987,0.0924474835823803
8.632444,9.65051112672555,0.0921400428235525
8.634832,9.665275693628754,0.0918254239417372
8.637227999999999,9.682693987584427,0.0915041115418836
8.639624,9.698761807099745,0.0912009764726806
8.642012,9.714829626615062,0.0908983354321385
8.644392,9.729826510943738,0.0906053519319458
8.646787999999999,9.740399884899002,0.0903533382742386
8.649175999999999,9.749622784413903,0.0901199715152022
8.651556,9.757123122436113,0.0898901275303697
8.65396,9.768627661951156,0.0896342777602959
8.656348,9.775196834413585,0.0894088830157341
8.658731999999999,9.787120682809208,0.0891408942703153
8.661128,9.798392904898773,0.0888675703625786
8.663511999999999,9.812318854040814,0.0885880800069291
8.665896,9.824382472063297,0.0883177765941843
8.668292,9.836026781205195,0.088061576224457
8.670679999999999,9.850464587026432,0.0877939942447574
8.67306,9.865554019153729,0.0875330411544282
8.675455999999999,9.8815746168408,0.0872690724866631
8.677843999999999,9.892939386728983,0.087025244192286
8.680223999999999,9.903093451803665,0.0867959166324411
8.682628,9.908963776131792,0.0866000551692546
8.685016,9.913251308594088,0.0864027971731887
8.687396,9.920751646616296,0.0861809609699808
8.689791999999999,9.927320819078728,0.0859627041316553
8.692179999999999,9.9332383652351,0.0857387133835079
8.69456,9.944650356951524,0.0854700083335898
8.696956,9.958204219041226,0.0851854413528022
8.699344,9.973899951504205,0.0848853347224167
8.701735999999999,9.986802187287848,0.084595889635149
8.704139999999999,10.003568854937466,0.0842886859105744
8.706527999999999,10.013398054788054,0.0840200550703977
8.708903999999999,10.021737010571425,0.0837726902882818
8.7113,10.02555990818276,0.0835375734751134
8.713683999999999,10.027380705047683,0.0833136009117461
8.716064,10.03241430747252,0.0830663785081367
8.718456,10.03586511803152,0.0828168720171494
8.720844,10.04066640303088,0.0825515483909407
8.723236,10.04588699691082,0.0822735293677255
8.72564,10.05124736041762,0.0819908549701672
8.728028,10.052463752804725,0.08173405647379
8.730407999999999,10.055170389259052,0.0814553188363965
8.7328,10.056526551273018,0.0811933663296336
8.735187999999999,10.056532238846629,0.080948608358026
8.737563999999999,10.058679796793513,0.0806888362204277
8.739972,10.064831556233232,0.0804087843648264
8.742356,10.063626538993338,0.0801769641795143
8.744736,10.06163012582053,0.0799440045419982
8.747131999999999,10.058562777461082,0.0797188310817855
8.749519999999999,10.058149156154109,0.0794893058324319
8.751911999999999,10.052800167794524,0.0792831396146276
8.754316,10.049173740927635,0.0790749800136033
8.756704,10.047828954060884,0.0788471756983071
8.759084,10.051931390925944,0.0786067228631895
8.761488,10.060829425216754,0.078348155676021
8.763872,10.064792092454953,0.0781128581457949
8.766252,10.072479421932265,0.0778673145196188
8.768656,10.07588301066302,0.0776510015409063
8.771044,10.080217764953554,0.0774330701815932
8.77342,10.087066476669706,0.0772165104240305
8.775827999999999,10.09819892913241,0.0769714545999395
8.778215999999999,10.11105394308781,0.0767261460380004
8.780591999999999,10.128192697789766,0.0764539320748691
8.783,10.144540056558805,0.0761799389399631
8.785383999999999,10.16060787607412,0.0759159463209722
8.787764,10.172531724469742,0.0756763661807462
8.790168,10.189390939917978,0.0754149076950851
8.792551999999999,10.206901781672268,0.0751606308561591
8.794932,10.2242728537997,0.0749112629289942
8.797331999999999,10.241783695553996,0.0746586206742783
8.799719999999999,10.265161069920676,0.0743832454793419
8.8021,10.290680314660635,0.0740949366709632
8.804492,10.318993056079933,0.0738013746591684
8.80688,10.346793940820026,0.0734999867280788
8.80926,10.371242250373347,0.0732241588206627
8.811663999999999,10.40113778365848,0.0729393904441448
8.814048,10.428751676943474,0.0726739128162334
8.816428,10.4603697717213,0.0723916597478858
8.818831999999999,10.484491320192662,0.0721542418193083
8.82122,10.506610767917602,0.0719263640179018
8.823599999999999,10.53166348194874,0.0716901724445537
8.826004,10.556436656726156,0.0714634206173919
8.828387999999999,10.577997025943654,0.0712570680681074
8.830767999999999,10.606634632587042,0.0710219369260218
8.833172,10.63541200885729,0.0707838978400667
8.83556,10.666982881806875,0.0705407389725984
8.83794,10.7008353947566,0.070283513395359
8.840344,10.731614871773264,0.0700403702003036
8.842728,10.76197503990935,0.0698096999381421
8.845108,10.792335208045436,0.0695804132715292
8.847512,10.818830944315549,0.0693639488344736
8.849896,10.84439551502588,0.069150337093004
8.852276,10.865024718683602,0.068954727724107
8.85468,10.880159476781271,0.0687927663462951
8.857068,10.89557377413266,0.0686228474178747
8.859444,10.907542948498657,0.0684526483487978
8.861848,10.914856295065762,0.0682910202444117
8.864236,10.919096605699814,0.068143131031422
8.866615999999999,10.932695793759889,0.0679510398730359
8.869012,10.94871639144696,0.0677401722349274
8.8714,10.9583113780142,0.067564474731101
8.87378,10.966183803088748,0.0673883365779658
8.876184,10.971122961857098,0.0672209836889721
8.878568,10.966843012826285,0.0670933631960731
8.880948,10.96177166786255,0.066963489752181
8.883351999999999,10.952184264726784,0.0668376125826592
8.88574,10.93659055935177,0.0667331378958413
8.888116,10.924349429163527,0.0666077207847043
8.890519999999999,10.913086686363313,0.0664542813979104
8.892908,10.900613238749592,0.0663103689276477
8.895287999999999,10.889490265576235,0.0661527230024181
8.897684,10.880369393149294,0.0659882257968929
8.900068,10.87460109590913,0.0658032802801525
8.902448,10.873256309042375,0.0655923617387817
8.904848,10.874193162175764,0.0653672315194097
8.907231999999999,10.876200950495786,0.0651367704681342
8.909612,10.884215041055064,0.0648858035724673
8.912016,10.894510771614476,0.0646205350344476
8.914399999999999,10.899591595867555,0.0643789196973972
8.91678,10.902530549747356,0.0641485914336296
8.919179999999999,10.908030682881018,0.0638957790330083
8.921567999999999,10.915812456014816,0.0636290093368056
8.923948,10.928529596201228,0.0633479783491915
8.926352,10.944459541947552,0.0630508212130374
8.928735999999999,10.9570369125071,0.0627727560592316
8.931116,10.973338945305764,0.0624896039586255
8.93352,10.994296805903318,0.0622002838615557
8.935903999999999,11.014323500941094,0.0619133535861616
8.938288,11.034862052658069,0.0616381501440974
8.940679999999999,11.056099452509343,0.0613442515658867
8.943068,11.07691754348004,0.0610627863370563
8.945447999999999,11.091589562584623,0.0608035901410332
8.947852,11.105190646502573,0.0605503602928575
8.950236,11.119862665607156,0.060293606505913
8.952615999999999,11.133463749525095,0.0600431506441536
8.95502,11.144922963069764,0.0598024138967251
8.957403999999999,11.156661715868154,0.0595555928422538
8.959783999999999,11.16840046866654,0.0593097693602818
8.962188,11.182420861465069,0.0590510669056774
8.964571999999999,11.19830358538315,0.0587914854467194
8.966952,11.214186309301232,0.0585325900808255
8.969356,11.227927162846036,0.0582836158767972
8.971739999999999,11.241156159711643,0.058025553680328
8.97412,11.251451890271056,0.0577733746116157
8.976524,11.265100196017242,0.0575033822749274
8.978912,11.275675465830377,0.0572433484459366
8.981292,11.282805612658116,0.0569792789065619
8.983687999999999,11.289795989858993,0.0567193507327518
8.986072,11.293853100753678,0.0564654058605021
8.988451999999999,11.300284399447118,0.0562215939434005
8.990848,11.3077866333272,0.0559738465618228
8.993236,11.318641442394052,0.0557083348600952
8.995616,11.32721461146077,0.0554552310438286
8.998019999999999,11.33071264384801,0.0552167000658303
9.000408,11.33006670511556,0.0549916501937992
9.002787999999999,11.333424967875944,0.0547568985177419
9.005192,11.335432756195967,0.0545347856171008
9.007576,11.336369609329353,0.0543173399964385
9.00996,11.335304361716322,0.0541048460352929
