Time,Force,Position
7.852095999999999,6.119333070811448,0.1691679441424501
7.854479999999999,6.229841378734788,0.1683265963446775
7.856876,6.326665534230911,0.1675182024227855
7.859259999999999,6.405521796553265,0.1668663577860208
7.861644,6.4726487853665775,0.1662442868709044
7.864048,6.530048601417264,0.1655933026542609
7.866432,6.571435403212355,0.1650634257824302
7.868812,6.601697335976216,0.1645827075603111
7.871216,6.6273978845976735,0.1641118906474855
7.8736,6.650724245420375,0.1636710756024698
7.87598,6.672048505496658,0.1632779091674586
7.878375999999999,6.689740651132447,0.162986363784024
7.880763999999999,6.715114438671938,0.1625993412548792
7.883144,6.748309637741993,0.1621048041170248
7.885539999999999,6.789186478715753,0.161520548001512
7.887928,6.83681379603344,0.160863464304839
7.890319999999999,6.8891894889486345,0.1601686964443766
7.892716,6.943986591490826,0.159431387346579
7.895104,7.000972786234538,0.158629255511492
7.897484,7.056655728366134,0.1578194505381307
7.899887999999999,7.109824713072114,0.1570419434932709
7.902272,7.161458127740503,0.1562473230040991
7.904652,7.216723656849388,0.1553799860793925
7.907048,7.273339660398632,0.1544784372603858
7.909435999999999,7.324368670589204,0.1536627182198802
7.911816,7.372836501525921,0.1529199629195249
7.914211999999999,7.423166663582193,0.1521550859271566
7.916596,7.475219387131161,0.1513805575279578
7.918987999999999,7.523267909187296,0.1506829542122537
7.921388,7.570245496056793,0.1500105082609687
7.923772,7.615081212553014,0.1493823817384262
7.926155999999999,7.662757647556812,0.1486845637181014
7.928547999999999,7.704894311030182,0.1480311907562648
7.930935999999999,7.745635174092821,0.1473521185743175
7.933332,7.779625560811533,0.1467440334812081
7.935727999999999,7.809938507119376,0.1461565808906194
7.938115999999999,7.838995422643346,0.1455348468706169
7.940495999999999,7.858600912942673,0.1450404689758025
7.942892,7.868987295442833,0.144695420701036
7.94528,7.878442512383215,0.1443600885905892
7.947656,7.894043801189707,0.1439314895550208
7.950051999999999,7.908294615555842,0.1435373917597955
8.064756,7.287951885143832,0.1434116900332923
8.067143999999999,7.291072142905128,0.1433222559703081
8.069524,7.298196602159258,0.1431716650898538
8.07192,7.305880139920831,0.1429928632966016
8.074304,7.313284138428682,0.1428298219578034
8.076687999999999,7.327857922161039,0.1425874021367502
8.079084,7.3513240526106,0.1422511980740284
8.081468,7.380936254926274,0.1418182058502237
8.083848,7.413901032428724,0.1413234466476343
8.086248,7.445003478811616,0.1408554560919582
8.088632,7.479318730754425,0.1403363388707222
8.091016,7.514332830831535,0.1397867312321959
8.09342,7.547019964938132,0.1392133481897252
8.095808,7.579754320872971,0.138605663968577
8.098188,7.609183323449278,0.138026776441593
8.100584,7.637541390838948,0.1374672428228068
8.102972,7.671114364534948,0.1368274437996902
8.105356,7.701893841551615,0.1362252306480319
8.107759999999999,7.735606584874476,0.1355839245527532
8.110144,7.774906321556008,0.1348791309017752
8.112524,7.815369541222794,0.1341917811094406
8.114927999999999,7.849966228277194,0.133588536030091
8.117315999999999,7.8805587138387585,0.1330437334151199
8.119696,7.911802825706379,0.1325068144551296
8.1221,7.944909268693559,0.131955219458363
8.124488,7.980157582054016,0.1313782659712299
8.126868,8.009167275749743,0.1308613393158701
8.129272,8.034452307206356,0.1303884868644127
8.131656,8.058526633849468,0.129942038677364
8.134036,8.0833923564255,0.1294941648423713
8.13644,8.103974338254979,0.1291124528371601
8.138824,8.12334561527096,0.1287560038572165
8.141207999999999,8.14667387195153,0.1283882025061908
8.1436,8.170513985311299,0.1280336498813677
8.145988,8.195797120910042,0.1276820289496898
8.148368,8.22443283169556,0.1272810840861658
8.150772,8.249995506548027,0.1269229381529782
8.15316,8.278072138826104,0.1265533104786781
8.15554,8.310804598903076,0.1261462854379001
8.157943999999999,8.345818698980183,0.1257116752501604
8.160332,8.38246281275137,0.125243371184087
8.162711999999999,8.419758552828615,0.1247779559802559
8.165108,8.460778955144972,0.124280774511236
8.167496,8.500728422274694,0.123801168181964
8.169876,8.538675788657997,0.1233487120299612
8.172279999999999,8.572199644667885,0.1229623787349718
8.174664,8.610239558849806,0.1225431802695949
8.177048,8.64986226489756,0.1221220494232057
8.179452,8.689205431691601,0.1217144133916376
8.181835999999999,8.729479764045415,0.1213018903224243
8.184216,8.771756197145645,0.1208672105393342
8.186612,8.8131014646861,0.120442018846886
8.188996,8.853003709987576,0.1200208657348496
8.191376,8.889972688982859,0.1196299854321433
8.193772,8.926429811298942,0.1192325246108828
8.196159999999999,8.960465523988027,0.1188774457978678
8.19854,8.99850543816995,0.1184846328758333
8.200936,9.034683021232311,0.1181096213756567
8.20332,9.065133841309144,0.1177891703173248
8.2057,9.086505323213672,0.117563642004473
8.2081,9.103453294744783,0.1173963259232319
8.210484,9.122822675902896,0.117193178202849
8.21288,9.139678099635391,0.1170016052051826
8.215276,9.15588189706183,0.1168065891384571
8.217664,9.17129429855535,0.1166137834694026
8.220044,9.185403447436752,0.1164122534101401
8.286959999999999,8.883477454977312,0.1162581193227813
8.289348,8.872492355572945,0.1162123986767216
8.291727999999999,8.8612749387431,0.1161453986520779
8.294124,8.854900341167248,0.1160059415929324
8.296512,8.854112736950066,0.1158252819656472
8.298892,8.852393967173107,0.1156506664280439
8.301288,8.853888002956063,0.1154384015439655
8.303676,8.862459276164909,0.1151555930428883
8.306052,8.873731498254473,0.1148250072323627
8.308456,8.887145590717314,0.1144702585978721
8.310844,8.903912258366931,0.1140726700702335
8.313224,8.917373572658017,0.1136853248369812
8.31562,8.925387663217291,0.11333384715407
8.318007999999999,8.932889897097368,0.1129724443933245
8.320404,8.94509518060458,0.1125454977198312
8.322799999999999,8.954646737059317,0.1121355355258081
8.325187999999999,8.967970177581408,0.111665751121366
8.327568,8.980502222170584,0.1111986906955286
8.329972,8.996107302692815,0.1107027519449904
8.33236,9.014925188774958,0.110171707671135
8.334736,9.031880743737547,0.1096567939107197
8.337136,9.04748582425978,0.1091665606256344
8.33952,9.062951135155153,0.1086821025752435
8.341904,9.07320153974419,0.1082504810779178
8.344308,9.080146590974696,0.1078294671012606
8.346692,9.093657022951891,0.1073345872406206
8.349072,9.108657698996309,0.1068154337653273
8.351467999999999,9.122727209480946,0.1063069912823031
8.353856,9.13400322328625,0.1058159739229065
8.35624,9.143556675598855,0.1053325334572532
8.358635999999999,9.150456400858989,0.1048617050959531
8.36102,9.160149622798455,0.1043729242710016
8.3634,9.173847046230756,0.1038504571711043
8.365803999999999,9.18554236891664,0.1033434644709591
8.368191999999999,9.189089518989997,0.1029078248682294
8.370572,9.188772237197378,0.1024992256906437
8.372968,9.188966812083956,0.1021019821167957
8.375356,9.18622812066434,0.1017262594874612
8.377735999999999,9.179624997378754,0.1013786213497846
8.380139999999999,9.168598363719752,0.1010794445833931
8.382527999999999,9.156500794874107,0.100790715759513
8.384908,9.144682765282193,0.10049117572192
8.387304,9.129512160503497,0.1002283047959797
8.389692,9.114201786097937,0.099969249413062
8.392071999999999,9.09712162837144,0.0997473871233138
8.394468,9.073196550644532,0.0996068509129189
8.396856,9.04470819291735,0.0995196143121695
8.399239999999999,9.00900282813742,0.0994973214605426
8.401636,8.98139841414177,0.0994347776425054
8.404024,8.955237022385099,0.0993764768396544
8.406419999999999,8.933312149546738,0.0993065121360892
8.408816,8.911247507081518,0.099241038984601
8.411204,8.889554951668632,0.0991906468691929
8.413587999999999,8.876382655920613,0.0990878804364539
8.415984,8.8715908502106,0.0989386635290266
8.418372,8.871315102672618,0.0987686340254973
8.420752,8.871970520694415,0.0985941982536083
8.423152,8.875931292074744,0.0984149872552256
8.425544,8.883197416813607,0.0982316210406106
8.42792,8.895119369351361,0.0980229393706116
8.430323999999999,8.90820480487437,0.0978307886073532
8.432712,8.920731161889938,0.097660060760536
8.435092,8.941265921891175,0.0974288885252196
8.437496,8.971252107117053,0.0971441121669464
8.439884,9.004031789022267,0.0968439680265619
8.442264,9.04388870835337,0.0964891426202309
8.444668,9.086399354736947,0.0961243543050537
8.447052,9.134776533732916,0.0957171646837681
8.449436,9.176216244929854,0.0953646362123231
8.451839999999999,9.215374316126656,0.0950379154896103
8.454224,9.251599121017264,0.094733436876903
8.456604,9.285122977027152,0.0944689787298076
8.459007999999999,9.314782401171067,0.0942294358493143
8.461395999999999,9.336293652702452,0.094056409669828
8.463776,9.3579446738607,0.0938803988248185
8.466172,9.381318256511646,0.0937017369385361
8.46856,9.403341364722232,0.09354429861642
8.470939999999999,9.426575177746315,0.0933732314164125
8.473336,9.445525250023843,0.0932405013890139
8.475724,9.463544156741596,0.0931132411867726
8.478104,9.48184260271307,0.0929763409257767
8.4805,9.502143149430957,0.0928259593029352
8.482887999999999,9.523095322454909,0.0926840554119594
8.485268,9.543395869172796,0.0925399576708138
8.487672,9.563975955144404,0.0923868050704762
8.490056,9.580551839623178,0.0922615811353757
8.492436,9.598478198542312,0.0921185825358782
8.49484,9.620920615633478,0.091961764161006
8.497228,9.6464360686577,0.0917836748803063
8.499608,9.676235262428476,0.0915711504446945
8.502004,9.706965621759029,0.0913552684050868
8.504392,9.742119491463,0.0910991972604648
8.506772,9.780346397100022,0.0908214783868969
8.509176,9.824859144230018,0.0904973493325607
8.511564,9.866857933934398,0.0901786602067526
8.513944,9.906063226959445,0.0898736606359018
8.51634,9.946618994424846,0.089552664624741
8.518728,9.983170560397417,0.0892570755013181
8.521108,10.024704715250843,0.0889043873340454
8.523503999999999,10.066518409357988,0.0885442939532718
8.525891999999999,10.109682577905492,0.0881691306091137
8.528272,10.1523348897738,0.0877865897346104
8.530668,10.188189503469935,0.0874413523141693
8.533052,10.217246418993906,0.0871335444512115
8.535432,10.24458077302518,0.08682928509265
8.53784,10.270472104817475,0.0865185696262892
8.540224,10.294501105490216,0.0862167250022309
8.542603999999999,10.308427054632256,0.0859502076889274
8.545,10.321561607841376,0.0856840250663305
8.547388,10.331902664371164,0.0854296468883103
8.549771999999999,10.342663029781532,0.0851626888571696
8.552168,10.35356316481876,0.0848927755498525
8.554552,10.366605170229269,0.0846089183296071
8.556936,10.375642974146936,0.0843487650903918
8.559332,10.383330303624248,0.0841052579279037
8.56172,10.39236810754192,0.0838458391775142
8.564116,10.397401709966756,0.083608378297485
8.566512,10.403646017205087,0.0833582737332673
8.5689,10.405466814070008,0.08314340952383
8.571284,10.401281308695678,0.082960308215536
8.57368,10.390949731455237,0.0828137766160391
8.576068,10.376194643841384,0.0827018965355955
8.578448,10.361858865108116,0.0825762913358334
8.580843999999999,10.34738331674798,0.0824547399170699
8.583231999999999,10.333699164320764,0.0823341693948575
8.585612,10.324391300438718,0.0822065429282091
8.588016,10.317597393982288,0.0820785958547064
8.590404,10.31946351681758,0.0819137180909005
8.592784,10.314392171853848,0.081783312674419
8.59518,10.308249891703475,0.0816603296322239
8.597567999999999,10.29810341006027,0.0815583293082574
8.599952,10.28637413655123,0.0814534188688415
8.602348,10.269849265616433,0.08136772740837
8.604735999999999,10.252672768375582,0.0812757936694186
8.607116,10.23684674557509,0.0811673132838476
8.609512,10.21887885240132,0.081073199480674
8.6119,10.205194699974102,0.080949466684402
8.614279999999999,10.19658568422636,0.080798218095021
8.616676,10.193191574784947,0.0806153589538573
8.61906,10.199016573142702,0.0803809018504062
8.621456,10.211267182620288,0.0801033194290819
8.623852,10.228220841725008,0.0797838458760594
8.62624,10.249178702322563,0.0794455140251273
8.62862,10.274420303666671,0.079079595319148
8.631015999999999,10.30101237945114,0.0786994111513
8.633403999999999,10.324950728183136,0.0783249515056912
8.635784,10.345863262810315,0.0779413028703871
8.638183999999999,10.359978099265328,0.0775856503523621
8.640568,10.383451813146364,0.077176313124072
8.642952,10.407344835907985,0.0767542796239652
8.645348,10.435102290535577,0.076317606523002
8.647736,10.463511371469227,0.075888837104967
8.650132,10.493782783522436,0.0754551947173296
8.652528,10.527918627441617,0.0750099652662742
8.654916,10.560983536174158,0.0745723695356323
8.6573,10.596469854533696,0.0741144325612678
8.659696,10.626881036213764,0.0736821531544218
8.662084,10.65263639009494,0.0732646552562043
8.664463999999999,10.6763896432297,0.0728590234348317
8.66686,10.695067759684989,0.0724795884689337
8.669248,10.712395401699911,0.072117030537568
8.671628,10.727301634087842,0.0717762826370522
8.674028,10.73913483054272,0.0714512589662533
8.676416,10.7468240558779,0.0711475284134232
8.678799999999999,10.7523714108398,0.0708566728301589
8.6812,10.758198305055426,0.0705580605545741
8.683584,10.763605890390467,0.0702717996908624
8.685964,10.773157446845207,0.0699652537233179
8.688364,10.779216658486307,0.0696864492679466
8.690752,10.786858661993245,0.0694125212185877
8.693132,10.793849039194129,0.0691330648726327
8.695535999999999,10.800048020462087,0.0688520585802141
8.697924,10.804384670610492,0.0685745112854608
8.700304,10.80443758001234,0.0683210531190828
8.7027,10.80528188534711,0.0680698303894316
8.705088,10.802494076241384,0.0678480754488197
8.707468,10.800916971949157,0.067615653366314
8.709864,10.799991493962985,0.0673896256901583
8.712252,10.795061814483978,0.0671782124392683
8.714632,10.79213423575139,0.0669594979094368
8.717027999999999,10.788415261085886,0.066738686580137
8.719415999999999,10.78697792642052,0.0665026884931824
8.721812,10.788334088434487,0.0662622979521809
8.724216,10.791832120821732,0.066010538607913
8.7266,10.798263419515171,0.0657506958462325
8.72898,10.801342143021833,0.0655111199398596
8.73138,10.806422967274912,0.0652648386313684
8.733768,10.81136402190113,0.0650234361646603
8.736148,10.817376011713993,0.0647770727014144
8.738544,10.82138590078043,0.0645377976243859
8.740931999999999,10.827118351339568,0.0643005351716233
8.743312,10.833781967458489,0.0640625354022207
8.745712,10.842168145070096,0.063825648262786
8.748096,10.848040365256097,0.0635840347893833
8.750475999999999,10.855402829509314,0.0633259426716632
8.75288,10.866397408203028,0.0630404154611554
8.755268,10.881908045068773,0.062753282885623
8.757648,10.898349847494297,0.0624657233416614
8.760043999999999,10.915583045852737,0.0621798271250912
8.762432,10.933607640144093,0.0618981227682145
8.764812,10.947488263315758,0.0616325040854716
8.767216,10.959087246487288,0.0613816127235062
8.769599999999999,10.963888531486647,0.0611463786753454
8.77198,10.970691917232424,0.0609058030028684
8.774384,10.975353432604924,0.0606760029552668
8.776767999999999,10.986021250216671,0.0604281934282944
8.779148,10.992545096708728,0.0601963012261482
8.781544,10.997858238387288,0.0599737658779498
8.783932,11.002100444879206,0.0597565775031059
8.786311999999999,11.00927591767732,0.0595328693813325
8.788712,11.011096714542242,0.0593335338820329
8.7911,11.011706806593663,0.0591432735927015
8.793479999999999,11.012596437898807,0.0589454519048225
8.795884,11.01693119218934,0.0587509831183295
8.798268,11.02070686797244,0.0585725896807301
8.800647999999999,11.021921364501674,0.0584154906542941
8.803052,11.016338162858744,0.0582722714438579
8.805439999999999,11.009963565282897,0.0581261858358469
8.80782,11.007593169199875,0.0579690192948377
8.810212,10.99935624050447,0.0578243451762074
8.8126,10.99898794516787,0.0576615439540204
8.814992,11.000761520204552,0.0574896002556804
8.817388,11.012405829346454,0.0572946864896014
8.819776,11.01869546255516,0.0571228735062916
8.822156,11.025124865390731,0.0569474643454429
8.82456,11.026618901173688,0.0567837412038204
8.826944,11.033979469569037,0.0566082067830484
8.829324,11.043342138710802,0.0564280208228737
8.831719999999999,11.051773642292789,0.0562485860485561
8.834107999999999,11.05713210994172,0.056079099716894
8.836488,11.066914087964063,0.055887844354364
8.838892,11.073623030053357,0.0557057843194402
8.84128,11.0827061599414,0.0555338251574533
8.84366,11.091789289829444,0.055361971077623
8.846064,11.097799383784432,0.0551995268242757
8.848448,11.104740643299198,0.055036397834522
8.850828,11.117408665799497,0.054865615724608
8.853223999999999,11.127515509045937,0.0547148878213679
8.855611999999999,11.13576002117282,0.054565925522478
8.857992,11.149731296285234,0.0544095672517108
8.860396,11.156485564344898,0.0542764160956659
8.862779999999999,11.160818422777568,0.0541596120200881
8.86516,11.155932173411069,0.0540704778705786
8.867556,11.156912456656958,0.0539705971752783
8.869944,11.15668203508935,0.0538787372261371
8.87234,11.160036506133997,0.0537886042710529
8.874736,11.15659327900647,0.053709515976225
8.87712,11.145001879266418,0.0536530205234038
8.879503999999999,11.136343745832564,0.0535911911404073
8.881908,11.128756547585343,0.0535250129054991
8.884295999999999,11.122100514897904,0.0534584045324146
8.886676,11.119448683703302,0.053382392343083
8.88908,11.113631268777022,0.0532932644277777
8.891464,11.11116642903752,0.0531882185452805
8.893848,11.109772524484656,0.0530787875076385
8.896244,11.10972909437215,0.052957946727012
8.898628,11.110104973140228,0.0528265083492911
8.901012,11.115183901535437,0.0526678976087289
8.903407999999999,11.122125161050208,0.0525091170421934
8.905792,11.12534175832586,0.0523517639250786
8.908172,11.132842096348067,0.0521782275118577
8.910568,11.140621973623997,0.0519971106781381
8.912956,11.153616757206256,0.0517993337923133
8.915336,11.159953612243209,0.0516073352861437
8.917731999999999,11.166290467280165,0.0514151034358182
8.920119999999999,11.169182199331722,0.0512167459469137
8.922516,11.175798593622392,0.0510167173841871
8.924911999999999,11.18776966384626,0.0507955430923224
8.927299999999999,11.19294303589796,0.0505833580510717
