Time,Force,Position
7.825407999999999,6.530309899457646,0.1578261617407809
7.827791999999999,6.530124803860414,0.1577563718925286
7.830175999999998,6.532174126435071,0.1576758460475364
7.832571999999995,6.537481580540018,0.1576038576336747
7.834959999999999,6.552984633974288,0.1574117111488757
7.837340000000001,6.577799343006339,0.1570727053809403
7.8397359999999985,6.607409649464143,0.156659366328792
7.842124000000002,6.642886488534336,0.1561423802324023
7.844508000000001,6.678595645030007,0.155643353101916
7.846912,6.716167132645235,0.1551048413067752
7.849299999999996,6.755368633954542,0.1545192126527018
7.851683999999995,6.796759227465369,0.1538499765228317
7.854083999999997,6.829257474258993,0.1533028519686062
7.856472,6.851233360641335,0.1529333925270862
7.858851999999995,6.873488786277398,0.1525460010766848
7.861248,6.892438858554928,0.1521970913326114
7.863635999999996,6.910597534899542,0.1518629120620849
7.866015999999998,6.9412806724018505,0.1513226136871281
7.868411999999996,6.974849854382113,0.1507762490169979
7.870799999999999,7.011584620094051,0.1502107555324159
7.873183999999998,7.050321486552404,0.1496170510061385
7.875579999999996,7.086172308532806,0.1490523369899265
7.877967999999999,7.119928481968174,0.1484932610292414
7.8803480000000015,7.154383503537842,0.1478950836219255
7.882743999999999,7.182739675069642,0.147367950904738
7.885131999999995,7.208629111004071,0.1468364895799618
7.8875160000000015,7.227256213915377,0.1463635125642115
7.889911999999999,7.243229589774204,0.1459234259674851
7.892299999999995,7.263346936752732,0.1454101116017816
7.894684000000002,7.287748024477807,0.1448190447361797
7.897079999999999,7.308564219590631,0.1442749658504473
7.899467999999995,7.323234342837344,0.1438331659642105
7.901852000000002,7.345865647241482,0.1433027648950524
7.904247999999999,7.375806506496988,0.1426764960513418
7.906635999999995,7.410682732805107,0.14198076835075
7.909015999999998,7.443045001687611,0.1413063718301305
7.911412000000002,7.468237485345607,0.140717006595447
7.913799999999998,7.482348530084883,0.1403068211872453
7.916183999999998,7.493945617398541,0.1399185720986469
7.918580000000002,7.498792228368274,0.1395890982165192
7.9209679999999985,7.500752794860054,0.1392654037933071
7.923348000000001,7.49121261355253,0.1391368047333737
7.925747999999995,7.482556375976542,0.139035502460936
7.9281320000000015,7.47548293026639,0.1389252421955522
7.930531999999996,7.473996477914908,0.1387452691712726
7.932928,7.464873709630096,0.1387045459668342
7.935320000000001,7.457146741756016,0.138701497875465
7.937699999999996,7.45337675354653,0.138676432625515
7.940099999999997,7.45104978757602,0.138650052994919
7.942488000000001,7.450073296045869,0.1385911790027515
7.944872,7.451378444515856,0.1384893052616125
7.947267999999998,7.458410355971373,0.1383141188229023
7.949656000000001,7.463579936307333,0.138162154262075
7.952035999999996,7.468377429590952,0.13799396462204
7.954435999999998,7.4675879295159024,0.137890920319353
7.956824000000001,7.470523091679965,0.1377454837338961
7.959203999999996,7.480488269441674,0.1375365568782464
7.961600000000001,7.499253246121968,0.1372112891356479
7.963992000000001,7.522534280974296,0.1368425142117957
7.966376,7.55498720179755,0.1363784083106188
7.968771999999998,7.589534771165835,0.1359222796362115
7.971160000000001,7.635535866505181,0.1353242681574108
7.973539999999996,7.681676731471389,0.1347215584700479
7.975939999999998,7.727957366064454,0.1341178873269167
7.978328000000001,7.771724043231905,0.1335388495972592
7.980712,7.819494921892192,0.1328989679037492
8.047616000000001,7.770290500282283,0.1328653320209859
8.050008000000002,7.759537718303392,0.1328587927873664
8.052387999999997,7.750647267444059,0.132832807432601
8.054784000000001,7.746040557331279,0.1327412883896042
8.057171999999998,7.746648753524832,0.1325747448883935
8.059555999999997,7.7476290367707215,0.1324248748001449
8.061952000000002,7.753404917442364,0.132220376396088
8.064339999999998,7.765978496286175,0.1319347966684303
8.066723999999997,7.791495845168266,0.1314855040852544
8.069120000000002,7.817292733304078,0.1310258775000554
8.071507999999998,7.842949851813029,0.1305714436124176
8.073891999999997,7.8698176751354785,0.1300939368016858
8.076288000000002,7.893612462524872,0.1296624695954468
8.078675999999998,7.926114501034233,0.1290963705598655
8.081059999999997,7.964250754730507,0.1284367970666574
8.083456000000002,7.995729079881473,0.1278552826147729
8.085843999999998,8.023342973166464,0.127321254495791
8.088227999999997,8.056823399063846,0.1267229387664385
8.090624000000002,8.093097321640565,0.1261028005043744
8.093016000000002,8.129743331269621,0.1255019861435353
8.095395999999997,8.164107700898539,0.1249423515426757
8.097795999999999,8.197540904967681,0.1243947824970454
8.100183999999995,8.231253648290542,0.1238372181831228
8.102568000000002,8.262684751613264,0.1233172571813577
8.104967999999996,8.292393293443295,0.1228142627620099
8.107356,8.322660913780764,0.1222867981240032
8.109739999999999,8.34734154075956,0.1218120069984625
8.112135999999996,8.368297505499244,0.1213737896806408
8.114519999999995,8.38245577206676,0.1210125162674348
8.116899999999998,8.393401233074359,0.1206944218228651
8.119296000000002,8.406768103708954,0.1203358370505249
8.121680000000001,8.419855435089831,0.1199898558908855
8.124059999999997,8.432802996843847,0.1196504749280025
8.126464000000002,8.439604486731753,0.119385980911962
8.128848000000001,8.442913631806027,0.1191768282598405
8.131227999999997,8.447153942440078,0.1189590710468438
8.133624000000001,8.456329620126738,0.1186906955515201
8.136008,8.461361326693705,0.1184738238337483
8.138387999999996,8.46145766620806,0.1183084627733264
8.140792000000001,8.460110983483439,0.1181406972527533
8.143176,8.4579729048259,0.117974561512046
8.145555999999996,8.4556950565415,0.117814481313218
8.147960000000001,8.455559078630378,0.1176279840346611
8.150347999999997,8.455702639972975,0.1174292139016748
8.152723999999996,8.452214086875077,0.1172889418858476
8.15512,8.44737505933682,0.1171740577912674
8.157507999999996,8.446120924410819,0.1170344596172316
8.159887999999999,8.445797955044593,0.1168871696165753
8.162299999999998,8.444404050491729,0.1167533903536463
8.164683999999998,8.447154117058556,0.1165714938259449
8.167064,8.449624644371667,0.1164022273061793
8.169467999999998,8.454656350938635,0.1161891870915202
8.171851999999998,8.459967596759324,0.1159646057231815
8.174235999999997,8.468212108886206,0.115711911995697
8.176635999999998,8.479669426573006,0.1154201397170426
8.179019999999998,8.492057909819582,0.1151211302268819
8.1814,8.499371256386688,0.1148778882128556
8.183803999999999,8.505753437394015,0.114641736900157
8.186187999999998,8.516139819894175,0.1143653531263224
8.188568,8.530111095006587,0.1140675855739302
8.190971999999999,8.546875866798338,0.1137495214511464
8.193360000000002,8.563361099336362,0.1134434327402453
8.195736,8.574910964821777,0.1131855090302825
8.198143999999996,8.590325262173167,0.1128953151892986
8.200528000000002,8.608300738778414,0.1125614636505457
8.202907999999997,8.62841808575694,0.1122024330737174
8.205311999999996,8.648954741616045,0.1118281616604542
8.207699999999999,8.670422563034926,0.111448375631697
8.210080000000001,8.69175061482695,0.1110738046965984
8.212484,8.710145400312776,0.1107270246391767
8.214868,8.728540185798604,0.1103819837571608
8.217248000000001,8.745584496844073,0.1100634261643028
8.219652,8.764351369382238,0.1097390696611416
8.222036,8.783258011547264,0.1094109041884116
8.224416000000002,8.800162552965872,0.1091031475884682
8.226811999999999,8.821071295877315,0.1087614236248266
8.229195999999998,8.844121909162034,0.1083965758526649
8.231576,8.870525097633529,0.1079923260716956
8.233979999999999,8.89534549423919,0.1075925194445618
8.236363999999998,8.918583098979013,0.1071976446629712
8.238744,8.941029307785916,0.1068060878090062
8.241147999999999,8.967107631033317,0.106366792085312
8.243531999999998,8.995188055027135,0.1059099513634455
8.245912,9.01954381678184,0.1054795519502392
8.248315999999999,9.0457619096561,0.1050399068113859
8.250699999999998,9.070397210664524,0.1046024753883711
8.253083999999998,9.095684137979005,0.1041730928051562
8.255484,9.12031943898743,0.1037406095506757
8.257871999999995,9.148307315182633,0.1032717396554877
8.260251999999998,9.180439162497526,0.1027675371095889
8.262655999999996,9.21285054906614,0.1022557519240406
8.265044,9.241537273395643,0.1017657131695994
8.267419999999998,9.264637004366476,0.1013084052357648
8.269823999999996,9.284151842725052,0.1008679840017879
8.341503999999997,8.828406020736445,0.1006478114570198
8.343887999999996,8.843349995663273,0.1006213467529769
8.346267999999998,8.85857350984382,0.1005846291951152
8.348671999999997,8.881665657383175,0.1004891551492095
8.35106,8.905037344176248,0.1003832949922027
8.353444,8.93041113171574,0.1002607415660256
8.355839999999997,8.962442847800538,0.1000929256009213
8.358228,8.996895973512338,0.0998931277565461
8.360607999999996,9.03111678179866,0.0996737782291216
8.363004,9.065896668592424,0.0994352386589761
8.365388,9.102725877960845,0.0991516790341479
8.367768000000002,9.134247633224316,0.0988898645160892
8.370172,9.165025214383112,0.0985961078888837
8.372559999999996,9.192357672556517,0.0983161011650254
8.374939999999999,9.21615245994591,0.0980234553584441
8.377343999999997,9.238643994723189,0.0977224570597464
8.379727999999997,9.25997204651521,0.0974060318848925
8.382111999999996,9.281067780881756,0.0970696787590934
8.384516000000001,9.30416561599472,0.0967192380406003
8.3869,9.330755795921316,0.0963284548949518
8.389279999999996,9.353621313608802,0.0959589321607024
8.391676,9.372110542751118,0.0956056190523141
8.394063999999997,9.388877210400734,0.0952574641087134
8.396447999999996,9.403129920624735,0.0949153522116032
8.398852000000002,9.41645146528896,0.0945780034165989
8.401236,9.431263254020406,0.0942166909650881
8.40362,9.448124365326509,0.0938126510271213
8.406015999999997,9.461912440699557,0.0934324624099422
8.408399999999997,9.473698415326188,0.0930672322250272
8.410779999999999,9.481899497340564,0.092715702998789
8.413183999999998,9.485304981929197,0.0923924547786605
8.415572000000001,9.494996308010792,0.0920193705732746
8.417951999999996,9.507620900398583,0.0916297931840405
8.420348,9.517451996107042,0.0912533454364554
8.422735999999997,9.524070286255585,0.0909049542358243
8.425116,9.530828346030988,0.0905531560148144
8.427519999999998,9.541311068045502,0.0901863558765161
8.429908000000001,9.551654020433158,0.089825187015227
8.432287999999996,9.561065807261036,0.089469075899694
8.434684,9.569546428529137,0.0891181251654718
8.437071999999997,9.576304488304537,0.0887692443076884
8.439452,9.584785109572636,0.0884179190992701
8.441855999999998,9.594196896400511,0.0880628582448572
8.444244000000001,9.60346891360153,0.08771333409155
8.44662,9.613672096362324,0.0873599494297091
8.449023999999998,9.62266457430962,0.087021055834767
8.451412000000001,9.62909587300306,0.086715301320398
8.453791999999996,9.63780881169664,0.0863873424979351
8.456196000000002,9.645311045576712,0.0860720918033762
8.458583999999998,9.655187467255544,0.0857601429536749
8.460964,9.665435975986714,0.0854631120499645
8.463368,9.668467477665136,0.0852170172738025
8.465755999999995,9.666935699343282,0.0850146523113118
8.468140000000002,9.667917878447042,0.0848108121095798
8.470536,9.671553784603276,0.0846008187428544
8.472919999999998,9.671697345945876,0.0844257259344407
8.475303999999998,9.66783670579564,0.0842750018381442
8.477699999999995,9.66197396489899,0.0841359421887015
8.480087999999999,9.6538295840022,0.0840181287794733
8.482468,9.646197059784608,0.083911090794214
8.484863999999998,9.641218262619493,0.0837979261106567
8.487252000000002,9.634097595081098,0.0837013016504657
8.489631999999997,9.626976927542705,0.0836045491202929
8.492028000000001,9.620507886310367,0.0835138598546582
8.494420000000002,9.616180715451309,0.0834068917890282
8.496799999999997,9.615066350152166,0.0832759412482998
8.499196000000001,9.616745481532355,0.0831354790941987
8.501583999999998,9.618005304031968,0.0830092374717664
8.503964,9.622338162464636,0.0828637653595865
8.506367999999998,9.628952660897438,0.0826986658717588
8.508756000000002,9.6386401952633,0.082514909526681
8.511135999999997,9.651260995935356,0.0823164360242239
8.513532000000001,9.668445076607684,0.0820775326404589
8.515919999999998,9.685908696533732,0.0818303558420306
8.518303999999997,9.702441150900004,0.0815870838723809
8.520707999999996,9.722186410826188,0.0813205359394397
8.523095999999999,9.740860735565734,0.0810612244731845
8.525476000000001,9.764190888104174,0.0807871487915516
8.52788,9.788731745456111,0.0804999275548136
8.530267999999996,9.813552142061774,0.0802047547574683
8.532647999999998,9.836230668294156,0.0799246725466207
8.535043999999996,9.85811779859362,0.0796424562126129
8.537431999999999,9.880656555199142,0.0793673815615666
8.539815999999998,9.902403915871744,0.0790914904301328
8.542211999999996,9.919867535797794,0.078846823986705
8.544599999999999,9.93076577497715,0.0786529746190922
8.546980000000001,9.937939351917397,0.0784717847522971
8.549375999999999,9.947394568857776,0.0782716052623218
8.551759999999998,9.95470791542488,0.0780867436334164
8.554143999999997,9.952941923819678,0.0779507824414179
8.556540000000002,9.951315701841338,0.0778107941569963
8.558927999999998,9.952762515796053,0.077653658375633
8.561308,9.952579316056688,0.0775225766993733
8.563711999999999,9.953327281877105,0.0773892162517109
8.566095999999998,9.950862442137602,0.0772773490566921
8.568479999999997,9.945324566465043,0.0771826874948785
8.570876000000002,9.94486182747196,0.0770609115011576
8.573263999999998,9.939603491053122,0.0769572942087091
8.575644,9.938349356127118,0.0768341642883392
8.578047999999999,9.936024286014476,0.0767183144282292
8.580435999999995,9.939705518141086,0.0765736218573661
8.582815999999998,9.946971642879944,0.0764230999065936
8.585212000000002,9.954237767618812,0.0762729999993122
8.587599999999998,9.961503892357673,0.076123111751626
8.58998,9.971843053029586,0.0759565984303083
8.592375999999998,9.9846036233285,0.075766340101812
8.594764000000001,9.998295359187193,0.0755736371990705
8.597143999999997,10.009565685418888,0.0754045940971312
8.599540000000001,10.024700443516558,0.0752216301920915
8.601927999999997,10.053710137212285,0.0749779422127977
8.604311999999997,10.077644694228535,0.0747601776521172
8.606708000000001,10.096504114565318,0.0745688950116467
8.609095999999997,10.114711908596044,0.0743716793367341
8.611492000000002,10.129055270760794,0.0741890856510227
8.613888,10.149684474418518,0.0739703030981503
8.616275999999996,10.174038340315352,0.0737421435018859
8.618660000000002,10.194248235092491,0.0735378405796193
8.621056,10.21632046098919,0.0733285545449783
8.623439999999999,10.237973378005307,0.0731344056002884
8.625820000000001,10.260697230208065,0.0729344304294333
8.628224,10.279696420171708,0.0727451474953209
8.630607999999999,10.298043983829292,0.0725505408291435
8.632988000000001,10.3149485252479,0.0723479647692463
8.635380000000001,10.328919800360314,0.0721559426493026
8.637767999999998,10.345312485099726,0.0719439702674184
8.640164000000002,10.36491797539905,0.071713718309367
8.64256,10.38252136495196,0.0714918201995296
8.644943999999999,10.402685933758727,0.0712454202302831
8.647324000000001,10.418194674766603,0.071010100457437
8.649728,10.42211012017656,0.070813367482715
8.652115999999996,10.431100702265988,0.070593831388183
8.654495999999998,10.441162219542052,0.070367602492494
8.656899999999997,10.44936140569856,0.0701452240680705
8.659288,10.45849175741485,0.0699204539408484
8.661667999999995,10.463757677265164,0.0697086742029786
8.664072,10.469582675622918,0.0694811605050493
8.666459999999997,10.475826982861255,0.0692408612124922
8.66884,10.48342176453995,0.0689865870710692
8.671235999999997,10.484777926553914,0.0687370532524354
8.673624,10.481058951888407,0.068508930646889
8.676003999999995,10.480413013155957,0.0682676674497877
8.6784,10.47790474330395,0.0680301903608271
8.680787999999996,10.480052301250836,0.0677846877834895
8.683167999999998,10.486343830317416,0.0675194552471979
8.685563999999996,10.48742045307766,0.0672801314755343
8.687952,10.488217536584187,0.0670501946933453
8.690332000000001,10.493158591210408,0.0668014503898979
8.692736,10.496888941023128,0.066563613564199
8.695123999999996,10.503692326768904,0.0663128553422723
8.697503999999999,10.5124978132611,0.0660537013035365
8.699899999999996,10.520791443074092,0.0657851593395083
8.702288,10.531226943260364,0.0655057871368442
8.704668000000002,10.54673758012611,0.065207466773728
8.707072,10.56439008736513,0.0648986315456842
8.709456,10.58404469535057,0.0645835727314253
8.711839999999999,10.599834871470035,0.0642793104579755
8.714235999999996,10.618139005015117,0.0639798227214273
8.716624,10.636582908187057,0.0636778506216892
8.719004000000002,10.66568894139714,0.0633511119058159
8.721408,10.701220585727052,0.0629926938735948
8.723795999999997,10.732887798190992,0.0626456974134197
8.726175999999999,10.766557111401353,0.0622933465512428
8.728579999999997,10.792637330506617,0.0619559636651709
8.730963999999997,10.819788484798528,0.0616156497525759
8.733347999999996,10.848941739836851,0.0612691042263711
8.735744,10.873439167076286,0.060928895075104
8.738128,10.895282867263244,0.0605896050902759
8.740508000000002,10.910189099651175,0.0602687593636183
8.742915999999997,10.925095332039104,0.0599492631692588
8.745299999999997,10.941863895546591,0.0596276416896568
8.747683999999996,10.95541965349416,0.0593215490592908
8.75008,10.968044245881956,0.0590174399499367
8.752467999999997,10.97387114009758,0.0587283647614472
8.754847999999999,10.978487329499703,0.0584486564566886
8.757243999999996,10.980310022222495,0.0581718793585338
8.759632,10.983855276437986,0.0578970308984602
8.762012000000002,10.985957508414495,0.0576130623453286
8.764408,10.98591787001773,0.057338892928931
8.766795999999996,10.973074231209544,0.0570951284565472
8.769175999999998,10.959951053147638,0.0568597110928322
8.771571999999995,10.945477400645371,0.0566359583147231
8.773959999999999,10.92807048183691,0.0564179244741241
8.776355999999996,10.914248455640704,0.0561999888025553
8.778747999999997,10.899355494257858,0.0559869255719262
8.781136,10.883251828061514,0.0557819464052126
8.783515999999995,10.869941658544503,0.0555743063155563
8.785912,10.857283115333557,0.0553733769928822
8.788299999999996,10.854774845481549,0.055142772446135
8.790679999999998,10.852406345256403,0.0549089194622053
8.793083999999997,10.852039945777676,0.0546706725281949
8.795467999999996,10.8535358774185,0.0544311017761236
8.797851999999995,10.851819003499411,0.0542041451492892
8.800248,10.853826791819436,0.0539744886738872
8.802632,10.857045284952958,0.0537371201415989
8.805027999999997,10.86585077144515,0.0534976694117727
8.807432000000002,10.872654157190926,0.0532628241518446
8.809819999999998,10.875965198123064,0.0530479985538655
8.8122,10.878065534241708,0.0528408306022354
8.814592000000001,10.887894734092296,0.0526220848093359
8.816979999999997,10.891577862076774,0.0524209570421477
8.81936,10.894329824501474,0.052219437804623
8.821760000000001,10.89880434841887,0.0520208148198203
8.824147999999997,10.902347706776489,0.0518225607005077
8.826528,10.901607324387552,0.051640940363487
8.828923999999997,10.89900461087906,0.0514594477661823
8.831312,10.900126559609676,0.0512773245656869
8.833691999999996,10.89989803389994,0.0511069615805642
8.836088,10.891241796323952,0.0509659854812875
8.838475999999996,10.881235084307606,0.0508367880299899
8.840855999999999,10.868015566731344,0.0507198419294713
8.843256,10.854516509901362,0.0506103887882992
8.845643999999997,10.847815151243552,0.0504916160985647
8.848020000000002,10.842836354078434,0.0503763483601467
8.850427999999997,10.834504981726544,0.0502767613119164
8.852816,10.818816832695042,0.0502013514587473
8.855195999999996,10.80364054034274,0.0501368928909281
