Time,Force,Position
10.391004,6.254434483320009,0.1627178399335793
10.393388,6.264862400074803,0.1626145884232881
10.395784,6.280597770934548,0.162430802379862
10.398168,6.304294322951717,0.1621276302891122
10.400548,6.339304631313087,0.1616157186050708
10.402944,6.381112637846628,0.1609743092012623
10.405328,6.424550658074244,0.1602834243137731
10.407724,6.476136850914389,0.1594244937474663
10.41012,6.521996280769003,0.1586716128235316
10.412508,6.565761062078585,0.1579346835049418
10.414888,6.606500029283356,0.1572238198510744
10.417284,6.648869010182204,0.1564529066829208
10.419671999999998,6.6895626514165984,0.1556609108983991
10.422052,6.721316724105548,0.1550478907159484
10.424448,6.743479601942993,0.1546156987991338
10.426836,6.768715515713494,0.1541242948668763
10.429215999999998,6.794230968737716,0.1536178335127463
10.431612,6.816673385828881,0.1531710898221678
10.434,6.841210451465081,0.152728952331609
10.436396,6.859601445235173,0.1524100310010577
10.438792,6.880553618259119,0.1520222419796392
10.44118,6.904578827216122,0.1515768815744416
10.44356,6.924087978001095,0.1511938593080073
10.445964,6.941222940987313,0.1508349899969257
10.448352,6.955332089868718,0.1504979110516726
10.450728,6.961200518338979,0.1502791840040435
10.455512,6.949238927404458,0.1502142867483118
10.457892,6.945935469903795,0.1501275409033449
10.460296,6.944494343522688,0.1500136965279883
10.462684,6.941051116395164,0.1499346210106583
10.465064,6.939330450760335,0.1498363920212014
10.467468,6.937422793670406,0.1497877976929361
10.469852,6.942312834752643,0.1496283594546407
10.472236,6.951766155835158,0.1493687730678534
10.474628,6.955772253185861,0.1491820336511629
10.477016,6.956705314603509,0.1490509370112318
10.479396,6.959500707140714,0.1488920620044441
10.481792,6.958059580759606,0.1487780605119528
10.48418,6.959459172886077,0.148581483841748
10.48656,6.957645959452631,0.1484490483438578
10.488956,6.950338300459135,0.148431363938773
10.49134,6.948477865197446,0.1483406610993952
10.493736,6.946757199562617,0.1482424346265923
10.496132,6.947830030607125,0.1481054223560534
10.49852,6.956352186129859,0.1478635319858237
10.500904,6.973626918742936,0.1475201858601931
10.5033,6.995557479154903,0.1471130847133681
10.505684,7.016976182887676,0.1467032649547963
10.508064,7.033739058821557,0.1463598607396319
10.51046,7.053155661807912,0.1459848406072705
10.512844,7.068148754420849,0.1456989928224995
10.51524,7.087844896660924,0.1453109134154035
10.517636,7.110381757408576,0.1448555161644614
10.520024,7.127983251103615,0.1444794410803955
10.522404,7.151031968530463,0.1440381443427797
10.5248,7.177525808942706,0.1435610080200098
10.527188,7.2117485130868975,0.1429804794371882
10.529568,7.247461461298308,0.1423615117450667
10.531968,7.281963704696216,0.1417716959587858
10.534356,7.318188509586824,0.1411641620826046
10.536736,7.359348681530043,0.1404782707683948
10.539132,7.401859327913622,0.1397686721618414
10.54152,7.4398539161251716,0.1391110162970741
10.543904,7.471050806164549,0.13855443432685
10.5463,7.497172559524457,0.1380802548779606
10.548684,7.518778254712329,0.1376585083604528
10.55108,7.536147430981893,0.1372751352817554
10.553476,7.547789844265927,0.136968349264363
10.555864,7.557802243855879,0.1367066687719705
10.558248,7.568186730498169,0.1364629924437653
10.560644,7.58592799382007,0.1360977894648209
10.563028,7.599013429343079,0.1357919799259108
10.565408,7.60395069225356,0.1356136638172351
10.567808,7.610330977403017,0.1354342088387757
10.570196,7.615221018485254,0.135295163569788
10.572576,7.621181994754131,0.135138831069587
10.579756,7.602749466729405,0.1350926297091665
10.582152,7.598699939266196,0.1350798158121733
10.58454,7.59413855512379,0.1350566089835728
10.58692,7.587202983182628,0.1350435284143262
10.589316,7.583060907920801,0.1349992865183934
10.591704,7.584226286763926,0.1349065459780651
10.594088,7.587905623032663,0.1347961664966812
10.596484,7.593075203368621,0.1346477132934384
10.598868,7.595963143704441,0.1345401438385427
10.601252,7.602296207025653,0.1344040636349524
10.603648,7.615706507772758,0.1341668384459555
10.606036,7.631538218146859,0.1338830434061
10.608416,7.64071199997565,0.1336808103566891
10.610812,7.65160834329714,0.1334652581450267
10.6132,7.665158413671103,0.1332254558787002
10.615584,7.679639649604846,0.1329758671476315
10.61798,7.695471359978946,0.132697305173252
10.620368,7.710791213673848,0.1324106689337238
10.622748,7.729416420727285,0.1321027104274206
10.625148,7.7509748940869185,0.1317571054287906
10.627532,7.770159179647795,0.1314223722863812
10.629932,7.79069393964903,0.1310613545875665
10.632328,7.811228699650267,0.1307026851667928
10.634716,7.829481819651365,0.1303849822838997
10.637096,7.850248897078077,0.1300536562370434
10.639492,7.866639685959619,0.1297585858037606
10.641884,7.882937927042543,0.1294342451511986
10.644264,7.898956628871747,0.1291239467918274
10.64666,7.9180483666340065,0.1287695990135563
10.649048,7.938490578836625,0.1283884110471478
10.651428,7.9544167328672115,0.1280512500316838
10.653832,7.9635451887256306,0.1277932870570763
10.65622,7.976118767569441,0.1275109755351154
10.6586,7.989903051226752,0.1272082853774805
10.660996,8.003966874137783,0.1268939107709334
10.663384,8.016587674809836,0.1265789989331895
10.665768,8.026135439548835,0.1263055380915247
10.668164,8.032470398727916,0.1260791198835685
10.670552,8.040807458653418,0.1258289193875746
10.672928,8.050215453765555,0.1255647230991159
10.675332,8.06134601037039,0.125289305959079
10.67772,8.067541199922614,0.1250724752170755
10.6801,8.070011727235721,0.12489116520717
10.682508,8.071690858615915,0.1247118350276543
10.684892,8.070064636637571,0.1245494943340115
10.687276,8.068298645032371,0.1243929680310852
10.689672,8.06625311417345,0.1242493952580826
10.69206,8.065418288128027,0.124084300314052
10.69444,8.067796267642521,0.1238744444524104
10.69684,8.0652388801044,0.1237210090781218
10.699228,8.064404054058977,0.1235565846540447
10.701608,8.06878413431989,0.123322537117562
10.704004,8.06785676047585,0.1231276693426917
10.706392,8.062925185138976,0.122980521030567
10.708772,8.05440871718985,0.1228614779796315
10.711172,8.048685745920057,0.1227163141939481
10.71356,8.044453018717485,0.1225368407244134
10.71594,8.04250193151505,0.1223206162468318
10.718336,8.03882828281992,0.1221156858096261
10.720724,8.031429971885675,0.1219448058802938
10.723108,8.023659573899092,0.1217569917131519
10.725504,8.016960111099147,0.1215538709918845
10.727888,8.015056245724955,0.1213019438611592
10.730272,8.015945877030097,0.1210245762386344
10.732668,8.019629005014576,0.120722794098584
10.735056,8.030389370424942,0.1203397217507392
10.73744,8.038356239155974,0.119980434647614
10.739836,8.04525217270037,0.1196367617561775
10.742224,8.04628157363237,0.1193552589118861
10.744608,8.052386111243848,0.1190142296954267
10.747004,8.056488548108906,0.1186960005567967
10.749396,8.060311445720242,0.118391563352259
10.751776,8.070652502250027,0.1180310100933847
10.754176,8.084066594712867,0.1176340400797983
10.75656,8.101065579787964,0.1172109967378487
10.758944,8.116062464116641,0.1168123266736776
10.76134,8.129708874004962,0.1164404993381443
10.763724,8.141073643893144,0.1161025257504144
10.766124,8.150296543408047,0.115792393396174
10.76852,8.165525745162203,0.1154185790918271
10.770908,8.181266803595555,0.1150573871382029
10.773288,8.195005761282493,0.1147162459080737
10.775684,8.20660284859615,0.1144045648277884
10.778072,8.216058065536533,0.1141208831104554
10.780456,8.220717685051163,0.1138818489023672
10.782852,8.219091463072822,0.1137203263154502
10.78524,8.223052234453151,0.1135138093318199
10.78762,8.2260818402737,0.1133147754148376
10.79002,8.234838209079783,0.1130651837932772
10.792408,8.241592477139447,0.1128378737387373
10.794788,8.24848651482597,0.1126041084024327
10.797188,8.253518221392937,0.1123853890449183
10.799572,8.254825265720791,0.1121966447181092
10.801952,8.255852770794926,0.1120205677604312
10.804348,8.255017944749502,0.1118589900060872
10.806736,8.254183118704079,0.1116974971170199
10.809116,8.256281558964853,0.1115089346344944
10.81152,8.26745933739793,0.1112290958994913
10.813908,8.281570382137204,0.1109223127916723
10.816292,8.292328851689701,0.1106629150419077
10.818688,8.302016386055561,0.1104169577021963
10.821072,8.319432784153367,0.1101062677589583
10.823456,8.336709412624312,0.1098016146354673
10.825852,8.356127911468535,0.109472079206928
10.82824,8.381785029977486,0.1091080491201069
10.830636,8.409444249232855,0.108724949606563
10.833032,8.436032533301583,0.1083582346059356
10.835416,8.468347580355843,0.1079501143053181
10.8378,8.499451922596604,0.1075644591677281
10.840196,8.530928351889703,0.1071964455498755
10.842584,8.567060608981691,0.1067996383565795
10.844964,8.604915427566377,0.1063967536929214
10.84736,8.644492807643761,0.105987859381572
10.849748,8.684070187721142,0.105581067568131
10.852128,8.727232460410777,0.1051574007312251
10.854524,8.769835654592972,0.1047563271444904
10.856912,8.810436748028751,0.1043757298126105
10.859308,8.841027337732445,0.1040882336232078
10.861704,8.871478157809278,0.1038080501242246
10.864092,8.900718273072613,0.1035454926832696
10.866472,8.929678849082228,0.1032940450268422
10.868868,8.951701957292812,0.1031028368228957
10.871256,8.975866935876674,0.102889838224967
10.87364,8.999892144833677,0.1026836480725576
10.876036,9.020472230805288,0.1024915665561003
10.878424,9.039189985657336,0.1023113546877951
10.880808,9.056976574949614,0.1021380790655804
10.883204,9.067685926815996,0.1020273120553453
10.885592,9.078674817936106,0.1019068467760981
10.887972,9.08994324830993,0.1017760429059773
10.890372,9.09469351976531,0.1016845689457615
10.89276,9.100374956780469,0.1015880548934432
10.895144,9.106335933049342,0.1014813860474047
10.89754,9.110574347825525,0.1013804206601059
10.899928,9.111879496295506,0.1013013167395457
10.902312,9.116816759205989,0.1011749395522296
10.904708,9.122824957303107,0.1010383007401249
10.907096,9.1339082920797,0.1008593706461279
10.90948,9.14499162685629,0.100681110878584
10.91188,9.155702874580546,0.100487108185747
10.914268,9.16604203525246,0.1002773363364071
10.916648,9.182527267790489,0.1000162021673003
10.919048,9.19836087402246,0.0997516997858781
10.921436,9.215544954694789,0.0994682808774232
10.92382,9.233799970553758,0.0991757069109105
10.926216,9.255267791972638,0.0988537292768082
10.928604,9.273150720779268,0.0985463481518129
10.930988,9.293455059212896,0.098207727639087
10.933384,9.306821929847494,0.0979191109861563
10.935772,9.314601807123424,0.0976597049334428
10.938156,9.325966577011604,0.0973848438724471
10.940556,9.336819490220588,0.0971010192109158
10.94294,9.346321928989214,0.0968383221053231
10.945324,9.357826468504255,0.0965610206071483
10.947724,9.3688191513401,0.0962731763404936
10.950112,9.374085071190416,0.096020638940183
10.952496,9.377348890294313,0.0957832120431539
10.954888,9.376468738278517,0.0955808110458376
10.957275999999998,9.374936959956662,0.0953732967701007
10.959656,9.373125642381083,0.0951757289621136
10.962052,9.373036886298204,0.0949737847827201
10.96444,9.36493972722966,0.0948306024243957
10.966819999999998,9.35390930185492,0.0947064895634581
10.969216,9.337524200546987,0.0946314050478926
10.971604,9.319276768119495,0.0945652470573027
10.973984,9.295814429385672,0.0945426010655435
10.97638,9.275936983264105,0.094506124016123
10.978764,9.256850933075452,0.0944695120890619
10.981164,9.244562581058968,0.0943900020227916
10.98356,9.242005193520852,0.0942485569793818
10.985948,9.238656410049812,0.0941067812325039
10.988328,9.233957152138418,0.0939849480895001
10.990724,9.229816972734463,0.0938428013961909
10.993112,9.224466088517008,0.0937154058307951
10.995492,9.21990660023247,0.09358842072485
10.997896,9.219583630866245,0.093454047588519
11.00028,9.21940043112688,0.0933143984304284
11.00266,9.223221432880347,0.0931467482283206
11.005056,9.225831729820316,0.0929936860313061
11.007444,9.230583897133569,0.0928217742356926
11.009824,9.235475834073672,0.0926454698053328
11.012228,9.246094533999312,0.0924373080771462
11.014616,9.259087421723704,0.0922310894588846
11.016996,9.275293115008012,0.0919956859588599
11.0194,9.290148333851958,0.0917793878090374
11.021788,9.3091475238156,0.0915298372142183
11.024168,9.328705792286682,0.0912615514521193
11.026564,9.344539398518654,0.0910106642894183
11.028952,9.358510673631065,0.0907696055298127
11.031332,9.365684250571311,0.0905701227087528
11.033732,9.373788993071337,0.0903669011867152
11.03612,9.3812421092653,0.0901579393808864
11.0385,9.387484520645769,0.0899633867586187
11.040904,9.394006471279951,0.0897590770460133
11.043288,9.400668191540998,0.0895500982306086
11.045668,9.402813853630017,0.0893567234792996
11.048072,9.406961616465448,0.0891503053166117
11.05046,9.407664256315488,0.0889506085443114
11.05284,9.409717370605886,0.0887318609283448
11.05524,9.409908153776728,0.0885214527727415
11.057624,9.41009893694757,0.0883116575732356
11.060008,9.410988568252714,0.0880783161235126
11.062404,9.41029540769202,0.0878430360675233
11.064792,9.410952721571684,0.0875896339938469
11.067172,9.415754006571046,0.0873062658575576
11.069572,9.419484356383766,0.0870322290791544
11.07196,9.42000190063657,0.0867843186137437
11.074344,9.425175272688268,0.0865174676538142
11.07674,9.428626083247268,0.0862530156289054
11.079128,9.436081095299103,0.0859642419010198
11.081508,9.44288448104488,0.0856702319834458
11.083912,9.450758801977296,0.0853679369566396
11.0863,9.461706158842764,0.0850459194914726
11.08868,9.471722350148458,0.0847277630642817
11.091076,9.48173854145415,0.0844101924783301
11.093464,9.496038473506395,0.0840589650661899
11.095848,9.510478175185504,0.0837045820185035
11.098244,9.527571603917082,0.0833450582242825
11.100632,9.544385493394945,0.0829959714599207
11.103012,9.561199382872802,0.0826468969174904
11.105412,9.57400907085783,0.0823208501570211
11.1078,9.583466183656082,0.0820253261687873
11.110184,9.593202835708055,0.0817201185931854
11.11258,9.60708345887972,0.0813908864820698
11.114968,9.618310354998911,0.0810677110613274
11.117348,9.633820991864656,0.0807153874817801
11.119744,9.654266995783011,0.0803392953350437
11.122132,9.673269977462391,0.0799572433954821
11.124512,9.697068556567524,0.0795568559924858
11.126907999999998,9.71886503492624,0.0791691707157173
11.129296,9.740521743658094,0.0787872227628839
11.13168,9.761759143509371,0.0784199182971138
11.134076,9.782065377800867,0.0780579268468383
11.136464,9.801300676905724,0.0777029187533116
11.13886,9.820535976010582,0.0773487552348935
11.141255999999998,9.838420800675085,0.0770124904016068
11.143644,9.854163754966306,0.0766916696623567
11.146028,9.86776483888425,0.0763859284631288
11.148424,9.880574526869276,0.076078546820298
11.150812,9.894175610787222,0.0757732170578066
11.153192,9.913782996944418,0.0754386814276446
11.155588,9.93553225347489,0.0750905675637968
11.157979999999998,9.959004071498056,0.0747427959204283
11.16036,9.970695602468204,0.0744739308233833
11.162756,9.982898990117548,0.07421626772713
11.165144,9.985883269967724,0.0740090229351494
11.167523999999998,9.984863348325067,0.0738215071904697
11.16992,9.982353182615192,0.0736544734832559
11.172304,9.975978585039345,0.0735020937203096
11.174684,9.968253513023132,0.0733654758389626
11.177084,9.959177966566566,0.0732446060849852
11.179468,9.95038195936372,0.0731146634803494
11.181864,9.939304312160736,0.0730028273384157
11.184264,9.931951327196863,0.0728813901761929
11.186648,9.925249968539053,0.0727665760194736
11.189032,9.918548609881238,0.0726517060324092
11.191436,9.91464074790276,0.0725299610454758
11.193824,9.913014525924416,0.0723903113
11.196204,9.91604413174497,0.0722398982147082
11.1986,9.91986513349844,0.0720919260631631
11.200988,9.917400293758936,0.071979411266999
11.203368,9.91558708032549,0.0718738352175677
11.205764,9.913354558011466,0.0717816094140048
11.208152,9.91927020830997,0.0716496704578008
11.210532,9.923323527488916,0.0715218967171785
11.212928,9.935105710399812,0.0713677216978464
11.215316,9.949541620363178,0.0712118653464944
11.217696,9.96691079663274,0.0710456141727005
11.220092,9.98386066402172,0.0708924879176724
11.22248,10.00402333697062,0.0707202765035967
11.224876,10.025256945106156,0.0705414535219989
11.227272,10.049004510667308,0.0703662130388353
11.229656,10.074614407348015,0.0701870560712501
11.23204,10.101155469588502,0.0700074772954121
11.234436,10.12676536626921,0.069830432993213
11.236824,10.15623969481589,0.0696425737152783
11.239208,10.183991461869876,0.0694555654920873
11.241604,10.211184150416418,0.0692867618098325
11.243992,10.233441471910348,0.0691372810556964
11.246372,10.255838563031142,0.068984226409017
11.248768,10.284521495644904,0.068798854797111
11.251156,10.31213349307203,0.068620690857319
11.253536,10.339093864193096,0.0684363858070676
11.255932,10.364191904194607,0.0682567171747667
11.25832,10.395296246435368,0.0680545944326926
11.260704,10.423607091996796,0.067859138008552
11.2631,10.448333044945969,0.0676669872084603
11.265488,10.470125731588944,0.0674848725000121
11.267872,10.495922619724755,0.0672880666489502
11.270268,10.51864647192751,0.0671054956128951
11.272656,10.543791733757262,0.0669040105202719
11.275052,10.564420937414983,0.0667073570775008
11.277448,10.58239641402023,0.0665116703754599
11.279832,10.595855832453449,0.0663207431843215
11.282212,10.608803394207465,0.0661192384293413
11.284612,10.617234897789452,0.0659226942358027
11.286995999999998,10.627528732490992,0.0657237553769223
11.28938,10.63852141532684,0.0655050868396181
11.291776,10.649653867789542,0.0652821234567523
11.294164,10.661205629132828,0.0650478568701058
11.296544,10.66675108823686,0.0648350495258227
11.29894,10.667920258795723,0.0646210433205904
11.301328,10.671510838981586,0.0643885624729851
11.303708,10.673378857674749,0.0641546611771865
11.306108,10.672453379688578,0.0639262244763909
11.308496,10.67073650576949,0.063695046629942
11.310892,10.673954998903014,0.0634494789637101
11.313292,10.679594901663537,0.0631854683612468
11.315676,10.679927350319108,0.0629215253235362
11.31806,10.68282097822854,0.0626352713970252
11.320456,10.68371250539155,0.0623564013413172
11.322844,10.6856749677412,0.0620717876115179
11.325228,10.69378350195696,0.0617649868195527
11.327624,10.705896237665558,0.0614461571768749
11.330008,10.719731534866847,0.0611296189884977
11.332392,10.73342706244128,0.0608171134384959
11.334788,10.74325815814974,0.0605134127592224
11.337172,10.74987644829828,0.0602250520349573
11.339556,10.758496839193237,0.0599309403516888
11.341952,10.766186064528418,0.0596388032043381
11.344336,10.780161131356572,0.0593215104042171
11.346732,10.797860860423835,0.0589996902201866
11.349128,10.813139179864104,0.0586969005191144
11.351516,10.834144262289902,0.0583858571793271
11.353896,10.853007474342428,0.0580851258323303
11.356296,10.8737330175145,0.0577832650661797
11.35868,10.888731797701046,0.0574912391443882
11.36106,10.902380103447234,0.0572125807836654
11.36346,10.920684236992312,0.0569303184671959
11.365848,10.936566960910396,0.0566658928036041
11.368227999999998,10.952170145574756,0.0564097299215726
11.370632,10.970706596545314,0.0561483595546241
11.373016,10.982305579716842,0.0559045307907145
11.375396,10.99269385807487,0.0556702234304203
11.377792,11.000428409380426,0.0554342939584487
11.38018,11.011096226992176,0.05519329400705
11.38256,11.02604778535048,0.0549352491070962
11.384964,11.043280983708922,0.0546647889241345
11.387352,11.05800022464175,0.0543889089243807
11.389732,11.070298055947577,0.0541293104596612
11.392132,11.08152495206677,0.0538759161782644
11.394516,11.09396255299946,0.0536153193407087
11.3969,11.104025966133394,0.053344631253377
11.399296,11.10850238590866,0.0530774514490853
11.401684,11.113398114564504,0.0527989250310784
11.404064,11.117642216914293,0.0525139452639252
11.406467999999998,11.122817484823855,0.0522277093559716
11.408856,11.123476694561392,0.0519384648846732
11.411236,11.120131702806091,0.051658224723142
11.413632,11.114924379931235,0.051377748434551
