Time,Force,Position
10.431632,7.004354220951756,0.152822421941931
10.434027999999998,7.011384236549403,0.1527376177634392
10.436415999999998,7.024932411065497,0.1525599605120201
10.4388,7.037549420021812,0.1523958166354934
10.441195999999998,7.045510601179236,0.1522994257348277
10.443583999999998,7.059757623829633,0.1520839443477006
10.445964,7.075355120920388,0.1518332125472551
10.448363999999998,7.090580530958806,0.1515647519702193
10.450748,7.106365019504663,0.1512645446302734
10.453143999999998,7.116050658012653,0.1510341234500933
10.45554,7.120009533535113,0.1508914023508292
10.457928,7.131976812043238,0.1506097120490125
10.460311999999998,7.146924578685804,0.1502389029983902
10.462708,7.160988401596834,0.1498401316697869
10.465096,7.17239849745539,0.1494765583799151
10.467479999999998,7.1903267522323935,0.1490226622347194
10.469876,7.210908734061873,0.1485387917530278
10.472264,7.230839089585294,0.1480535534502478
10.474643999999998,7.252539228429653,0.1475151164991036
10.47704,7.276009150594955,0.1469199666581747
10.479428,7.295242553841945,0.1463703599104027
10.481811999999998,7.31009966854376,0.1458768956144182
10.484208,7.317275141341873,0.1454594207132277
10.486596,7.322775274475534,0.1450183377769828
10.488975999999996,7.326832385370218,0.1445773989964568
10.491371999999998,7.331541122570958,0.144142719108646
10.493759999999998,7.338251960518119,0.1436801728637358
10.49614,7.346033733651918,0.1431987671795201
10.498544,7.353024110852796,0.1427209336480799
10.500932,7.363599380665928,0.1421999869701576
10.503311999999998,7.382322823091589,0.1415490048954436
10.505712,7.399603243278273,0.1409063033939262
10.5081,7.416184815330656,0.1403025271369057
10.510479999999998,7.433278244062238,0.1397083591114079
10.51288,7.448649111301123,0.1391295487432689
10.515263999999998,7.457921128502138,0.138613221900284
10.517644,7.465750123464176,0.1381005728319856
10.520040000000002,7.4726479528664385,0.1375983881429317
10.522424,7.472980401522008,0.1372143898728243
10.524819999999998,7.471682836483499,0.1368783235882103
10.527216,7.471828293683965,0.1365414680887701
10.529604,7.471694211630711,0.1362201290694681
10.53198,7.476727814055546,0.1358534667255769
10.534376000000002,7.482365820958196,0.1355275276743655
10.61562,7.477296371852324,0.1352658751065172
10.618,7.487491971181639,0.1351867276369511
10.620396,7.4963370960706,0.1351396329076309
10.622784,7.509046652825534,0.1350433412374033
10.625164000000002,7.529345303685553,0.1348562859413674
10.627568,7.550435350478494,0.1346644175173225
10.629952,7.564867468726122,0.1345550702767974
10.632332000000002,7.58102214846645,0.134433276084579
10.634732,7.593032857087084,0.1343730507383754
10.637116,7.607325205707853,0.1342715001780529
10.639500000000002,7.624038963955621,0.1341233213555544
10.641896,7.640892491830249,0.1339704424632532
10.644284,7.661238364518514,0.133753071132437
10.646676,7.692945215379221,0.1333695153531764
10.64908,7.718925303254397,0.1330551660576565
10.651468,7.7431828296368765,0.13275594328528
10.653848,7.769721996019494,0.1324179747614532
10.656244,7.799613737588885,0.1320212961343609
10.658632,7.832159206210756,0.1316042038138009
10.661012,7.867126084459622,0.1311408254543896
10.663416000000002,7.899019926775432,0.130724370929892
10.665804,7.924255840545936,0.1303883362431622
10.668184,7.94977129357016,0.130039009386764
10.670584000000002,7.974914659542045,0.1296776169292248
10.672972,7.992608701035703,0.1293944120429791
10.675352,8.01193275622344,0.1290697071668153
10.677756,8.033398681784455,0.1287120470124684
10.680144,8.052490419546714,0.128365796670703
10.682524,8.07414333656283,0.127964899909475
10.684928,8.091280195406918,0.1276050344202619
10.687316,8.105483787944808,0.1272827718954821
10.689696,8.120618546042477,0.1269546341259746
10.692092,8.13403074264745,0.1266403649553345
10.69448,8.141576406640032,0.1263967177484247
10.69686,8.152614415446253,0.126094214726431
10.699255999999998,8.16379219387933,0.1257857548042119
10.701644000000002,8.17324741081971,0.1254903167029443
10.704024,8.182330540707756,0.1251795576491509
10.706423999999998,8.191181353170322,0.1248489537305283
10.708808,8.200963331192666,0.124511946932134
10.711188,8.208231351789395,0.1241869757874688
10.713584,8.215918681266704,0.1238428989095285
10.715972,8.226167189997872,0.1234524963669233
10.718356,8.233063123542264,0.1231133063574521
10.720748,8.244894424139266,0.1227196492884894
10.723136,8.254723623989854,0.1223497013412203
10.72552,8.262550723094025,0.1220020903951586
10.727916,8.268375721451779,0.1216770775708713
10.730304,8.279275856489003,0.1212942177152878
10.732684,8.293900653765341,0.1208777941412644
10.735088,8.307594285481903,0.1204697293852906
10.737476,8.314909527906876,0.1201133219345877
10.739852,8.322224770331847,0.1197576034536988
10.742252,8.319809048278454,0.1194994022661703
10.744636,8.31324935510537,0.1192928928134539
10.747016,8.302964999693172,0.1191191478111882
10.749416,8.291749478721197,0.118953354889501
10.7518,8.281185584055278,0.1187914236318904
10.7542,8.26447561752325,0.1187034975347466
10.7566,8.243761449498388,0.1186604646581539
10.758988,8.224769842966221,0.1186073709610079
10.761368,8.20922335941945,0.1185330012712706
10.763768,8.19097592699196,0.1185113290551168
10.768536,8.151455248032168,0.1184682543099733
10.77094,8.1317647933657,0.1184425406933004
10.773324,8.117149475378707,0.1183576256632921
10.775708000000002,8.10425671888441,0.1182627911072929
10.778104,8.085217890524,0.1182393588018226
10.780492,8.066318831790452,0.1182087821035429
10.782872,8.051284204922878,0.1181402406058245
10.785268,8.041417262533393,0.1180435152796516
10.787655999999998,8.031270780890187,0.1179587921089563
10.790036,8.037513192270653,0.1177179222179393
10.792436,8.051344697756205,0.1174103929715116
10.794823999999998,8.073976002160345,0.1170175393880354
10.797204,8.099121263990098,0.116615683384744
10.799600000000002,8.125057921752768,0.1162156724290901
10.801988,8.158723443247387,0.1157448186564896
10.804368,8.196253396607979,0.1152390368870132
10.806772,8.238858486648041,0.1146827435788225
10.80916,8.27960124556855,0.114146588690491
10.81154,8.31876121262322,0.1136119397394298
10.813936000000002,8.356291165983812,0.1131129190344473
10.816324000000002,8.397825320837237,0.1125733467032214
10.818708,8.44001110199672,0.1120436662355771
10.821103999999998,8.479123847223146,0.111552363941163
10.823488,8.518376362076435,0.111056208985438
10.825872,8.55963097767614,0.1105392182704195
10.828268,8.59795232696965,0.110050376627169
10.830656,8.631338309210548,0.1096107519888937
10.833036,8.662489873279553,0.1091704664229028
10.835439999999998,8.691918875855862,0.1087376206595631
10.837828000000002,8.716971589886995,0.1083355870734528
10.840208,8.737787784999819,0.1079542753960195
10.842604,8.752178368992816,0.1076496453063543
10.844992,8.762052894813777,0.1073719430388211
10.847372,8.770065089515182,0.1071083673824328
10.849768,8.772210751604199,0.1068956690386418
10.852156,8.772633852200519,0.1066907368396908
10.854552000000002,8.767981816117365,0.1065348488416703
10.856948,8.763329780034212,0.1063792063323647
10.859336,8.762402406190173,0.1061988025563899
10.861716,8.766689938652467,0.1059654972730563
10.864112,8.771117240741619,0.1057280697544222
10.866499999999998,8.77074894540502,0.10552643999257
10.868884,8.7701011108147,0.1053359574333652
10.87128,8.770384441784158,0.1051397633901154
10.873668,8.771738707940255,0.1049324604967641
10.876052,8.77467576596219,0.1047238774350635
10.878448,8.780546090290319,0.104491765256663
10.880836,8.785857336111007,0.1042815115371337
10.883216,8.796615805663503,0.1040419231194004
10.885616,8.805744261521923,0.1038371165959179
10.888004,8.8131029340594,0.1036711471082414
10.890388000000002,8.822743246597016,0.1034771268490344
10.892784,8.83890171805308,0.1032431356261543
10.895176,8.853849484695646,0.1030258186681833
10.897556000000002,8.873732618390823,0.1027695849478017
10.899952,8.896269479138477,0.1025036811464387
10.902336000000002,8.922810541378961,0.1022058777996987
10.904716,8.94856020768653,0.1019097914894607
10.907108,8.974309873994098,0.1016163653681173
10.909492,9.000850936234585,0.101327005089919
10.911888,9.023387796982236,0.1010706703275563
10.914280000000002,9.052582586275197,0.100772331745949
10.916668,9.085921346687853,0.1004394395353064
10.919060000000002,9.118049402287006,0.1001233918960391
10.921456,9.147756048259165,0.0998394150977957
10.923839999999998,9.175460593484909,0.0995701855012502
10.92622,9.20288559945693,0.0993127374090382
10.92862,9.2363169076682,0.0990105780410389
10.931008,9.26509238808058,0.0987362181707985
10.933384,9.291074371813624,0.0984769475793326
10.93578,9.318267060360167,0.0982016472650562
10.938164,9.34545974890671,0.0979279856815763
10.940556,9.367717070400642,0.0976918184376165
10.942952000000002,9.389974391894576,0.0974549302556451
10.945336,9.409018907828594,0.0972502834658781
10.947731999999998,9.419123855217164,0.0971112181565741
10.950124,9.424153665926264,0.0970133616623915
10.952512,9.428484628501062,0.0969413840002435
10.966852,9.400925540475788,0.0969285277844351
10.969232000000002,9.395385768945362,0.0969269246857258
10.971628,9.396131838907904,0.0968710227103262
10.974016,9.395295117004611,0.0968146298202365
10.978796,9.376953240920631,0.0968133282368576
10.981184,9.369318820845177,0.0968004812916824
10.983564,9.36354673188927,0.0967779794070286
10.985968,9.357774642933368,0.0967553541261679
10.988352,9.352282093231183,0.0967226046739333
10.990732,9.348931413902276,0.09667029657341
10.993136,9.344789338640451,0.0966176214530251
10.99552,9.348143809685098,0.0964960291266633
10.9979,9.35485085591652,0.0963399631600315
11.000304,9.3611858150956,0.096168167841032
11.002688,9.365937982408848,0.095995436772057
11.005068,9.371249228229535,0.0958017355413639
11.007460000000002,9.37390674699775,0.0956176549082463
11.009848000000002,9.377123344273402,0.0954134301451636
11.012244,9.383832286362694,0.0951685160256204
11.014648,9.39175193326548,0.0949100433240313
11.017032,9.393432960503542,0.0946746630610538
11.019412,9.39124955587563,0.0944637978231249
11.021808,9.387203820128162,0.0942613485653665
11.024192,9.386650429194328,0.0940194327128071
11.026572000000002,9.390380779007048,0.0937394046675164
11.028963999999998,9.397883012887124,0.0934123367181586
11.031351999999998,9.400077792662252,0.0931015803254107
11.033748,9.401481176504465,0.0927908380223231
11.03614,9.407168301093227,0.0924438016823651
11.038528,9.414485439376072,0.0920695410022545
11.040908000000002,9.423292821726134,0.0916713759154725
11.0433,9.432751830382252,0.0912809878718581
11.045687999999998,9.441000134224875,0.0909056267848766
11.048084,9.450598912507855,0.0905117109816661
11.05048,9.463410496350752,0.0900911393677139
11.052868,9.479015576872982,0.0896589406228081
11.055248,9.494480887768356,0.0892313821287975
11.057644,9.508875263477089,0.088813250891249
11.060028,9.528065236611573,0.0883731098900304
11.062424,9.543390777880084,0.0879546141134135
11.06482,9.562301211760849,0.0875254405916012
11.067208,9.579209544895193,0.0871086955308185
11.069588,9.599051144335734,0.0866747555258845
11.071984,9.618333665268835,0.08626125160076
11.074368,9.635474315828658,0.0858672253190592
11.076747999999998,9.646701211947848,0.0855367577901961
11.079144,9.662583935865934,0.0851871821223878
11.081528,9.67567316310468,0.0848483459381861
11.083924,9.68033467847718,0.0845728247529997
11.08632,9.679361978662769,0.0843496414160794
11.088708,9.67890113552755,0.0841376983936631
11.091088,9.676438191645918,0.0839382726290066
11.093492,9.673183851831368,0.0837375098877963
11.09588,9.671512303882652,0.0835397549177841
11.098256,9.665417245560525,0.0833796192030765
11.100656,9.658251252051755,0.083227786344265
11.103044,9.65001432335635,0.0830837830191469
11.10542,9.641497855407223,0.0829490435375125
11.107824,9.626835315591984,0.0828538585770054
11.110212,9.613895337269444,0.0827562787237674
11.112592,9.60202629413354,0.0826504175782699
11.114992,9.594161452490471,0.0825215987755972
11.11738,9.592163143459796,0.0823644340235183
11.11976,9.591375539242616,0.0821948941956058
11.122156,9.590587935025438,0.0820254776657786
11.12454,9.589288474129058,0.0818443893951546
11.126936,9.58798901323268,0.0816637582054878
11.129332000000002,9.589343279388777,0.0814779450302311
11.131716,9.596052221478065,0.0812519140335276
11.134096,9.609047005060328,0.0809837971737175
11.136492,9.619388061590117,0.080720584084458
11.13888,9.627866787000343,0.0804633953693795
11.14126,9.635274577223935,0.0802136005945571
11.143656,9.640959805954832,0.079966280777172
11.146044,9.656935077671532,0.0796576419092729
11.14844,9.669837313455178,0.0793668392733219
11.150836000000002,9.691958657037986,0.0790240742763055
11.153224000000002,9.716361640620931,0.0786623131979683
11.1556,9.742766724950297,0.0782897177363712
11.157996,9.76931157890652,0.07791338178103
11.16038,9.791712461743051,0.0775633511454923
11.162776,9.815184279766225,0.07720930485453
11.16518,9.830135838124528,0.0768871670814948
11.167564,9.839360633497298,0.0765852110567685
11.16994,9.848585428870074,0.0762837704553023
11.172344,9.860883260175903,0.0759646792538036
11.174728000000002,9.872529465175674,0.0756402770232606
11.177108,9.885386374988943,0.0753050981510951
11.179512,9.90010561592177,0.0749663244564493
11.1819,9.91175182092154,0.0746461115964254
11.18428,9.92540012666773,0.0743164231890038
11.186672000000002,9.942261237973833,0.0739662286713017
11.189056,9.963126550772772,0.073598004418534
11.191436,9.982781158758211,0.0732416723860804
11.193840000000002,9.991633867078646,0.0729317203794127
11.196228,10.006492877638332,0.0725947794755391
11.198604,10.009479053346382,0.0723091929034525
11.201008000000002,10.012604998681288,0.0720202127186508
11.203396,10.016290022523634,0.071714043574404
11.205772,10.018112715246422,0.0714120076891609
11.208176000000002,10.021285882409572,0.0710939540568582
11.210564000000002,10.017521581773693,0.0708042423538367
11.21294,10.017202404123204,0.0705144727349919
11.215344000000002,10.026753960577944,0.0701864780742572
11.217732000000002,10.03630551703268,0.0698590099948381
11.220112,10.047579634980115,0.0695331120469121
11.222508,10.058574213673827,0.0692167048944578
11.224892,10.067566691621124,0.0689092328036723
11.227288,10.076419399941564,0.068607864768949
11.229684,10.084992569008277,0.0683154721126353
11.232068000000002,10.090213162888215,0.0680455668513395
11.234448,10.09501444788758,0.0677895522707049
11.236852,10.095671761767244,0.0675541029038687
11.23924,10.095397910087131,0.0673199694006709
11.24162,10.10043151251197,0.0670832607028678
11.244015999999998,10.101460913443972,0.0668631001147506
11.246403999999998,10.10886870366756,0.0666342482968537
11.248784,10.114786249823934,0.0664249853336366
11.251188,10.120936113405785,0.0662360495426516
11.253571999999998,10.13467507109272,0.0660304611945477
11.255952,10.147854950272215,0.0658418907702067
11.258356,10.166482053183518,0.0656474332454082
11.260739999999998,10.184038220908183,0.0654594271993708
11.26312,10.19502900788616,0.0653121821575465
11.26552,10.20760258672997,0.0651707787522249
11.267904,10.218825691133423,0.0650442676004554
11.270284,10.231491817775852,0.064927717552393
11.272688,10.246671901843897,0.0648153425742781
11.275072000000002,10.257568245165384,0.0647260370186479
11.277456,10.266742026994176,0.064635553408123
11.279852000000002,10.281782341435358,0.0645276706186414
11.282240000000002,10.293889389570346,0.06442861970689
11.28462,10.310792035131085,0.064318205172356
11.287016,10.333561213304211,0.0641913861131351
11.289404,10.354607829984648,0.064063916481191
11.2918,10.377516777784637,0.0639339869017783
11.294196,10.397771998532154,0.0638046349406766
11.29658,10.418027219279669,0.063675480123346
11.29896,10.437491044094264,0.0635440133300636
11.301355999999998,10.448946465923196,0.0634409610802685
11.303744000000002,10.46361469331204,0.0633217720321309
11.306128,10.479633395141242,0.0631899640735884
11.30852,10.495791866597308,0.0630543049500467
11.310908,10.516513618053644,0.062889590292226
11.313300000000002,10.53365047689773,0.0627262431779494
11.315704,10.552557119062756,0.0625383080191745
11.318088,10.573093774921858,0.0623303887647025
11.320468000000002,10.592978804474903,0.0621166713644165
11.322872,10.616495948468447,0.0618754530442092
11.325256,10.642946358768189,0.0616270381911809
11.327635999999998,10.66767420757523,0.0613785732119052
11.33004,10.697477193061744,0.0611133220609235
11.332428,10.724626451495787,0.0608489429853567
11.334803999999998,10.743627537317298,0.0606136147395627
11.337212,10.76276839276567,0.0603748252148722
11.339596,10.78311995302754,0.060128368777472
11.34198,10.803471513289413,0.0598818730800287
11.344376,10.822240281685444,0.0596294934785901
11.34676,10.8400778845217,0.0593783031483494
11.349139999999998,10.857263861051898,0.0591192161242813
11.351536,10.87072517534298,0.0588647035380462
11.353924,10.879251122581454,0.058623686529468
11.356304000000002,10.888056609073644,0.0583751545249276
11.358708,10.892718124446146,0.058142996893402
11.361092,10.901523610938344,0.0578958094301998
11.363472000000002,10.907907687803537,0.0576669404134318
11.365863999999998,10.90921662798926,0.057454529397153
11.368251999999998,10.909594402615207,0.0572433096118349
11.370648,10.909552868360574,0.0570442744604221
11.373044,10.909511334105936,0.056845731103102
11.375432,10.907607468731744,0.0566488293544213
11.377812,10.8984865963048,0.0564762405684261
11.380208,10.890576428691356,0.0562953168535797
11.382592,10.88708977145133,0.0560916999310802
11.384972,10.882392409397804,0.0558963650941191
11.387376,10.87462201141122,0.0557109373732575
11.389764,10.870995584544332,0.0555117284759173
11.392143999999998,10.873095920662976,0.0553054179696405
11.394536,10.878129523087813,0.055093836084769
11.396924,10.887027557378625,0.0548759466183452
11.39932,10.898719088348768,0.0546565080133075
11.401724000000002,10.911341784878692,0.0544362056580761
11.404108,10.921403302154756,0.0542359381024603
11.406488,10.93132504980396,0.0540393253527039
11.408884,10.93868561819931,0.0538634649376206
11.411268,10.946977352154434,0.0536874392031205
11.413647999999998,10.954198150922922,0.0535151211540549
11.416052,10.962210345624328,0.0533465123807409
11.41844,10.972224641072152,0.0531740076795095
11.42082,10.97916590058692,0.0530105275174964
11.423216,10.985967390474826,0.0528507815841335
11.425604,10.999194491482566,0.0526655817673318
11.427984,11.010139952490167,0.0524930506063764
11.430388,11.02481007573688,0.0523200812084803
11.432772,11.04255323491665,0.0521389285376682
11.435152,11.05908568928292,0.0519653681707937
11.437544,11.07119463327578,0.0518126695565164
11.439932,11.075295174282966,0.0516778569253166
11.442328,11.077533384170598,0.0515440729846381
11.444724,11.080051133311953,0.0514032542204451
11.447112,11.083639817639945,0.0512590044686468
11.449492,11.087228501967934,0.0511146319160849
11.451896,11.091655804057089,0.0509475515832299
11.45428,11.095291710213322,0.0507766508862625
11.456664,11.097484594130584,0.0505947964444914
11.45906,11.096092585435589,0.0504098576272494
11.461448,11.097773612673649,0.0502164745824242
11.463824,11.09265694173954,0.0500311302650852
