Time,Force,Position
10.20102,5.548726247907139,0.170073859916391
10.203408,5.606256354295337,0.1700522814359142
10.205788,5.656061388667326,0.1699049158572676
10.208184,5.698188572851351,0.1695986487086083
10.210572,5.732218597966829,0.1691826177545921
10.212964,5.750700243677667,0.1689505955955473
10.215368,5.762291643417719,0.1688384867091408
10.217756,5.77444212166521,0.1686890098101787
10.220136,5.791155879912978,0.1684008575652005
10.222532,5.808568486295045,0.1680620267041936
10.22492,5.818671537825747,0.1678663199148813
10.2273,5.827284345289231,0.1677266821676356
10.229704,5.838131570924605,0.1675682182627714
10.232092,5.84772086991824,0.1674970730902227
10.234471999999998,5.860987609322745,0.1673962439167882
10.236876,5.883566004325033,0.1670941929957387
10.239264,5.910520687872492,0.1667237453264462
10.241644,5.933843256979453,0.1664732116718958
10.244048,5.956094890899778,0.166253367197111
10.246436,5.976763732954267,0.1660552972540613
10.248816,5.998830271277357,0.1657644242528881
10.25122,6.019873096242052,0.1654587307050479
10.253608,6.042685704527687,0.1650834249674732
10.258388,6.059305019118967,0.164902930605924
10.260772,6.067218978448149,0.1648187724446656
10.265556,6.078855704158574,0.1647989081885305
10.267944,6.09175035651074,0.1646985080657296
10.270324,6.107531053340862,0.1645854322421245
10.27272,6.124754772409956,0.1644627589020045
10.275104,6.145470836292687,0.1642408238881174
10.277488,6.169120166481613,0.1639601400403157
10.279884,6.195190906297538,0.1636045286618009
10.282272,6.221448637568567,0.1631918335879476
10.284648,6.247613821040976,0.1627499716605229
10.287056,6.267400615221797,0.162423870133433
10.28944,6.289329279775896,0.1620450622194219
10.291824,6.310047239516496,0.1616994820752133
10.29422,6.329554494443597,0.1613893624463994
10.296604,6.343567303810648,0.1612191993792363
10.298988,6.355670560229897,0.1611300200500057
10.301384,6.3669351988879885,0.1610969017508961
10.303768,6.388722197957358,0.1608656225384411
10.306148,6.419308995945314,0.1604572158185693
10.308544,6.445100196507518,0.1601458152246419
10.310932,6.469588144457605,0.15983015791203
10.313316,6.494635170915133,0.1594836812241745
10.315712,6.510510311401738,0.1592915300692388
10.318096,6.52429080334331,0.1591055946263877
10.32048,6.54105178341932,0.1588197658291993
10.322876,6.5560902020026335,0.1585588001618042
10.32526,6.56926628946639,0.1583319638510218
10.327644,6.588308909542538,0.1580010782258684
10.33004,6.610936422230937,0.1576227239051426
10.332424,6.629559733426503,0.1573237933883826
10.33482,6.651907706861183,0.1569669444805658
10.337216,6.678259881788697,0.1565416283529468
10.339604,6.707685092649268,0.156056241367175
10.341984,6.738740317203915,0.1555168849715927
10.34438,6.77435882175884,0.1548696305210979
10.346768,6.810304087395728,0.154164067407423
10.349152,6.842152603741164,0.1534992597486887
10.351548,6.872138788967042,0.1528803642265523
10.353936,6.9006819519539455,0.1522761935715217
10.356316,6.930994898261789,0.1516138509844813
10.358712,6.96237877975627,0.1509287784542343
10.3611,6.995345453116586,0.1502424123136825
10.363496,7.03790332132841,0.1494096229761482
10.365892,7.07939025435359,0.1485981929254311
10.36828,7.118455777751778,0.1478509191369991
10.37066,7.158312697082882,0.1471004131134178
10.373064,7.198029846787126,0.146360548168054
10.375452,7.233742794998538,0.1457033974723117
10.377832,7.266290159478275,0.1450756424811322
10.380228,7.300467537652092,0.1443983073776435
10.382616,7.330268627280738,0.1437712982860997
10.385,7.353923645043271,0.1432541778462212
10.387396,7.377066806126606,0.1427312129024365
10.389784,7.400489506463661,0.1421982165878496
10.392164,7.420187544561603,0.141715494225162
10.394568,7.439326504152104,0.1412634030428816
10.396956,7.46670618415375,0.1407165664101773
10.399336,7.488219331543009,0.1402579626308911
10.401732,7.506799212626071,0.1398445573962319
10.40412,7.522817914455272,0.139491786995114
10.4065,7.539767781844256,0.1391286138029753
10.408904,7.552201591061207,0.1388177928592103
10.411292,7.560398881359847,0.1385466908095863
10.413672,7.567153149419513,0.1382754766193293
10.416068,7.57139346005356,0.1380226950333515
10.418456,7.575773540314468,0.137763640310411
10.420836,7.581643864642594,0.1374665233754247
10.423232,7.58392929635847,0.1372069056479553
10.42562,7.579928886581373,0.1370480840315966
10.428,7.572016823110061,0.13697967269068
10.430396,7.567130573743559,0.1369021152975832
10.432784,7.566388295496753,0.1367584800524699
10.435168,7.568439513929285,0.1365828179297966
10.437564,7.566067221988397,0.1364862239808608
10.439952,7.565929348219406,0.1363848360747364
10.442336,7.566443100756476,0.1362866787310288
10.444732,7.55806450657634,0.1362765720515469
10.44712,7.552107322023201,0.1362165391700534
10.449504,7.545079202283425,0.1361742561629811
10.451899999999998,7.538982248103426,0.1361211058695902
10.454288,7.533816459483204,0.1360569807899035
10.456672,7.5278592749300675,0.1359965506073984
10.459067999999998,7.520551615936567,0.1359676095144034
10.461456,7.520413742167575,0.1358669528072111
10.463836,7.524372617690035,0.1357407666927882
10.466232,7.529262658772271,0.1356047522209328
10.46862,7.531359203175175,0.1355008471270213
10.471016,7.535318078697633,0.1353757908278358
10.473412,7.544863947578762,0.1351855506339605
10.475804,7.559764492393086,0.1349062348897696
10.478184,7.575783194222291,0.134573728774102
10.48058,7.590498643439381,0.1342381374698615
10.482968,7.597485228924521,0.1340000704138647
10.485348,7.607265311088998,0.1337295252454001
10.487748,7.615322831760778,0.1334728084069495
10.490136,7.621145934260662,0.1332193100724863
10.492515999999998,7.629343224559303,0.1329542817769917
10.49492,7.6341879396711665,0.132748053040293
10.497308,7.641406842581783,0.1325308696281025
10.499688,7.645692479186207,0.1323514728412182
10.502084,7.645182518364877,0.1322322577354543
10.504472,7.648257450155802,0.1320775741826673
10.506852,7.648259346013673,0.1319685023129769
10.509252,7.640392608512734,0.1319658744102324
10.530752,7.569591971004291,0.131924174004666
10.53314,7.566194069847141,0.1319128123390166
10.53552,7.567871305369462,0.1318313961903199
10.53792,7.574204368690676,0.1317010006980037
10.540304,7.57988580570583,0.1315668326003608
10.542684,7.590362840146738,0.1313764025045058
10.545084,7.59925708272181,0.1311921467719795
10.547472,7.613086692349495,0.1309445088174363
10.549852,7.63171189940293,0.1306401822420647
10.552248,7.648474775336809,0.1303572061331906
10.554636,7.668822543882939,0.1300400741747463
10.557032,7.692103578735267,0.1296839203396248
10.559428,7.708819232840903,0.1294361496121474
10.56182,7.720831837319405,0.1292750973764091
10.5642,7.740061448850655,0.129011665700164
10.5666,7.762364096314961,0.1287054399170365
10.568984,7.779359289674318,0.1284479966375289
10.571368,7.792862138220038,0.1282541829617654
10.573764,7.812231519378149,0.1279884530253981
10.576152,7.833510453484061,0.1276635508396249
10.578532,7.849062624604442,0.1274059428122674
10.580936,7.861122450911186,0.1272125652589403
10.583324,7.870109241284874,0.1270634363303237
10.585704,7.878956262031703,0.1269229022494067
10.5881,7.892319340950563,0.126743800089831
10.590488,7.906753355056062,0.1265513237394493
10.592872,7.926914132147091,0.1263003521078821
10.595268,7.949077009984536,0.1260289473577434
10.597656,7.973521527822118,0.1257255297787755
10.600036,7.997686506405981,0.1254347899908105
10.602432,8.021199858683786,0.1251406630618673
10.60482,8.049928117267921,0.1247824780292474
10.6072,8.084011051785252,0.1243495120866649
10.6096,8.120794935183298,0.1238570566916785
10.611984,8.150501581155456,0.1234536535974324
10.614368,8.176483564888501,0.1230851464976753
10.616764,8.199904369367689,0.1227630043684189
10.619152,8.225746583473873,0.1223983004731641
10.621531999999998,8.248795300900724,0.1220618641456633
10.623932,8.274357975753187,0.1217140195028323
10.62632,8.30257437765813,0.1213464854425764
10.628699999999998,8.333491728443786,0.1209264007223376
10.631096,8.360544647363469,0.1205453175767591
10.633484,8.381870803297623,0.1202216755640889
10.635864,8.398541131432886,0.1199422133745306
10.638264,8.411486797329035,0.119697689948973
10.640652,8.415772433933459,0.1195407266490239
10.643048,8.414471077179211,0.1194336365453354
10.645444,8.407023648558852,0.119400151142067
10.647832,8.399064363259297,0.1193563350485811
10.655,8.36573508213599,0.1193082141004094
10.65738,8.355773696090015,0.1192848189759416
10.659776,8.35023582041746,0.1191999592062742
10.662164,8.35070424698415,0.1190508047378902
10.664544,8.356667119110897,0.1188269500612665
10.666944,8.362909530491365,0.1185922175372716
10.669332,8.368220776312054,0.1183649707626346
10.671712,8.370878295080265,0.1181550591417229
10.674108,8.372092791609502,0.1179425627539925
10.676495999999998,8.368092381832406,0.1177915976356433
10.67888,8.368235943175005,0.117592205296963
10.681276,8.372663245264159,0.1173383308673901
10.68366,8.380303352913227,0.1170447180655514
10.686044,8.388734856495212,0.1167494758776267
10.68844,8.401961957502952,0.1164093808515117
10.690828,8.415840684816748,0.1160725198027956
10.693212,8.433071987317321,0.1156890093915515
10.695608,8.45123445537767,0.11529809681539
10.697996,8.466323887504965,0.1149431007418557
10.700392,8.485277751498232,0.1145514263315188
10.702788,8.500367183625528,0.1141963737472281
10.705176,8.514665219819905,0.1138465194922307
10.70756,8.525750450454366,0.1135376545529579
10.709956,8.531760544409355,0.1132844718931305
10.712344,8.535349228737347,0.1130700360858262
10.714724,8.539869078625118,0.1128498214825948
10.717124,8.542666367020193,0.112637008455794
10.719512,8.545323885788406,0.1124297070686063
10.721892,8.54663093011626,0.1122465604957613
10.724288,8.553292650377307,0.1119985617931878
10.726676,8.559954370638353,0.1117517342625727
10.72906,8.56647632127254,0.1115119749408304
10.731456,8.569785466346811,0.1113109987314851
10.733844,8.572303215488164,0.1111110091354481
10.736224,8.575380043136958,0.1108886729111343
10.738624,8.581018050039608,0.1106242457229391
10.741012,8.583303481755483,0.1104031319567256
10.743396,8.589453345337335,0.1101509558559845
10.745792,8.600538575971795,0.1098557268200193
10.74818,8.609621705859839,0.1095796869140681
10.75056,8.62056716686744,0.109289967148695
10.75296,8.628160052688266,0.1090434966119309
10.755348,8.634961542576173,0.1087971710630987
10.757732,8.643904902837358,0.1085267284754609
10.760128,8.652336406419343,0.1082456409360073
10.762516,8.656344399627915,0.108019327167935
10.7649,8.671945688434407,0.1077017562156176
10.7673,8.68768674686776,0.1073780798240956
10.769688,8.70636107160731,0.1070292730269218
10.772064,8.723684921906498,0.106706402126738
10.77446,8.73672503145913,0.1064306895664269
10.776844,8.750556536944686,0.1061561513988634
10.77924,8.765319207990018,0.1058752580993922
10.781644,8.781013044595127,0.1055883030693494
10.784032,8.797218737879433,0.1053142102179976
10.786408,8.811934187096522,0.1050697020713722
10.788812,8.831724772993082,0.1047790981401564
10.7912,8.843786495157696,0.1045483606662747
10.79358,8.847979583963504,0.1043824380384275
10.79598,8.854035003888864,0.1042046812458471
10.798364,8.861301128627728,0.1040104567939754
10.800748,8.86870702299345,0.1038102747500544
10.803144,8.880908514784924,0.1035757035192172
10.805532,8.891899301762898,0.1033587750386241
10.807912,8.90354171504693,0.1031470979841129
10.810308,8.915603437211544,0.10291775390853
10.812696,8.912998827845183,0.1028047021486547
10.81508,8.91626075109121,0.1026467772583896
10.81748,8.919802213590957,0.1024785317440882
10.819868,8.921201805717429,0.1023325803761817
10.822252,8.92874746971001,0.1021310452153253
10.824652,8.9321491625829,0.1019684659855932
10.827039999999998,8.935411085828928,0.1018113580085113
10.82942,8.940395570567656,0.1016489600825532
10.831816,8.942446789000183,0.1015090257851953
10.834204,8.945708712246212,0.1013530914431951
10.836583999999998,8.945897599559181,0.1012249957967491
10.83898,8.952744415417463,0.1010532342148105
10.841368,8.963455663141717,0.1008532594754897
10.843748,8.974586219746552,0.1006382184627103
10.846144,8.983574905978111,0.1004451364847356
10.848536,8.992982901090251,0.1002358861303825
10.850916,9.002390896202389,0.1000287872937538
10.85332,9.009936560194973,0.099831965122552
10.855704,9.019624094560829,0.0996147850340344
10.858088,9.035038391912218,0.0993619886833842
10.860488,9.058181552995554,0.0990553551362089
10.862876,9.076389347026277,0.0987884277247744
10.865256,9.095668076243644,0.0985133090165336
10.867652,9.117088675834284,0.0982178611796559
10.870036,9.13571577874559,0.0979397159452746
10.87242,9.159977096843807,0.0976014563142862
10.874823999999998,9.18787052938252,0.0972199743344358
10.877208,9.215252105242037,0.0968305858606458
10.879588,9.243704616288191,0.0964312940460233
10.881984,9.27001525696107,0.0960528123158236
10.884372,9.297676372074308,0.0956556958783926
10.886756,9.321612824948428,0.0952795010180764
10.889152,9.349972788195966,0.094862544421437
10.89154,9.376051111443369,0.0944711474353294
10.89392,9.407344340997104,0.0940394030760255
10.896324,9.444224563909506,0.0935847213543007
10.898712,9.476169419769295,0.093164112002015
10.901096,9.509045441188864,0.0927377718218478
10.903492,9.542061232235296,0.0923103965458252
10.90588,9.569350260296195,0.0919165251497605
10.90826,9.59570812279732,0.091529293366836
10.910656,9.620203654178884,0.0911504653068232
10.913044,9.643768020000667,0.0907787626635623
10.915424,9.666540989889532,0.0904077089549076
10.917824,9.688103254964904,0.0900508571447593
10.920212,9.70323990892044,0.0897492133695491
10.922592,9.714232591756286,0.0894802874343456
10.924988,9.721081303472436,0.0892420941288981
10.927376,9.727930015188583,0.0890041775294467
10.929756,9.736780827651152,0.0887535481296654
10.932152,9.742418834553805,0.0885296394120261
10.934539999999998,9.747125675896678,0.0883092689406819
10.936936,9.74554667574658,0.0881377200657839
10.939332,9.747040711529538,0.0879449441384007
10.94172,9.740526344326833,0.0878028633326976
10.9441,9.726003574138453,0.0877110809962462
10.946496,9.713343135069634,0.0876113836447403
10.948884,9.705897602307145,0.0874733079329005
10.951264,9.694308098424962,0.0873646471806584
10.953664,9.685372321595256,0.0872492414754142
10.956052,9.67471398327285,0.0871364349737569
10.958431999999998,9.665778206443145,0.0870206575215258
10.960828,9.6545607896133,0.0869265242303375
10.963216,9.642272437596816,0.0868406187373467
10.965596,9.630123855207191,0.0867497187557201
10.967996,9.623050409497043,0.08662579227898
10.97038,9.614486719719672,0.0865244353746762
10.972764,9.607645591435,0.0864201293698222
10.975164,9.599081901657629,0.0863182134038934
10.977548,9.588795650387562,0.0862187463281082
10.979928,9.58037173023705,0.0861116864832114
10.982336,9.575952011579377,0.0859801670844487
10.984724,9.573534393668115,0.0858362628757913
10.987104,9.565250243144469,0.0857237505341357
10.9895,9.562832625233208,0.0855793937992208
10.991888,9.563488043255006,0.0854139819046004
10.994268,9.564423000530525,0.0852390199468622
10.996671999999998,9.561213986686347,0.0850936934765856
10.99906,9.562009174335005,0.0849245501927037
11.00144,9.5633634404911,0.0847368103609125
11.00384,9.566440268139896,0.0845470217627527
11.006224,9.568725699855772,0.0843558824987757
11.008608,9.570079966011868,0.0841677352954511
11.011004,9.572365397727744,0.0839760563409458
11.013392,9.578655030936453,0.0837617220146014
11.015776,9.579078131532771,0.0835772940615844
11.018172,9.581782872129228,0.0833713294041103
11.02056,9.5877004182856,0.0831411509245654
11.022939999999998,9.598273792240864,0.0828946819677747
11.025336,9.610569727688825,0.082646683733922
11.027728,9.62621823832356,0.0823712714485224
11.030107999999998,9.637443238584884,0.0821329951296756
11.032504,9.648808008473065,0.0818904504235337
11.034888,9.66818118134691,0.0816036865609343
11.037284,9.68555225347434,0.0813293805421155
11.03968,9.703063095228636,0.0810510066988535
11.042068,9.718292296982792,0.0807927814472462
11.044448,9.731379628363667,0.0805499302628177
11.046848,9.740602527878574,0.0803248639993846
11.049232,9.750337284072677,0.0801119630467647
11.051616,9.7603515795205,0.0798906984032764
11.05402,9.773299141274515,0.0796563535802501
11.056404,9.793044401200705,0.0793929795012172
11.058784,9.816654092992865,0.0791150868804826
11.061184,9.83625958329219,0.0788595494803325
11.063572,9.861731606203907,0.0785773337153881
11.065952,9.888554103555984,0.0782799911917122
11.068348,9.913793809042224,0.07798123136913
11.070736,9.936100248222267,0.0776971775520077
11.07312,9.957475521842532,0.0774167707248793
11.075516,9.972564953969828,0.0771759653927338
11.0779,9.992217666097396,0.076897704099771
11.080284,10.011590838971244,0.0766289503564262
11.08268,10.023747004792344,0.076402201662473
11.085068,10.035763400986584,0.0761801937253423
11.087452,10.04964212830038,0.0759539457920505
11.089848,10.06687343080095,0.0757021623305114
11.092236,10.089319639607856,0.0754203721057139
11.094627999999998,10.114838884347815,0.0751225000101044
11.097024,10.135702301288887,0.0748376439548487
11.099412,10.156286178976234,0.0745630859711909
11.101795999999998,10.175147495170885,0.0742905501906961
11.104192,10.188421818006868,0.0740344437430749
11.10658,10.193967277110902,0.0738066871082955
11.10896,10.202725541774852,0.0735593192379146
11.111364,10.210552640879024,0.0733154432791746
11.113748,10.217960431102616,0.0730855279841192
11.116132,10.228021948378682,0.0728544525406117
11.118528,10.236872760841251,0.0726341608507742
11.120916,10.245071946997758,0.0724076362599577
11.1233,10.2596967442741,0.0721425286162787
11.125696,10.2732506063638,0.0718855281529883
11.128084,10.28829471252072,0.071610124286601
11.130464,10.310695595357249,0.0712954036683651
11.13286,10.332444851887722,0.0709744415854794
11.135252,10.35032967655222,0.0706666200013543
11.137632,10.367423105283802,0.070357911529669
11.140028,10.377718835843217,0.0700719644684699
11.142411999999998,10.384941530469572,0.0698005920336952
11.144796,10.394957721775263,0.0695228332771017
11.147192,10.401389020468706,0.0692484664323588
11.149576,10.40768054953528,0.0689787812582918
11.151976,10.413040913042082,0.0687106074660333
11.154372,10.423616182855216,0.0684155897901754
11.156756,10.428697007108294,0.0681554876529171
11.15914,10.431915500241818,0.0678994205148318
11.161544,10.433551201509506,0.067638820808166
11.163928,10.429180600537942,0.0674019251749019
11.166312,10.4245776821409,0.0671451009318609
11.168708,10.424490821915892,0.0668845075207878
11.171096,10.421982552063884,0.0666452983732355
11.17348,10.41919474295816,0.0664149890936263
11.175876,10.414916689785215,0.0662033048473696
11.178264,10.403281859932658,0.0660281555257676
11.180644,10.394720066013155,0.0658399139369499
11.18304,10.386298041720517,0.0656468590066191
11.185428,10.375314838174017,0.0654773443804496
11.187808,10.370477706493627,0.0652815333234868
11.190204,10.367363136305942,0.0650864896194357
11.192592,10.364248566118247,0.0648915009037703
11.194972,10.36471888854281,0.0646943634238115
11.197368,10.365980606900292,0.0645002023214351
11.199756,10.370035821937106,0.0643016535060625
11.202152,10.373671728093342,0.0641161470732921
11.204548,10.38159137499613,0.0639081201147194
11.206936,10.392444288205112,0.0636923689022795
11.20932,10.405811158839713,0.0634813350068429
11.211716,10.426115497273338,0.0632490787187999
11.214104,10.4497251890655,0.0630245371621752
11.216484,10.464535081939076,0.0628243469749481
11.21888,10.476271938879592,0.0626362733346821
11.221267999999998,10.488008795820114,0.062448844789022
11.223648,10.498954256827714,0.0622586503557124
11.226044,10.515766250447706,0.0620527402492331
11.228432,10.526944028880786,0.0618818465023812
11.230811999999998,10.542637865485895,0.061709271571523
11.233216,10.564477773957115,0.0615137242974324
11.235604,10.583616733547617,0.061345938665394
11.237984,10.604897563511395,0.0611684228742164
11.24038,10.627249328661811,0.0609864117333711
