Time,Force,Position
10.244495999999998,6.352107726509653,0.1597766630816169
10.2469,6.36011423363745,0.1597450251244978
10.249288,6.369610984832468,0.1596652297232138
10.251668,6.37580238266895,0.1596207404841716
10.254072,6.387627995692348,0.1594427305019854
10.25646,6.402526644648802,0.1592017409591367
10.25884,6.4207306469637855,0.1589232460368364
10.26124,6.446104434503278,0.1585390439210157
10.263624,6.471710539468245,0.1581813500256421
10.266004,6.503135955217361,0.1577554711057543
10.2684,6.537726954698148,0.1572938936927006
10.270788,6.578696343470527,0.1567306329300879
10.273164,6.624740868922377,0.1560637800564446
10.275564,6.67027353769503,0.1553910385452034
10.277948,6.711709457176233,0.1547728194991577
10.280328,6.747326065873287,0.1542195140162598
10.282732,6.78168664378647,0.1536185883907976
10.28512,6.810088141288646,0.1531016756294609
10.287499999999998,6.831971479872372,0.1526942246454731
10.289904,6.855484832150179,0.1522296256538721
10.292292,6.873131651815594,0.1518740217020601
10.294671999999998,6.885051708495478,0.1516178438880414
10.297068,6.894410585921507,0.1514320586190518
10.299456,6.908937147825623,0.1511867788858137
10.301835999999998,6.918109033796546,0.1510538232320727
10.30424,6.927141150140609,0.15092953306604
10.306628,6.942459107977643,0.1506855013712756
10.309003999999998,6.954611482083006,0.1504668421240777
10.311404,6.968813178763029,0.1501728489694703
10.313792,6.981991162084657,0.1498604033805006
10.316171999999998,7.00015173428714,0.149427477169905
10.318576,7.013144622011531,0.1490521957211398
10.320964,7.024694487496945,0.1486838548123824
10.323344,7.036104583355501,0.1483241889682873
10.325748,7.045233039213917,0.1480128382174651
10.328136,7.058737783617505,0.1476512215534197
10.330516,7.074197406939268,0.1472980488138859
10.332912,7.08923772138045,0.1469686631043196
10.3353,7.108002698060746,0.146588628059205
10.33768,7.127419301047099,0.1462130379457153
10.340084,7.149117544033589,0.1457891490467182
10.342468,7.171095326273803,0.1453499429477226
10.344852,7.1981954670217325,0.1447892809266984
10.347248,7.218405361798872,0.1443005862276179
10.349632,7.240245270270094,0.143759133857125
10.352016,7.261433552435259,0.1432161813330946
10.354412,7.273170409375777,0.1428103355730352
10.3568,7.285047035943156,0.1423979740821536
10.35918,7.2946420225104,0.142034411395051
10.361576,7.302746765010421,0.1417130937125401
10.363964,7.304146357136892,0.1415256339393105
10.366343999999998,7.311412481875755,0.1412519394116663
10.368748,7.320261398480455,0.1409719319387455
10.371136,7.325897509525237,0.1407484760404933
10.373511999999998,7.332604555756659,0.140504568223061
10.375916,7.339730910868661,0.1402403223843074
10.378304,7.347695883741823,0.1399341583148664
10.380684,7.355288769562648,0.1396104191041238
10.38308,7.35836559721144,0.1393378429091727
10.385468,7.357438223367399,0.1391260484370604
10.387847999999998,7.355020605456138,0.1389555332549395
10.390244,7.353673922731516,0.1387662824531611
10.392632,7.345901628887062,0.1386901095617713
10.395028,7.340223983587643,0.1386157081447959
10.397431999999998,7.336081908325817,0.1385724332723786
10.399816,7.33752682642266,0.1384607994144124
10.4022,7.343767341945257,0.1382850198525827
10.404595999999998,7.351730418960549,0.1380950259233117
10.40698,7.3597860437744576,0.1379366751708849
10.40936,7.36569979821509,0.137814188086488
10.411763999999998,7.376176832655997,0.1376023999768329
10.414152,7.380787334484513,0.1374744424956096
10.416532,7.378600138140859,0.137440132863227
10.418928,7.382419244036456,0.1373162313712339
10.421316,7.388752307357669,0.1371731315955528
10.423696,7.392803730678746,0.1370747037133537
10.426092,7.396296075492381,0.1370058103507682
10.42848,7.402954004037688,0.136921965403639
10.43086,7.413429142620728,0.1368256878620138
10.433264,7.430562209749075,0.1366455734195976
10.435648,7.454120887997256,0.136361496441615
10.438032,7.475537695872156,0.1361136509605704
10.440424,7.500679165986171,0.1358231906161378
10.442812,7.528893672033242,0.1354870980927403
10.445192,7.556503773602499,0.1351106036966247
10.447588,7.57587315476061,0.1348260764147009
10.449976,7.593240435172304,0.1345714211878611
10.452372,7.607394910024081,0.1343696935822737
10.454768,7.624901960062636,0.134110119736519
10.457156,7.649346477900218,0.1337573575425948
10.45954,7.673231917230361,0.1334355898819159
10.461935999999998,7.700562479545898,0.1330863455648089
10.464324,7.730406999287049,0.1327149820075831
10.466704,7.758109648654924,0.1323820874203741
10.469108,7.784089736530102,0.1320641484079291
10.471495999999998,7.808487032539443,0.1317516699446623
10.473876,7.828368270376753,0.1314835712263
10.476271999999998,7.847737651534862,0.1312088156550201
10.478659999999998,7.865012384147942,0.1309308895852179
10.48104,7.878702224148767,0.1306888268212468
10.483444,7.880379459671087,0.1306078220933463
10.485831999999998,7.884058795939826,0.1305000899726105
10.488212,7.8845253266486495,0.1304426740493209
10.490612,7.883920922170833,0.1304021120521458
10.492995999999998,7.884759539931993,0.1303620476892525
10.495376,7.888112115118768,0.1303056489614098
10.497784,7.893466791051963,0.1302233300139459
10.500172,7.902034272545072,0.1300919687546217
10.502551999999998,7.907948026985706,0.1299840290362583
10.504948,7.910416658440947,0.1299021169255502
10.507336,7.9115820372840755,0.1298132304974485
10.509716,7.91330649463464,0.1296988020068882
10.512111999999998,7.920804936798978,0.1294868296037157
10.514499999999998,7.9251377952316435,0.1292857017990174
10.516884,7.931892063291306,0.1290411939159181
10.519279999999998,7.942790302470662,0.1287412229654871
10.521667999999998,7.956761577583075,0.1283999094832564
10.524048,7.964586780829378,0.1281389820898288
10.526443999999998,7.976136646314791,0.1278427829435154
10.528832,7.990899317360122,0.1275023988861679
10.531212,8.01381016101798,0.1270548150141563
10.533608,8.039794040608896,0.1265723735382554
10.535996,8.06740793389389,0.1260482997064188
10.53838,8.092647639380129,0.1255319736384914
10.540776,8.113231517067476,0.1250602891898042
10.543164,8.135957265128102,0.1245599921194676
10.545544,8.152956250203195,0.1241188581259746
10.547944,8.167441277852673,0.1236934750135504
10.550332,8.180995139942373,0.1232770287636908
10.552712,8.193198527591715,0.1228884637370709
10.555112,8.202468648934861,0.1225318818959482
10.557496,8.208945273598674,0.1222029001415952
10.559892,8.209787683075575,0.1219633932936075
10.562288,8.214726841843925,0.1217059638782141
10.564676,8.216313425425499,0.1215002211544257
10.567059999999998,8.215478599380077,0.121337343592786
10.569456,8.216086795573629,0.1211768087851991
10.571844,8.221909898073513,0.1209482041475224
10.574224,8.220423445722034,0.1207808925226947
10.576619999999998,8.21386185669108,0.12067472732572
10.583783999999998,8.16661420985721,0.1206212391407952
10.586172,8.154186088213866,0.1205760249056865
10.588556,8.145622398436496,0.12049167911052
10.590951999999998,8.136267312726208,0.1204090269801177
10.59334,8.134221781867286,0.1202677689170736
10.59572,8.132268798806981,0.1201554267185623
10.598116,8.130036276492957,0.1200552795350427
10.600504,8.12994562455221,0.1199265437269551
10.602899999999998,8.133300095596855,0.119777505936772
10.605296,8.136235257760918,0.1196468768053676
10.607684,8.139310189551843,0.1195096061291817
10.610064,8.138660459103654,0.1194050371820085
10.612464,8.137498871976268,0.1192895967858345
10.614848,8.136756593729464,0.1191554324474675
10.617232,8.132289653243545,0.1190539843232866
10.619632,8.126612007944125,0.1189731365312777
10.62202,8.126893443055714,0.1188599912055836
10.6244,8.130108144473498,0.1187160409772201
10.626796,8.13956146555601,0.1185279938582026
10.629184,8.153251305556834,0.118318081430216
10.631567999999998,8.164939044811243,0.1181303723553674
10.633964,8.170620481826397,0.1180108179161648
10.636352,8.178164249961112,0.1178763638664818
10.638735999999998,8.183566147722548,0.1177704531523251
10.641132,8.181658490632618,0.1177217494845271
10.64352,8.180589451303849,0.1176359669401434
10.6459,8.182733217534995,0.1175082330938799
10.648295999999998,8.183014652646586,0.1173962968736212
10.650683999999998,8.184506792571675,0.1172647852526994
10.653068,8.189071968429818,0.1170981134126635
10.655463999999998,8.197129489101599,0.1168785080730511
10.657851999999998,8.210122376825991,0.11660906834478
10.660236,8.228562488282192,0.1163018248913127
10.662632,8.24751445641759,0.1160062614750924
10.665019999999998,8.27289203567282,0.1156319551008328
10.6674,8.301202881234246,0.1152321331616127
10.6698,8.326999769370056,0.1148431622353992
10.672187999999998,8.348652686386176,0.1145006952210919
10.674568,8.365137918924201,0.1141860615154412
10.676968,8.378038258849978,0.1138948912873441
10.679351999999998,8.396805131388144,0.1135497272267267
10.681736,8.42064714060578,0.1131517427030589
10.684131999999998,8.438622617211026,0.1128093406834786
10.686516,8.457669029002911,0.1124538274285148
10.688916,8.483513138966966,0.1120363369835615
10.691312,8.508937940050439,0.1116378816057352
10.6937,8.533431575574134,0.1112499013580337
10.696079999999998,8.56286057815044,0.1108186140593796
10.698476,8.594151911846303,0.1103789282845659
10.700864,8.623580914422613,0.1099554260613669
10.703248,8.650868046625643,0.1095603494972686
10.705644,8.675641221403058,0.1091770556534053
10.708032,8.696038107635303,0.1088181561951078
10.710416,8.717785468307905,0.108437998100643
10.712812,8.734178153047319,0.1081208817340032
10.7152,8.746985945174476,0.1078250444042394
10.717579999999998,8.763006542861548,0.1074947538885592
10.719976,8.784242046854954,0.1071106766276909
10.722364,8.808131277900836,0.1067138845500255
10.724744,8.835093544879772,0.1062874882780197
10.727148,8.857399984059814,0.1058951869509594
10.729532,8.875702221747026,0.1055402538688374
10.731915999999998,8.901221466486984,0.105116747730377
10.73432,8.924738610480528,0.1047103215029292
10.736708,8.945462257794736,0.1043248283571689
10.739088,8.964463343616247,0.1039452604014911
10.741484,8.982113954997399,0.1035891644686425
10.743872,8.991756163392884,0.1033029139769833
10.746251999999998,8.991155550630808,0.1030809799087205
10.748652,8.987481901935675,0.1028872240326192
10.75104,8.983388944359964,0.1027100054344296
10.753419999999998,8.97980784346345,0.1025435649830954
10.755824,8.9727343977533,0.1024216764942379
10.758212,8.960725584990536,0.1023400858754046
10.760592,8.949787707414412,0.1022469018840639
10.762988,8.939501456144345,0.1021586498811152
10.765376,8.928935665620559,0.102081162950584
10.767756,8.917718248790715,0.1019980844045285
10.770152,8.904638500841314,0.1019261069638692
10.77254,8.889696421772356,0.1018649637376786
10.774919999999998,8.877408069755873,0.1017920666562487
10.777316,8.86633042255289,0.10170252199105
10.779704,8.850037869043573,0.1016617342887403
10.7821,8.839611848146646,0.101577081420461
10.784496,8.82904605762286,0.1014975419418409
10.786884,8.824067260457744,0.1013856689783747
10.789264,8.821789412173345,0.1012313949218347
10.79166,8.825378096501336,0.101034323416213
10.794048,8.842562177173665,0.1007426465641227
10.796432,8.864961164152326,0.1004035649065942
10.798828,8.888990164825067,0.1000341340990486
10.801216,8.911436373631972,0.0996653058145838
10.803596,8.941099589491625,0.0992336288052763
10.805992,8.973975610911193,0.0987697327142977
10.80838,9.004849531584345,0.0983210487963257
10.810759999999998,9.033349264458744,0.0978713404278406
10.81316,9.060266205467308,0.0974239987055308
10.815548,9.088765938341703,0.0969813297647272
10.817932,9.122340807895576,0.0965014406414778
10.820328,9.157498469315282,0.0960231501544646
10.82272,9.190933569242294,0.0955522095829547
10.8251,9.228233101035276,0.0950611697912038
10.8275,9.268885208015035,0.0945374409471825
10.829884,9.305021256822764,0.0940365838341784
10.832268,9.346372211936826,0.0934977453484992
10.834664,9.382695252199657,0.0929699907113753
10.837052,9.414874321342795,0.0924779576262619
10.839436,9.447472699366513,0.0919751377616737
10.841832,9.472062674404564,0.0915327406220912
10.84422,9.495581714255977,0.0911025436147675
10.846604,9.51681911410725,0.0906968975478789
10.849,9.538987679518304,0.0902875848504123
10.851388,9.558083208996305,0.0899030319671959
10.853772,9.57703896884744,0.0895244566268376
10.856168,9.598136599071855,0.0891276012113295
10.858556,9.62561261858786,0.088708912369973
10.86094,9.654811199596557,0.0882895378737145
10.863336,9.679214183179502,0.0878964281977352
10.865724,9.69854203008298,0.0875400058327879
10.868108,9.718009646613313,0.0871800563762102
10.870504,9.736266558330149,0.0868337579126984
10.872892,9.746654836688178,0.0865331601523878
10.87528,9.752479835045932,0.0862769156429247
10.877672,9.758676920456026,0.0860360715141439
10.88006,9.758448394746289,0.0858475659008457
10.882452,9.76203707907428,0.0856695123001629
10.884847999999998,9.763855980081331,0.0855229309460509
10.887235999999998,9.761391140341829,0.085410359651195
10.889616,9.755573725415552,0.085327643546303
10.89202,9.748545605675774,0.0852581833786898
10.894403999999998,9.743100277801837,0.0851908755365247
10.896784,9.737235641047317,0.0851378549022123
10.899188,9.734304270598988,0.0850691942735349
10.901576,9.73202452645672,0.0850064702497847
10.903956,9.732678048620649,0.0849285488187998
10.906356,9.726114563731825,0.0848989836166167
10.918295999999998,9.680770782272146,0.0848932698355247
10.920692,9.67523101074172,0.0848846311896906
10.923075999999998,9.674114749584708,0.0848383243404374
10.925456,9.673417797308275,0.0847778429338945
10.92786,9.674211089099064,0.0846949680184894
10.930248,9.67062809234468,0.0846199693396186
10.932628,9.674821181150486,0.0844787001195248
10.935024,9.683809867382044,0.0843160063235021
10.937411999999998,9.699224164733431,0.0841043909483141
10.939792,9.71612870615204,0.0838715014978125
10.942196,9.73373209570495,0.08361634188382
10.944584,9.754827830071497,0.0833295070648251
10.946967999999998,9.772990298131846,0.0830587903032193
10.949364,9.790501139886135,0.0827828524122383
10.951752,9.804007780147597,0.082530219908004
10.954132,9.824219570782606,0.082222155135575
10.956528,9.844571131044477,0.0819091823104318
10.958916,9.866273165746708,0.0815792709910515
10.961296,9.887323574142876,0.0812432002457488
10.9637,9.908513752165913,0.0809035435190349
10.966088,9.932265109442802,0.0805354212942656
10.968467999999998,9.960439977093102,0.0801350459868519
10.970872,9.983679477690796,0.0797595898371882
10.973256,10.008921079034904,0.0793755786966584
10.97564,10.033883141125292,0.0790016687332593
10.978036,10.061918239148737,0.0786104573501472
10.980424,10.08259656049257,0.0782682194255428
10.982803999999998,10.100621154783932,0.0779318630475489
10.9852,10.118645749075291,0.0775979683446015
10.987588,10.133317768179875,0.0772906783059333
10.989968,10.148501643963655,0.0769957426641583
10.992368,10.157539447881325,0.076735377228616
10.994756,10.165785855866076,0.0764733567929472
10.997139999999998,10.174823659783748,0.0762137462052274
10.999536,10.185723794820976,0.0759491809987435
11.001919999999998,10.192340189111649,0.0757137852983327
11.004304,10.197094252282763,0.0754828660675221
11.006708,10.202919250640518,0.0752455844256048
11.009092,10.208884018625133,0.0750037182251171
11.011475999999998,10.213358542542528,0.0747820097510981
11.013872,10.214480491273148,0.0745855039219429
11.01626,10.207174728137522,0.0744397460291088
11.01864,10.205595727987426,0.0742748273904363
11.021036,10.198941591157856,0.0741351882339133
11.023424,10.192007915074567,0.0740043092817412
11.025807999999998,10.183583994924057,0.0738934114765201
11.028204,10.179443815520102,0.0737551486119705
11.030592,10.17223060018309,0.0736324958342382
11.032975999999998,10.160873413726383,0.0735324055947029
11.035372,10.151518328016095,0.0734229581257514
11.03776,10.139369745626476,0.0733205146724534
11.04014,10.133087695849245,0.0731952123938559
11.042535999999998,10.129599142751346,0.07306306565426
11.044923999999998,10.125179424093666,0.0729333189298345
11.047304,10.120759705435994,0.0728037851318054
11.049699999999998,10.116339986778316,0.0726740297675487
11.052088,10.120580297412364,0.0725161111698877
11.054472,10.124401299165832,0.0723716347498115
11.056867999999998,10.129944862412,0.0722273362862321
11.059256,10.136978669725384,0.0720636962277932
11.061647999999998,10.147225282598686,0.0718808575445462
11.064048,10.162826571405178,0.0716654481301025
11.066436,10.174703197972557,0.0714594411509014
11.06882,10.189513090846132,0.0712424444685507
11.071216,10.203811127040508,0.0710146504580202
11.073604,10.217597306555689,0.0707760377831084
11.075988,10.230824407563423,0.0705554668401959
11.078384,10.248055710063994,0.0703180083749302
11.080772,10.2692912140574,0.0700642577645002
11.083151999999998,10.289455782864168,0.069816925613562
11.085548,10.309480582044076,0.0695737228118408
11.087936,10.322847452678676,0.0693491188980957
11.090315999999998,10.3323498914473,0.0691371319774035
11.092712,10.344133970216063,0.0689093426990475
11.0951,10.356197588238548,0.0686739643755025
11.09748,10.371054702940365,0.0684334920413442
11.099875999999998,10.377112018723595,0.0682236059106063
11.102263999999998,10.384519808947186,0.0680001093540402
11.10466,10.395140404730691,0.0677601900139995
11.107056,10.406412626820256,0.0675275567854828
11.109444,10.4174053096561,0.0673041600760671
11.111824,10.43133125879814,0.0670733437613084
11.11422,10.443906733499825,0.0668562053177313
11.116608,10.458763848201642,0.0666243779938059
11.118992,10.475762833276736,0.0663818059862247
11.121388,10.495834854284888,0.0661273167361244
11.123772,10.516885262681058,0.0658454602110774
11.126155999999998,10.541148476637144,0.0655493502661979
11.128552,10.562478424287038,0.0652626803599355
11.13094,10.587021177496844,0.0649603673944843
11.13332,10.61263486589329,0.0646526563551195
11.135711999999998,10.643835547648406,0.0643362320263194
11.138099999999998,10.678900661269497,0.0640108486717178
11.140496,10.708611098957393,0.0637132993045403
11.142892,10.735108731085374,0.0634325132384008
11.145276,10.76002357134752,0.0631477701226211
11.147659999999998,10.790153317915996,0.0628407047705711
11.150056,10.815207927805002,0.0625528198733287
11.15244,10.829181098775283,0.0623032653680817
11.154823999999998,10.842223104185788,0.0620555812102509
11.15722,10.855404879223151,0.0618047563516402
11.159608,10.862300812767543,0.0615822714648521
11.161991999999998,10.873480487058492,0.0613391082552512
11.164388,10.881307586162665,0.0611161606279828
11.166776,10.883500470079923,0.0609267162655286
11.169172,10.883271944370184,0.0607560528235151
11.171568,10.882204800899284,0.0606096128435003
11.173956,10.872709945562136,0.060499919308555
11.17634,10.863075320598128,0.0603939530439766
11.178736,10.850227890074205,0.0603031004960112
11.181124,10.835657898057583,0.0602101525116865
11.183508,10.818294409361627,0.0601203029213288
11.185904,10.797718115105758,0.0600453351084116
11.188292,10.784358827902636,0.0599431984852438
11.190672,10.773793037378852,0.0598378288781572
11.193072,10.762807937974484,0.0597441132107088
11.19546,10.74819072412962,0.0596768566318707
11.19784,10.73836910771051,0.0596005661362759
11.200236,10.743353592449232,0.0594861682211759
11.202624,10.748198307561092,0.0593757766023487
11.205004,10.752623713792378,0.0592773720451722
11.2074,10.759190990396936,0.0591691488290144
11.209788,10.763476627001364,0.0590748347143909
11.212167999999998,10.770695529911984,0.0589740598130405
11.214568,10.78634214468885,0.0588389826732145
11.216952,10.80091782427908,0.0587086398712386
11.219335999999998,10.81763537424258,0.0585695563270242
11.221732,10.840498996072196,0.0584095756652264
11.22412,10.86550448827509,0.0582405196373928
11.226499999999998,10.895724886784317,0.0580529542850019
11.2289,10.928738781972877,0.0578634966033699
11.231284,10.966827813840911,0.0576600351601546
11.233684,11.00719848570908,0.0574439494488322
11.23608,11.042354251270917,0.0572486345508537
11.238468,11.07555513791458,0.0570336502943304
