Time,Force,Position
12.580172,7.691294792624542,0.156486720769695
12.582556,7.707961329044066,0.1563407695165006
12.584951999999998,7.740737219233541,0.1559651441623777
12.587343999999998,7.774771036064758,0.1555236499844717
12.589724,7.810574636216916,0.1550401357789353
12.592119999999998,7.855829661593717,0.1544475957209841
12.594511999999998,7.902620257008111,0.1539010722544998
12.596892,7.947780838728426,0.1533876769682912
12.599287999999998,7.996945621941573,0.1527981015992945
12.601676,8.060125110379639,0.1519839312140937
12.60406,8.119812254004069,0.1512534761096499
12.606455999999998,8.179172636546536,0.1505926386628846
12.608844,8.24709860472424,0.149878700222635
12.611223999999996,8.321030875141197,0.149068801003802
12.613632,8.38951592182634,0.1483252925708712
12.616024,8.443893715487953,0.1477804788956163
12.618404000000002,8.500692918776563,0.1471958526922895
12.6208,8.560891919080193,0.1465139317057126
12.623187999999995,8.611546946360559,0.1459199044768251
12.670976,8.595913602588778,0.14546573657205
12.673363999999996,8.590421052886597,0.1454602710056707
12.675747999999995,8.596521798782334,0.1453140833348059
12.678144,8.605555810984267,0.1451319575516957
12.680531999999996,8.611516787253143,0.1449926041994901
12.682915999999995,8.619340094641576,0.1448329947257692
12.685312,8.632657847590062,0.1445821851498047
12.687699999999996,8.641739081620237,0.144361520157002
12.690083999999995,8.655243826023824,0.1440672852827838
12.69248,8.668888340054277,0.1437703825868807
12.694867999999996,8.687887530017917,0.1433930963123736
12.697251999999995,8.703581366623029,0.1430349936211978
12.699648,8.711314022070711,0.1427514421000801
12.702035999999996,8.719977843078176,0.1424567820099556
12.704419999999995,8.719422556286474,0.142292660063051
12.706816,8.719658665427689,0.14212449647415
12.709203999999996,8.723339897554299,0.1419272985590075
12.711583999999998,8.727812525613825,0.1417252298323922
12.713984,8.730003513673214,0.1415630860987144
12.716371999999996,8.733125667292382,0.1413921662824001
12.718752,8.737039216844469,0.1412178282998674
12.72592,8.707716033071863,0.1411107617904131
12.728315999999996,8.699152343294493,0.141052327272311
12.730704,8.692590754263541,0.1409676714266023
12.733088,8.687611957098424,0.1408754325213072
12.735483999999996,8.69208458515795,0.1406784938162431
12.737872,8.695066969150258,0.1405166326622698
12.740256,8.69562794351557,0.1403994152930754
12.742651999999996,8.689623537134187,0.1403826547543716
12.745035999999995,8.687483562618779,0.1403210373858849
12.747415999999998,8.691582207768098,0.1402038386625377
12.749816,8.702897859970168,0.1399908488490566
12.752199999999998,8.724503555158043,0.1396414097117016
12.754583999999998,8.748530659972914,0.1392519047286819
12.756979999999997,8.774699635161062,0.1388349112604972
12.759367999999998,8.805431890349485,0.1383475056176487
12.761751999999998,8.839656490351546,0.1378049204081615
12.764147999999995,8.87071550662193,0.1372799832321415
12.766539999999996,8.903124997332675,0.1367329644376175
12.768919999999998,8.936325883976341,0.1361786217702395
12.77132,8.978558886964068,0.1355438018652454
12.773707999999996,9.03066262405702,0.1348050314678113
12.776087999999998,9.075689123724082,0.1341589848524006
12.778496,9.118993061898443,0.1335303114278877
12.780883999999997,9.16257653932653,0.132892281797147
12.783264,9.199222548955586,0.132333764626664
12.785659999999996,9.2389415945177,0.1317418858427397
12.788048,9.279359488214114,0.131124321365095
12.790432,9.3255513667243,0.1304201280590097
12.792827999999997,9.371743245234486,0.1297168082403647
12.795216,9.41206859113228,0.1290759345501164
12.7976,9.445596238857908,0.1285131477296596
12.799995999999997,9.469812230985752,0.1280366244304027
12.802384,9.489232625687842,0.1276081704823421
12.804763999999995,9.49971345184449,0.1272739618575806
12.807163999999997,9.505491228374003,0.1270127085838613
12.809552,9.511269004903514,0.1267536059790331
12.811931999999995,9.519048882179442,0.1264744295135878
12.814331999999997,9.521893392402758,0.1262459823392416
12.81672,9.529253960798105,0.1259838441291067
12.819099999999995,9.531027535834784,0.125769226173974
12.821504,9.520276649713765,0.1256725684216338
12.823891999999995,9.51250625172718,0.1255165378478761
12.826272,9.499800486687986,0.1254093366143071
12.828672,9.482671211275376,0.1253604577356109
12.831059999999995,9.472619173288656,0.1252353283037718
12.83344,9.458749925264208,0.1251153937797516
12.835835999999995,9.44315811574706,0.1250045763904448
12.840608,9.397585808577643,0.1249981269835403
12.843008,9.379525367605256,0.1249543229153178
12.845395999999996,9.358531660326674,0.1249390527515859
12.850176,9.320593773232718,0.1249239543226314
12.852563999999996,9.310959148268712,0.1248679335502603
12.866899999999998,9.228240349938252,0.1248471639942776
12.87168,9.209760600085286,0.124819492580724
12.874067999999998,9.207852942995356,0.1247780128577126
12.876448,9.215676250383789,0.1246436425153783
12.878843999999996,9.220426521839164,0.1245441098098514
12.881232,9.226060737026078,0.1244682088881684
12.883616,9.237654032624,0.1243632466873891
12.886011999999996,9.257767587886784,0.1241858405666109
12.8884,9.281885344642404,0.1239702576481992
12.890784,9.30786543251758,0.1237424287072078
12.893179999999996,9.340922757818648,0.1234436949288961
12.895568,9.379147767597802,0.1231192052778482
12.897952,9.421796287750368,0.1227407252561206
12.900347999999996,9.46421249047746,0.1223464282157407
12.902736,9.50169332615194,0.1219981547026203
12.90512,9.542898824065531,0.1216207281149026
12.907515999999998,9.59439436496493,0.121136715083575
12.909907999999998,9.64509850993141,0.1206556680773758
12.912288,9.697013359711388,0.1201577525850201
12.914688000000002,9.745063777625392,0.1196966812266685
12.917075999999998,9.795256065912673,0.1192140361731248
12.919459999999996,9.843586023080396,0.1187453080717499
12.921856000000002,9.889402022822509,0.1182907133588453
12.924243999999998,9.929770798832807,0.1178775972882335
12.926627999999996,9.967206308536916,0.1174895888002283
12.929024000000002,10.003990191934964,0.1170985744713751
12.931411999999998,10.032253815668142,0.116775156686012
12.933795999999996,10.05921418678921,0.1164481556549824
12.936192000000002,10.081798269365107,0.1161466648509655
12.938579999999998,10.09944698488839,0.1158884757277604
12.940963999999996,10.113882894851756,0.1156669777033873
12.943360000000002,10.12608438664323,0.1154460496891373
12.945751999999995,10.13414190731501,0.1152660393104252
12.948131999999998,10.137124291307318,0.1151323267353615
12.950532,10.144250646419318,0.114958328088437
12.952919999999995,10.150585605598405,0.1147859599239493
12.955304000000002,10.14919170104554,0.114673950784138
12.9577,10.146075234999978,0.1145691422881052
12.960087999999995,10.14351784746186,0.1144446688530572
12.962472000000002,10.14175185585666,0.1143189570271768
12.964868,10.13919446831854,0.1141947280066076
12.967255999999995,10.13612522410122,0.1140614466384006
12.969640000000002,10.129331317644793,0.1139522258871076
12.972036,10.119184836001583,0.1138809065558594
12.974428,10.112111390291435,0.1137813046038544
12.976808000000002,10.10131328234217,0.1137059552032195
12.979207999999996,10.092237735885604,0.1136232939343423
12.981596,10.077947283122704,0.1135913307599842
12.98398,10.062446125546304,0.11357532991443
12.986375999999996,10.049086838343184,0.1135369725733375
12.991143999999997,10.013708234645216,0.1135253843733472
12.993543999999996,9.995832889270064,0.1135123449062812
12.995932,9.983172450201245,0.1134482664977828
12.998316,9.969301306318924,0.1134000766707276
13.000711999999996,9.956640867250105,0.1133354190365122
13.0031,9.94384065855442,0.1132756784472932
13.005484,9.933833946538076,0.1131974992407655
13.007879999999997,9.919543493775176,0.1131633983902203
13.015052,9.87168954660562,0.1131293893909494
13.017439999999995,9.860564677574391,0.1130904925426997
13.019823999999996,9.8546547148495,0.1130012597004231
13.022223999999998,9.848884521751463,0.1129070338355615
13.024612,9.852985062758652,0.1127335726692374
13.026991999999996,9.861928423019837,0.1124975159322125
13.029388,9.875155524027576,0.1122178095174477
13.031775999999995,9.888522394662171,0.1119327628546096
13.034156,9.899235538244296,0.1116599130679072
13.036556,9.90994868182642,0.111385969604885
13.03894,9.922803695781822,0.1110898740314957
13.041324,9.935518940110365,0.110799316023918
13.043719999999997,9.94315904775943,0.1105533583945817
13.046108,9.952009860221995,0.1102921374030011
13.048487999999995,9.959510198244208,0.1100523636769513
13.050887999999995,9.96994380257261,0.10979014026399
13.053276,9.981727881341373,0.1095088518633916
13.055655999999995,9.998167787909026,0.1091987356363788
13.058055999999995,10.01474746410354,0.1088842927234149
13.060444,10.032817384365272,0.1085433383779072
13.062828,10.052098009440504,0.1081877411900591
13.065223999999995,10.06951630339618,0.1078451980806351
13.067612,10.083349704739602,0.1075211101880835
13.069991999999996,10.097183106083028,0.1071984541237425
13.072391999999995,10.10314787406764,0.1069365023088807
13.07478,10.103478426865342,0.106736410521961
13.077159999999996,10.101527339662908,0.1065618127715428
13.079556,10.09971602208733,0.1063821327534924
13.081943999999996,10.104422863430203,0.1061652537778544
13.084327999999996,10.112342510332995,0.1059178803355134
13.086724,10.124126589101756,0.1056462137178131
13.089111999999997,10.138052538243794,0.1053557011447302
13.091495999999996,10.158124559251943,0.1050155351060344
13.093892,10.17633424914054,0.1046865348192228
13.096279999999997,10.192821377536436,0.1043626808994131
13.098663999999996,10.206515009253,0.1040543853447503
13.10106,10.216995835409646,0.1037768021258125
13.103447999999997,10.225754100073596,0.1035054670749794
13.105828,10.23544353029732,0.1032298593391622
13.108231999999996,10.243922255707549,0.1029682266392422
13.11062,10.251469815558,0.1027123181368153
13.112999999999996,10.25808620984867,0.1024615329536335
13.115396,10.269078892684515,0.102196164294488
13.117783999999997,10.275927604400664,0.1019644145599851
13.120167999999996,10.283707481676592,0.1017272411618069
13.122564,10.29283783339288,0.1014703000061519
13.124956,10.304249825109302,0.1011896441151255
13.127335999999996,10.317384378318426,0.1009043629720518
13.129732,10.323861002982238,0.1006587542930312
13.132119999999995,10.32898715320569,0.100432699693924
13.134503999999996,10.329038166749672,0.1002456144085398
13.136903999999998,10.324945209173958,0.100091759325786
13.139287999999995,10.316428741224827,0.0999803823963584
13.141671999999996,10.308563899581758,0.0998734839379563
13.144068,10.30349255461802,0.0997523507031169
13.14646,10.3021458718934,0.0996124811791931
13.148839999999996,10.304523851407891,0.0994543339230946
13.151236,10.306110434989469,0.099296171623007
13.153623999999995,10.3066260833844,0.0991475334291915
13.156007999999996,10.312216868458808,0.0989624467311824
13.158404,10.319809754279632,0.0987644495794772
13.160796,10.329125201593152,0.0985623730218324
13.163175999999996,10.335647152227338,0.0983745757824478
13.165575999999998,10.348175405100774,0.0981465830595341
13.167964,10.364568089840189,0.0978973629940032
13.170343999999996,10.381612400885652,0.0976530143021727
13.17274,10.397306237490763,0.0974275132864623
13.175132,10.412208678162951,0.0972025499519362
13.177511999999997,10.433629277753592,0.0969481030675801
13.179911999999998,10.456260582157732,0.0966811377343431
13.1823,10.480242361002231,0.0963966629440424
13.184679999999997,10.505155305406506,0.0961071403351741
13.187076,10.534212220930474,0.095788173032763
13.189468000000002,10.56606263313378,0.0954580546107675
13.191847999999997,10.59884421089686,0.0951257155105174
13.194247999999998,10.628692522353749,0.094811328293333
13.196636000000002,10.651743135638467,0.0945349698736023
13.199015999999997,10.676516310415884,0.0942554909867426
13.201415999999998,10.703151816312854,0.0939690513781182
13.203804000000002,10.72764545183655,0.0937018887582331
13.206183999999997,10.751719778479664,0.0934499546700983
13.208583999999998,10.776725270682558,0.0931955103347489
13.210972000000002,10.800939366952532,0.0929409763809953
13.213356,10.82222019691631,0.0927041044148103
13.215751999999998,10.839636595014118,0.0924881941100126
13.218140000000002,10.859194863485202,0.0922568039627071
13.220524,10.879824067142923,0.092017848246922
13.222919999999998,10.902315601920202,0.0917725699545419
13.225308000000002,10.920942704831509,0.0915480608794526
13.227692,10.94064074292945,0.091317049145053
13.230099999999997,10.96085063770659,0.0910960048303426
13.232483999999996,10.984273338043648,0.0908520287153432
13.234867999999995,11.004902541701371,0.0906204150114803
13.237264,11.020084521627286,0.0904063623658848
13.239651999999996,11.03340417043364,0.0902002102911735
13.242031999999998,11.046863588866856,0.0899896177742774
13.244427999999996,11.0672604750991,0.0897415001058136
13.246816,11.08872829651798,0.0894870174930001
13.249199999999998,11.104981211630534,0.0892667336454312
13.2516,11.119232025996668,0.08905794364825
13.253987999999996,11.128687242937048,0.0888707425713452
13.256367999999998,11.13320709282482,0.0887094101134502
13.258763999999996,11.139449504205285,0.0885455352317086
13.261155999999996,11.145831685212611,0.0883776670486276
13.263535999999998,11.152074096593076,0.088213833433942
13.265936,11.153241371294069,0.0880798853015351
13.268323999999996,11.151475379688868,0.0879604325026137
13.270704,11.148638452897028,0.0878489156383949
13.273099999999996,11.149154101291966,0.0877108361685104
13.275488,11.145386008940347,0.0876029548301118
13.277872,11.142968391029092,0.0874795000631594
13.280267999999996,11.139060529050612,0.087376235392028
13.282656,11.13301079669886,0.0872876705922062
13.285036000000002,11.132827596959494,0.0871712332062019
13.287432,11.132784166846989,0.0870507235710986
13.289819999999995,11.138886808600596,0.0868951695076313
13.292204000000002,11.140333622555309,0.0867557800185536
13.294608,11.138847170203828,0.0866301081379324
13.296995999999996,11.14127237154656,0.0864619369936556
13.299376,11.146118982516295,0.0862713271100033
13.301776,11.155249334232582,0.0860517073254125
13.304163999999997,11.169594592255203,0.0858002243832787
13.306547999999996,11.184079619904685,0.0855455609109893
13.308947999999996,11.199495813113945,0.0852886104533417
13.311331999999997,11.21598294150984,0.0850245503572304
13.313715999999996,11.238755911398709,0.0847224418020852
13.316115999999996,11.263670751660852,0.0844059901757688
13.318504,11.288725361549858,0.0840867675999515
13.320888,11.309775769946029,0.0837891415772717
13.323283999999996,11.331105717595925,0.0834824023069092
13.325675999999998,11.346289593379703,0.0832095014359589
13.328059999999995,11.364174418044204,0.0829080683426113
13.330456000000002,11.386342983455256,0.0825795039140113
13.332847999999997,11.405578282560114,0.0822653286238052
13.335227999999995,11.427886617598023,0.0819364769067943
13.337628,11.442326319277132,0.0816434271352216
13.340015999999997,11.45755741688916,0.0813512254579678
13.3424,11.47507015450132,0.0810422091865608
13.344796,11.49351405767326,0.0807319816766249
13.347183999999997,11.509816090471926,0.0804358198924855
13.349568,11.526397662524309,0.0801332343320924
13.351967999999996,11.54311900420355,0.0798286855721372
13.354356,11.56105105069629,0.0795153821531679
13.356743999999996,11.577540074950056,0.0791962506216815
13.35914,11.59752144401746,0.078852055609414
13.361527999999996,11.615640481965304,0.0785150086045843
13.363911999999996,11.638043260659703,0.0781553915769003
13.366308,11.658723477861408,0.07779742540344
13.368695999999996,11.680474630249751,0.0774337602134975
13.371079999999996,11.707580458571284,0.0770409362495701
13.373476,11.74111189801265,0.0766116066861323
13.375863999999996,11.767426330401268,0.076217881761424
13.378247999999996,11.790807496483689,0.0758361702236624
13.380644,11.811395165886776,0.0754607741281745
13.383031999999996,11.826256072304332,0.075103240035276
13.385415999999996,11.845912576147642,0.0747314448713245
13.387812,11.869852820737504,0.0743375199387742
13.390204,11.890580259767452,0.0739617727506008
13.392583999999996,11.9088862891704,0.0736061639447167
13.394983999999996,11.929054649692905,0.0732470351051316
13.397367999999997,11.945870435028636,0.0729096093901575
13.399751999999996,11.957750853311753,0.0725902195728292
13.402148,11.965627070102036,0.0722868762903014
13.404535999999997,11.97294420838488,0.0719985154042075
13.406919999999996,11.97383573554789,0.0717446953415457
13.409319999999996,11.971654226777847,0.0715041550321016
13.411708,11.964397581328331,0.0712849089386986
13.414087999999996,11.958072101438596,0.0710636805738998
13.416487999999998,11.948673585615802,0.0708549459506221
13.418876,11.934991329046456,0.0706684737411588
13.421263999999995,11.919167202103832,0.0704929491299907
13.423660000000002,11.906835419974843,0.0702928980898302
13.426051999999997,11.893292933032358,0.0701014915528398
13.428439999999998,11.884965352396204,0.0698863905703995
13.430835999999996,11.878360333252743,0.0696709506786332
13.433224,11.866959716683535,0.069467514479125
13.435611999999995,11.851554898621492,0.0692782172323176
13.438008,11.838291950932724,0.0690778680813852
13.440395999999996,11.828241808803876,0.0688616669647127
13.442779999999996,11.814327234809053,0.0686552101914524
13.445176,11.804556631933924,0.068431282922662
13.447563999999996,11.800652561671184,0.068190653368278
13.449952,11.796748491408444,0.0679493872458362
13.452352,11.792844421145706,0.0677078179425017
13.454736,11.794295026816158,0.0674401966962299
13.457123999999997,11.798678898792806,0.0671644287943965
13.45952,11.803854166702372,0.066890941910026
13.461907999999998,11.805025233119103,0.0666301177327749
13.464296,11.807127465095617,0.0663669189458129
13.466691999999998,11.810160862631903,0.0661022759609489
13.469080000000002,11.811052389794916,0.0658477154794211
13.471467999999998,11.812455773637124,0.0656028703466274
13.473868,11.818794524531947,0.065344071651177
13.476255999999996,11.823782800986413,0.0650987791229271
13.478644,11.831844113373933,0.06484274450423
13.481039999999997,11.844561253560345,0.0645802254289915
13.483428,11.859932120799224,0.0643181507871673
13.485828,11.876373923224747,0.0640521017103532
13.488232,11.888671754530575,0.0638024690634566
13.490619999999996,11.907907053635435,0.0635340933216229
13.493016,11.927002583113431,0.0632710197323403
13.495411999999998,11.94195414147174,0.0630244143272001
13.497804,11.962772232442433,0.0627648140658092
13.500199999999996,11.9886654600926,0.0624902569449451
13.502596,12.011206112555987,0.0622342514620373
13.504983999999997,12.03481770020602,0.0619751594627351
13.50738,12.05535625192299,0.0617260382865473
13.509779999999996,12.080830170692575,0.0614645218097173
13.512163999999997,12.11310178763433,0.0611900653577858
13.514563999999996,12.14351107345653,0.0609179133343673
13.516967999999997,12.176062229652006,0.0606369610454502
13.519352,12.209404781780398,0.0603594179320659
13.521751999999996,12.238882902042816,0.0600906044952972
13.524143999999996,12.26393751193182,0.0598430432768678
13.526532,12.287501877753607,0.0596116225026178
13.528932,12.312137178762033,0.0593774437317123
13.531327999999998,12.333839213464262,0.0591500810275733
13.533728,12.356053104845689,0.0589333887906551
13.536123999999996,12.384133528839508,0.0587055962182745
13.538515999999998,12.40914091690027,0.0584888978373821
13.540911999999995,12.42786246346806,0.0582941426130565
13.543311999999997,12.445792614102936,0.0580966509066664
13.5457,12.45557459212528,0.0579229592699142
13.548095999999996,12.46228353421457,0.0577594140798893
13.550504,12.472065512236917,0.0575871888178094
13.552891999999996,12.477423979885844,0.0574350915665602
13.555275999999996,12.490790850520444,0.0572641794621037
13.557672,12.50373841227446,0.0571039479716751
13.560059999999996,12.509096879923392,0.0569531138456281
13.562443999999996,12.516969304997938,0.0568070245059681
