Time,Force,Position
11.210892,7.595254431146467,0.16105449655731
11.213276,7.603215612303891,0.1609534871704209
11.220448,7.603215612303891,0.1609500757244839
11.225228,7.61108234980483,0.1609270893935463
11.227612,7.620813314283193,0.1607676896980568
11.229992,7.631894753201917,0.1605746459642615
11.232392,7.646700854359753,0.1603314406610903
11.234776,7.667885344809177,0.1600047299454838
11.237156,7.690792396751298,0.1596580513742003
11.239564,7.716120858320417,0.1592539850917868
11.241948,7.736933261717502,0.1589087641349133
11.244328,7.75476517698015,0.1586552288058402
11.246728,7.779300346758483,0.1583759730269864
11.249116,7.811377388813656,0.1580177845929467
11.251496,7.849228415682605,0.1575317142288751
11.253892,7.88936108255169,0.156999417571435
11.25628,7.9381537787125,0.1563544624243077
11.25866,7.981312259686398,0.1558392119939189
11.261064,8.021118165473519,0.1553909970185038
11.263452,8.05519730827511,0.1550264259894432
11.265832,8.093839731076974,0.154565405463438
11.268228,8.13369285869234,0.1540828983757155
11.270616,8.180343684479872,0.1535199732500177
11.272996,8.238168496984745,0.1528132709836693
11.275396,8.292128877623645,0.1521669812095884
11.27778,8.341712969717374,0.1515702650875131
11.280164,8.390785205131904,0.1509802411562251
11.28256,8.437808117971775,0.1504619474696616
11.284948,8.485063348237121,0.1499651802439698
11.287328,8.53096810406211,0.1494985890057887
11.289728,8.581156600633653,0.1489603090483415
11.292116,8.63004184459308,0.1484256100164938
11.294496,8.678507779671927,0.1479230821930736
11.2969,8.72976721143011,0.1473914877562273
11.299288,8.782888974307847,0.1468450927155061
11.301668,8.834195627894273,0.1462913828793766
11.304068,8.874328294763357,0.1458746122787237
11.306456,8.912458860886026,0.145487135008418
11.308836,8.95682804667342,0.1450435793614087
11.311240000000002,9.00026606690104,0.1446062024214686
11.313628,9.044402935262957,0.1441404145507465
11.316008,9.08574630694554,0.1437079232144519
11.318404,9.11787057082896,0.1434110510035968
11.320792,9.1454315547121,0.1431929462722044
11.323172,9.17457533046108,0.1429676082313322
11.325568,9.20320724953086,0.1427333896590336
11.327956,9.22266728262972,0.1425919734018612
11.330336,9.24338524237032,0.1423992491020305
11.332732,9.265733215804998,0.1421682629069975
11.33512,9.28971120293376,0.1418981646675545
11.3375,9.311734311144344,0.1416237804744548
11.339896,9.330591835623256,0.141365293030534
11.342284,9.34470098450466,0.1411308591431555
11.34468,9.359648751147226,0.1408648395584922
11.347084,9.372222329991038,0.1406111219277091
11.349472,9.38041962028968,0.1403910970583256
11.351852,9.38838459316284,0.1401512744430929
11.354247999999998,9.397979579730082,0.139874814257056
11.356635999999998,9.39877476737874,0.1396972041237812
11.359016,9.40264299096045,0.1394804221325649
11.361412,9.402786552303048,0.139299820932731
11.3638,9.401534313234915,0.1390890305549894
11.36618,9.398327195248608,0.1388708724007333
11.368583999999998,9.39418891170252,0.1386616275061515
11.370971999999998,9.38888714517118,0.1384418725892428
11.373356,9.38335306121436,0.1382019450358974
11.375752,9.3803801565114,0.1379136345416853
11.378139999999998,9.374194446248522,0.1376707297761196
11.38052,9.368241053411124,0.1374480184273932
11.382924,9.364941387626198,0.1372047778061057
11.385312,9.35856868590822,0.1369991346107615
11.387692,9.350333653070685,0.1368107144300467
11.390088,9.33860627541951,0.1366775721548447
11.392475999999998,9.324969344820536,0.1365930185799131
11.394856,9.308911004594565,0.1365486325165077
11.397251999999998,9.297648261794349,0.1364538721270687
11.399640000000002,9.285314583807487,0.1363734449064377
11.40202,9.269768100260716,0.1363363558391148
11.404416,9.261718163020412,0.1361975320417479
11.406804,9.255670326526529,0.1360354738707298
11.409184,9.251624590779056,0.1358496868006801
11.41158,9.246600467643567,0.1357033680464551
11.413968,9.24381076267997,0.1355534777662217
11.416352,9.248377834395985,0.1353094524116692
11.418748,9.254527697977837,0.1350600464173252
11.421136,9.263191518985298,0.1347967030741947
11.423516,9.27194788779138,0.1345581501221069
11.425916,9.277491451037545,0.1343615746317188
11.428304,9.28466502797779,0.1341296051080968
11.430688,9.2890451082387,0.133924329260027
11.433084,9.29449612368625,0.1337041021632497
11.435476,9.301250391745912,0.1334885382138951
11.437856,9.313219566111908,0.1332071913079527
11.440252,9.321603847865653,0.1329543099426587
11.44264,9.332129999992672,0.1326726052613391
11.445035999999998,9.339583116186638,0.1324283350094777
11.447432,9.351831829806354,0.1321367161528109
11.44982,9.362218212306514,0.1318605771398798
11.452203999999998,9.372604594806674,0.1315874911344714
11.4546,9.383270516560556,0.1313056957195692
11.456988,9.394727834247352,0.1310216278692403
11.459368,9.40818725268057,0.1307147920770285
11.461764,9.422997145554143,0.1303844032754755
11.464152,9.427936304322492,0.1301592131005795
11.466536,9.42915080085173,0.1299663118650357
11.468932,9.425290160701495,0.1298303144725933
11.471315999999998,9.42184882943184,0.1296773655668405
11.4737,9.424972878908878,0.1294366071568994
11.476104,9.424512035773663,0.1292234684808983
11.478488,9.42260817039947,0.1290095510303954
11.480872000000002,9.424428967264392,0.1287639766997706
11.483268,9.431744209689365,0.128446888036003
11.485656,9.442272257674254,0.1280934449275572
11.488036,9.45522171528614,0.1277022631173192
11.490428,9.46737977696511,0.1273137751108932
11.492816,9.482982961629473,0.1269059301613463
11.495212,9.495513110360775,0.1265339524046349
11.497608,9.51232699983864,0.1261093324946092
11.499996,9.523414126330971,0.1257367098898791
11.502375999999998,9.52914657689011,0.1254292333289633
11.504772,9.534739257822384,0.1251275476044297
11.50716,9.540611478008383,0.1248153694536593
11.50954,9.543969740768768,0.124515537089666
11.511936,9.551611744275704,0.124163415918634
11.514323999999998,9.562838640394896,0.1237865599035471
11.516704,9.580723465059394,0.1233520273242885
11.519099999999998,9.600750160097173,0.1228928444956867
11.521488000000002,9.614630783268838,0.1225005769140176
11.523884,9.62995442867948,0.1221107225855588
11.52628,9.643228751515462,0.1217695358880615
11.528668,9.65100862879139,0.1214974567546468
11.531047999999998,9.652642434201208,0.1212918675356462
11.533444,9.646407606252216,0.1211608620682402
11.535836,9.63910184311659,0.1210422138677324
11.538215999999998,9.63151654072724,0.120934012474376
11.540612,9.622348446472056,0.1208293981455804
11.543,9.610386855537536,0.1207461024705254
11.545380000000002,9.597214559789515,0.1206802567549627
11.547784,9.585625055907336,0.1206107148884962
11.550172,9.574966717584932,0.1205339584442674
11.571676,9.453563962197975,0.1204949931761678
11.57406,9.443742345778864,0.1204702973379016
11.576452,9.439415174919809,0.1203786305637003
11.57884,9.43895243592672,0.1202537313226305
11.581224,9.43993271917261,0.1201303818293817
11.58362,9.4414248590977,0.1200160118408192
11.586004,9.444499790888624,0.1198983843155519
11.588387999999998,9.447015644172108,0.1198022004666275
11.590784,9.453535698948423,0.1196672394221896
11.593172,9.464711581523634,0.1194988943995482
11.595552,9.47975189596482,0.1192985667579216
11.597952,9.498516872645112,0.1190710672275362
11.600336,9.516071144511908,0.1188613378225389
11.60272,9.53748984824468,0.1186209657321795
11.605116,9.562912753470284,0.1183433408385249
11.607504,9.58875496757647,0.1180510458051357
11.6099,9.618741152802349,0.1177181830548904
11.6123,9.649658503588007,0.1173785298210427
11.614688,9.687513322172691,0.1169803441832811
11.617068,9.721503708891404,0.1166168153718201
11.619468,9.756425261169897,0.1162478066268966
11.621856,9.79479193643378,0.1158677678651101
11.624236,9.832599533190225,0.1155115425128064
11.626632,9.869336194760026,0.1151691465957791
11.62902,9.90714379151647,0.1148145633414575
11.6314,9.948024424205968,0.1144332424019627
11.633796,9.991326466522466,0.11402285064683
11.636184,10.032254321040206,0.1136143343443281
11.638564,10.071412392237008,0.1132429427932455
11.64096,10.10484370044828,0.1129165793149165
11.643352,10.13455034642044,0.1126164817895032
11.645732,10.16146349571326,0.1123354435570144
11.648128,10.188795953886665,0.1120396239590531
11.650516,10.213334915380734,0.1117646531855355
11.652895999999998,10.236802941688165,0.1115022154678654
11.655292,10.26227306874201,0.1112253933106713
11.65768,10.288394822101916,0.1109562532407676
11.660076,10.318660546581516,0.1106521796875828
11.662472,10.342268342515805,0.1103953540045488
11.66486,10.365364281770898,0.110130101684227
11.66724,10.385946263600378,0.1098722355585483
11.669643999999998,10.400429395391988,0.1096404438662165
11.672032000000002,10.412538339384849,0.1094114503657089
11.674416,10.421341930019173,0.1091900366213928
11.676811999999998,10.431635764720712,0.1089446560365075
11.679199999999998,10.44062634681014,0.1086928733430991
11.68158,10.444681561846954,0.1084779708509613
11.683976,10.457536575802356,0.1082023851616833
11.686364,10.473651617145917,0.1078705194340388
11.688748,10.489115032183417,0.1075338814498873
11.691144,10.505649382407558,0.10718750342657
11.693532,10.525536307818474,0.1068079022565092
11.695916,10.54584254210997,0.1064152754594183
11.698312,10.561632718229438,0.1060432528646407
11.700696,10.575979872109928,0.1056681400879518
11.70308,10.583669097445108,0.1053338152379473
11.705476,10.581255271249583,0.1050506878251839
11.707864,10.575116782814952,0.1047889564055449
11.710244,10.566324567327843,0.1045368192897864
11.71264,10.557252812587016,0.1042936092836224
11.715028,10.548692914525384,0.1040587965102685
11.717412,10.540784642769813,0.1038277211631145
11.719808,10.532876371014238,0.1035962828217092
11.722196,10.527342287057415,0.1033631801870191
11.72458,10.522087742354318,0.1031211691089158
11.726976,10.512269917650944,0.1029268104758813
11.729364,10.505385359253768,0.1027126415016521
11.731744,10.489561232311145,0.1025617976694512
11.734144,10.470524299808604,0.10243892743595
11.736532,10.4542808639854,0.1023011138753357
11.738912,10.440179298535474,0.1021441913684782
11.741308,10.424075632339129,0.1020010879933717
11.743696,10.408763362075703,0.1018574779209016
11.746092,10.396244588491609,0.1016992249856113
11.748487999999998,10.384377441213577,0.1015451862204073
11.750875999999998,10.380518696921207,0.1013355528944971
11.75326,10.384900673039986,0.1010878611122489
11.755655999999998,10.387140778785486,0.1008584724463794
11.758043999999998,10.394036712329877,0.100605495481399
11.760424,10.40079287624741,0.1003568056662957
11.76282,10.411041384978578,0.1000718703172134
11.765208,10.421150124082882,0.0997911884090648
11.767588,10.432190028746968,0.099506109779316
11.769988,10.444440638224552,0.0992079312411761
11.772376,10.457203104381335,0.0989207330846332
11.77476,10.47424931128467,0.0985970049524073
11.777156000000002,10.488502021508673,0.0982870677289487
11.779544,10.507969638039008,0.0979368353482145
11.781928,10.526086780128985,0.0976042647572545
11.784323999999998,10.540059951099265,0.0973029145921698
11.786715999999998,10.550540777255906,0.0970385237204981
11.7891,10.559531359345332,0.0967968599304365
11.791496,10.562375869568651,0.0965993587618333
11.793883999999998,10.567734337217582,0.0963981360047139
11.796264,10.573232574493373,0.0961926009671332
11.798668,10.57323636620911,0.0960368742335656
11.801056,10.571238057178428,0.0958946071262407
11.803439999999998,10.57017091370753,0.095747726604493
11.805836,10.570034935796407,0.0955970610500293
11.808224,10.57418269863184,0.0954119343220016
11.810604,10.577399295907496,0.0952319065350745
11.813004,10.585039403556564,0.0950137928162182
11.815392,10.593610676765412,0.0947921968460677
11.817772,10.603113115534036,0.094567646201786
11.820168,10.60646948243655,0.0943846393661243
11.82256,10.610617245271984,0.0942028541465297
11.824944,10.620352001466086,0.0939980717454372
11.82734,10.625803016913633,0.0938268706138426
11.829728,10.635258233854016,0.0936315238481508
11.832107999999998,10.64992835710073,0.093399286145805
11.834504,10.66809082516108,0.0931343035386781
11.836892,10.689466098781343,0.0928453160050403
11.839272,10.715916509081085,0.0925225903422235
11.841672,10.740784127514983,0.0922001239992291
11.84406,10.765791515575746,0.0918742889098031
11.84644,10.790147277330451,0.0915426850860123
11.848844,10.814642808712014,0.0912071326791414
11.851232,10.84020927528022,0.0908637587781019
11.853616,10.859769439609172,0.0905559010107585
11.856012,10.878118899124626,0.0902630729997127
11.8584,10.891765309012946,0.0900152618215642
11.860784,10.902059143714489,0.0897972129868461
11.86318,10.909279942482977,0.0895988107389511
11.865568,10.91263630938549,0.0894194931222614
11.867952,10.923489222594476,0.0891846832665944
11.870348,10.930477703937486,0.0889689117192771
11.872736,10.933741523041384,0.0887684536973337
11.875115999999998,10.940078378078336,0.0885488032844574
11.877512,10.94469267162259,0.0883326375338135
11.879904,10.94758440367415,0.0881198969232912
11.882284,10.946192394979152,0.0879380388191028
11.88468,10.942146659231684,0.087762346042549
11.887068,10.94210512497705,0.0875655357067965
11.889447999999998,10.943134525909054,0.0873615725333931
11.891848,10.941882286840922,0.0871765859795682
11.894236,10.942492378892345,0.0869848176683498
11.89662,10.941240139824208,0.0867993685657163
11.899016,10.939708361502356,0.0866224127988973
11.901404,10.947255921352804,0.0863956119898805
11.903783999999998,10.9517304452702,0.0861872695570204
11.90618,10.962630580307428,0.0859346548855496
11.908568,10.97460165053129,0.0856752902461247
11.910948,10.992579022994407,0.0853854036375179
11.913348,11.01428105769664,0.0850833774216549
11.915736,11.030348877211956,0.0848269247717749
11.918119999999998,11.048279027846828,0.0845641075376869
11.920516,11.064067308108427,0.0843156787664327
11.922904,11.077853487623605,0.0840780226810047
11.925284,11.09201175419112,0.0838544675219916
11.92768,11.107473273370752,0.0836423381811393
11.930072,11.12586805885658,0.0834170435096213
11.932455999999998,11.144774701021603,0.0832013924403667
11.934852,11.16219109911941,0.08300728897914
11.93724,11.180259123523276,0.0828195903400108
11.939623999999998,11.202982975726032,0.0826177731839424
11.94202,11.228640094234985,0.0824044978991826
11.944408,11.260303514983184,0.0821633673525296
11.946796,11.295179741291305,0.0819032554349865
11.9492,11.324980830919948,0.081671541674928
11.951584,11.356784021295008,0.08143072959201
11.953964,11.38737650685657,0.0812027878090644
11.95636,11.415827122044854,0.0809887133131589
11.958744,11.437991895740169,0.0808113179109347
11.96112,11.458434107942788,0.0806361199109826
11.963524,11.48222889533218,0.0804371884870475
11.965912,11.505744143467858,0.080246379047214
11.968291999999998,11.530981953096228,0.0800539514787914
11.970684,11.561946525710129,0.079843381949703
11.973071999999998,11.593190637577749,0.0796256846684811
11.975468,11.621361713512314,0.0794238395651215
11.977872,11.64967255907374,0.0792191252948274
11.980256,11.679054339821803,0.0790085453687498
11.982636,11.705782393517396,0.0788026915381132
11.98504,11.726504144973733,0.0786233433810359
11.987428,11.745782874191097,0.0784385171548188
11.989808,11.760126236355848,0.0782743165452763
11.9922,11.771117023333822,0.0781340169318323
11.994588,11.7808971054983,0.078004750887538
11.996968,11.791468583595694,0.0778772023316815
11.999372,11.799246565013751,0.0777568167811486
12.001756,11.80343965381956,0.0776421885539412
12.004136,11.807492972998505,0.0775312161446043
12.006543999999998,11.815969802550864,0.077391843892416
12.008928,11.823235927289728,0.0772624992037677
12.011312,11.830502052028589,0.077133620406574
12.013704,11.83818748564803,0.0769934303381129
12.016092,11.849365264081108,0.0768280458415352
12.018472,11.8517432435956,0.0766946227192135
12.020876,11.85719425904315,0.0765477022259381
12.023264,11.867348324117833,0.0763661317565175
12.025644,11.878154015498572,0.076190569482184
12.02804,11.88602644057312,0.0760252533265813
12.030428,11.892967700087889,0.0758621252749863
12.032804,11.907405505909123,0.0756578546864355
12.035208,11.92249493803642,0.075459891234229
12.037596,11.940657406096769,0.0752482473041775
12.039976,11.957097312664423,0.0750373179548505
12.042372,11.969812556992965,0.0748350315611604
12.04476,11.978942908709252,0.0746371741122493
12.04714,11.991006526731733,0.0744294748458974
12.049544,12.004652936620053,0.0742249865618724
12.051928,12.01992936020245,0.0739999648397893
12.054312,12.032412287105515,0.0737818022855883
12.056708,12.048108019568492,0.0735470108983454
12.059092,12.064083291285192,0.073305848029053
12.061476,12.082200433375167,0.0730544700775498
12.063868,12.095242438785672,0.0728245216346148
12.066256,12.114570285689148,0.0725646698662391
12.068652,12.12337577218134,0.0723329146155426
12.071048,12.127245891620923,0.0721185397662254
12.073436,12.127950427328832,0.0718971122164991
12.075816,12.135220343783434,0.0716398680719425
12.078212,12.142909569118611,0.0713716213986773
12.080596,12.148596693707375,0.0711119686063948
12.082976,12.151909630497387,0.0708471812820091
12.08538,12.158714912101033,0.0705608400257011
12.087768,12.167010437771896,0.0702586637778279
12.090148,12.174654337136705,0.0699500891050824
12.092544,12.187652912434704,0.069615622111836
12.094932,12.200139631053505,0.0692729638435379
12.097312,12.213464967433463,0.0689094291676675
12.099716,12.227581699746349,0.0685489230645699
12.102104,12.244631698365424,0.0681812938672949
12.104484,12.25716563881247,0.0678181648499336
12.10688,12.26569537776668,0.0674681300609631
12.109264,12.273293951161111,0.0671210128146414
12.111648,12.283313934182544,0.0667568308218031
12.114044,12.290400650897778,0.0664013052418837
12.116428,12.30642693615846,0.0660181947533952
12.118824,12.325246718098477,0.0656313639006379
12.121228,12.343926730411631,0.0652476958351559
12.123612,12.357252066791592,0.0648902257920992
12.125992,12.367504367238505,0.0645429303161487
12.128388,12.373612696565717,0.0642112996130902
12.130772,12.376787759586737,0.0638862201059043
12.133156,12.36981254924881,0.0635947184887304
12.135552,12.362418030030303,0.0633139008516091
12.13794,12.359958877864411,0.0630199950441004
12.14032,12.35628902088502,0.0627352174007933
12.142716,12.351268689465266,0.0624620371120468
12.145104,12.344618344351431,0.0622073607336324
12.1475,12.33810776886446,0.0619496707706008
12.149895999999998,12.327592991884655,0.0617032295197239
12.152283999999998,12.321734042703742,0.0614514480507962
12.154664,12.319879295015664,0.0611884152865157
12.157068,12.317093381767805,0.0609268082491911
12.159451999999998,12.31696119557242,0.06066661146331
12.161832,12.318831110123456,0.0604013911474491
12.164236,12.320561255047627,0.0601407639178205
12.166624,12.322291399971803,0.059880798295995
12.169004,12.327746207135087,0.0596177115245466
12.171399999999998,12.335063345417932,0.0593532237513206
12.173787999999998,12.352902844112055,0.0590740612612016
12.176168,12.37367560911238,0.0587888453650083
12.178568,12.402037468217786,0.0584947834571277
12.180955999999998,12.439850752547834,0.05818966324862
12.183336,12.474730770571693,0.0578901582727883
12.185731999999998,12.505187278222134,0.0576114213801203
12.18812,12.534153541805354,0.0573477944637928
12.1905,12.563911201321496,0.0570871431090491
12.192896,12.593808630464496,0.0568232461020907
12.195284,12.619562088487802,0.0565725566628732
12.197664,12.6482488128173,0.0563169663461857
12.20006,12.674514127519805,0.0560771536514268
12.202444,12.702362234088143,0.0558442976930109
12.204844,12.728720096589267,0.0556258236382531
12.207248,12.748792117597416,0.0554280944566005
12.209632,12.76672226823229,0.0552387780405916
12.212012,12.782370778867024,0.0550613030722006
12.214408,12.794946253568703,0.0548923167569521
12.216796,12.802446591590916,0.0547360561444415
12.219176,12.805151332187371,0.0545855424162338
12.22158,12.798125108305465,0.0544505297329624
12.223968,12.794963316289532,0.0543106808240391
