Time,Force,Position
12.660116000000002,7.91523498121565,0.1565237132095953
12.6649,7.927432681291385,0.1563887866772018
12.667280000000002,7.937116423941507,0.1562820501298218
12.669684,7.960675102189684,0.1559621679243188
12.672072,7.984840080773546,0.1555746783991076
12.674452,8.00849320267821,0.1551786794022274
12.676848,8.029585145329017,0.1548481315611106
12.679236,8.054913606898136,0.154488911803228
12.681616000000002,8.08196462995995,0.1541171223694437
12.684012,8.11208868895482,0.1536962222274007
12.6864,8.137836459404518,0.1533156028536177
12.68878,8.162001437988382,0.1529470605769182
12.691176,8.192684575490693,0.1525009538307321
12.693560000000002,8.234913786762679,0.1519215478079443
12.695944,8.286734192886172,0.1512068650179592
12.698340000000002,8.328219230053485,0.1505970522882334
12.700724,8.366818222742845,0.1500094022357467
12.703124,8.410352582484817,0.1493644034622881
12.70552,8.45374717259993,0.1487247070157313
12.707904,8.489412898983097,0.1481869984135055
12.710284,8.522145359060069,0.1476890582324484
12.712684,8.560512034323951,0.1470877429550501
12.715072,8.590450997721586,0.1466323774011831
12.717452000000002,8.619132034477483,0.1462447332723745
12.719852,8.648557245338052,0.145884853038846
12.722236,8.674816872466948,0.1455406212552737
12.724616,8.697538828811833,0.1452007407830001
12.727012000000002,8.711460986238135,0.1449808861728871
12.729396,8.72733802258261,0.1447704816204044
12.731792,8.738279691874473,0.14462385285017
12.734188,8.755926511539887,0.1443633467592336
12.736572,8.771199143406546,0.1441151376340735
12.738952,8.780093385981619,0.1439358854713118
12.741348000000002,8.790338102997048,0.1437296858495994
12.743736000000002,8.801653755199117,0.1435106080406786
12.746128,8.819115479267296,0.1432064251381047
12.750912,8.81618600467684,0.1430568505725015
12.753292000000002,8.813254634228514,0.1430003736525261
12.755688,8.817353279377837,0.1428818686387619
12.758076,8.824944269340792,0.1427026014312843
12.760456,8.834816899303885,0.1424880457813407
12.76286,8.843386276654861,0.1422686389420836
12.765244,8.845809582139728,0.1421328231406324
12.767624,8.852748945796627,0.1419543712228965
12.77002,8.863180654267161,0.1417159416607595
12.772408,8.873240275685358,0.1414630827621197
12.774804,8.882648270797496,0.1412072831814403
12.7772,8.884839258856884,0.1410506487364134
12.779588,8.894200032140779,0.1408271663102901
12.781968,8.90034799986476,0.1406522250757207
12.784364,8.9090571468426,0.1404276878430698
12.786752,8.92149095605955,0.1401652410022372
12.789136,8.929081946022507,0.1399904379626032
12.791532,8.93224942561205,0.139885116321462
12.79392,8.932343869268534,0.1398204724957858
12.796304,8.941005794418128,0.1396308493810477
12.798704,8.956744956993612,0.1393466226844742
12.801092,8.96820037882254,0.1391277257756377
12.803468,8.980866505464968,0.1388893423354439
12.805864,8.991390761734118,0.1386827190620398
12.808252,8.990973348711409,0.1386095247885365
12.810632000000002,8.993209662741174,0.1385141994601764
12.813028,9.002662983823686,0.1383241327639674
12.815412000000002,9.008531412293946,0.1381660103109828
12.817808,9.01570309337632,0.1380140019161625
12.820204,9.023526400764757,0.137864788084881
12.822592,9.030278772966549,0.1377299475497037
12.824972,9.043037447407592,0.1375213611078125
12.827376,9.05700682666214,0.1372945378938077
12.829764,9.068182709237348,0.1370939313041901
12.832144,9.07148995845375,0.1369838503307585
12.834548000000002,9.070513466923597,0.1369346286085576
12.836936,9.075822816886417,0.1368009632487869
12.839316,9.081132166849232,0.1366672978890161
12.841716000000002,9.08751245199869,0.1365186525055682
12.8441,9.093613197894426,0.1363826813796309
12.84648,9.102507440469498,0.1362204134291119
12.848888,9.111541452671432,0.1360525775705429
12.851272000000002,9.118573364126949,0.1359096115136231
12.853656,9.124534340395826,0.1357810560142494
12.856052000000002,9.13664138853081,0.1355740203196568
12.858436,9.144884004799826,0.1354087993481532
12.86082,9.150705211441842,0.1352864689113497
12.863216,9.159739223643774,0.1351208210225325
12.865604,9.164257177673674,0.1349935440943129
12.867984,9.167704196516937,0.1348808057120633
12.87038,9.173944712039534,0.1347413659974684
12.872768,9.182886176442848,0.1345521154141983
12.875152,9.187451352300991,0.1343956155384431
12.877548,9.197883060771526,0.1341763049092247
12.879936,9.2206994607729,0.1338344675597455
12.882316,9.247008205587909,0.1334388461176526
12.884720000000002,9.27066322335044,0.1330679261867338
12.887104,9.295017089247276,0.1326698313656877
12.889484,9.31578606253186,0.1322986677273279
12.89188,9.332271295069884,0.1319830281749288
12.894268,9.346754426861496,0.131691678768638
12.896652,9.362588033093466,0.1313766230436313
12.899048,9.37711838671332,0.1310565138009999
12.901432,9.391788509960035,0.1307296785477241
12.903816,9.407389798766529,0.1303959040695864
12.906216,9.426855519438996,0.130023499595968
12.908604,9.442643799700592,0.1296539709328644
12.910988,9.455638583282852,0.1293104698849428
12.913384,9.470355928357808,0.1289550957256978
12.915772,9.487215143806043,0.1285728913663838
12.918152,9.506635538508135,0.1281494326569379
12.920548,9.519118465411198,0.1278010811130229
12.922936,9.528807895634928,0.1274753600249759
12.925328,9.532630793246266,0.1272082177240747
12.927732,9.53165809343185,0.1269879304575399
12.93012,9.531616559177214,0.1267610872951201
12.9325,9.529200837123827,0.1265413373596679
12.934892,9.522641143950745,0.1263678609541738
12.93728,9.520457739322833,0.1261665658623675
12.93966,9.525351572120808,0.1258902958536956
12.942056,9.529593778612726,0.1256112185310496
12.94444,9.532532732492529,0.1253267041186875
12.946836,9.536123312678388,0.1250456620139934
12.949232000000002,9.542367619916725,0.1247476013782856
12.951620000000002,9.5472614527147,0.1244737134703519
12.954,9.5507122632737,0.1241993123895056
12.956400000000002,9.555745865698537,0.1239207967538799
12.958784,9.560639698496516,0.1236475144982399
12.961164,9.565533531294491,0.1233738947175004
12.96356,9.568285493719191,0.1231259496953454
12.965948,9.569454664278055,0.1228833264312569
12.968332,9.571834539650416,0.1226223277834315
12.970736,9.580453034687508,0.1223216648373605
12.973120000000002,9.595449919016186,0.1219758817563427
12.9755,9.60779307629239,0.1216465265918354
12.977896,9.612966448344087,0.1213637068745382
12.980284,9.61972261226162,0.1210778696774239
12.982664,9.630203438418263,0.1207624442720624
12.98506,9.638682163828497,0.1204669339192554
12.987444,9.642505061439833,0.1202082534189143
12.98984,9.647818203118389,0.1199221585241131
12.992244,9.651780870356587,0.1196591874238504
12.994632,9.656674703154565,0.1193899642443384
12.997012000000002,9.665712507072234,0.119080183063699
12.999408,9.676380324683985,0.1187384327822146
13.001796,9.687187911922594,0.1183922232579786
13.004180000000002,9.699997599907624,0.1180291352792254
13.006576,9.71252774863893,0.1176760319661754
13.008960000000002,9.731064199609486,0.1172707115327893
13.01134,9.749088793900846,0.1168557016671436
13.013748,9.762689877818792,0.1164927027370255
13.016132,9.778944688789212,0.1161167115112135
13.018516000000002,9.792406003080297,0.1157619225950426
13.020912,9.803493129572626,0.1154127588023651
13.0233,9.816582356811374,0.1150457675106976
13.02568,9.835910203714848,0.1146440262457481
13.028076,9.851094079498631,0.1142825002917968
13.030464000000002,9.866277955282412,0.1139214962773566
13.032844,9.882532766252831,0.1135490107561954
13.035244,9.897576872409752,0.1131922818330359
13.037628000000002,9.908849094499317,0.1128905571349805
13.040012,9.922775043641357,0.1125759958277296
13.042408000000002,9.9325570216637,0.1123014647378377
13.044796000000002,9.934190827073518,0.1121032635199012
13.075852,9.77680316765291,0.111999207615987
13.078248000000002,9.769168747577448,0.111998265221061
13.080636000000002,9.761674097128846,0.1119921176967475
13.083016,9.75832341779994,0.1119472755705973
13.08542,9.756323212911392,0.1118813938785067
13.087808,9.750458576156872,0.1118440627316609
13.090188,9.75274211201488,0.1117349431437848
13.092588,9.75795891417908,0.1116028988000238
13.094972000000002,9.770252953769171,0.1114101731627292
13.097356,9.7836179285459,0.1112058780715531
13.099752,9.80433968000224,0.11093097596344
13.102140000000002,9.822267934779246,0.1106735526590543
13.10452,9.844200391049084,0.1103821560819689
13.106916000000002,9.87307031511795,0.1100385938357157
13.109304000000002,9.89886720325376,0.1097228039147236
13.111688,9.92559525694935,0.1093998676479032
13.114084000000002,9.954185641764496,0.109066082143313
13.116472000000002,9.980262069154028,0.1087417405223922
13.118868,10.00554710061064,0.1084184347897447
13.121272,10.030552592813532,0.108105394921661
13.12366,10.055418315389565,0.1077995258739811
13.126036,10.075069131659266,0.1075422554712995
13.128436,10.095231804608163,0.1072948809750406
13.13082,10.116837499796038,0.1070538140215499
13.133204,10.142028087596165,0.1067967961035286
13.135608,10.1726658991281,0.1065127998067959
13.137992,10.197949034726845,0.1062828386423773
13.140372,10.22323217032559,0.1060531795393108
13.142768,10.24344016924486,0.1058659793016749
13.145156,10.268443765589886,0.1056488126432621
13.147536,10.290234556374992,0.1054638317312252
13.14994,10.316681174958992,0.1052534631576611
13.152328,10.340846153542856,0.1050678165023298
13.154712,10.354069462834856,0.1049633142222345
13.20728,10.422409052319534,0.1049103934611584
13.209664,10.428927211237983,0.1048766535785556
13.212044,10.447085887582594,0.1047449727531769
13.214448,10.472321801353097,0.1045623262886419
13.216836,10.500677972884896,0.1043312914704061
13.219216,10.543747697775911,0.1039831295696078
13.221612,10.585094861174234,0.103642786313737
13.224,10.626721563826278,0.1032962538865886
13.22638,10.672679229053117,0.1028860575596817
13.228776,10.72361948316081,0.1024228172662011
13.23116,10.77726068614922,0.1019255962510921
13.233544000000002,10.83602424764535,0.1013672578682051
13.23594,10.901120872462691,0.1007399710476449
13.238324,10.96440238798872,0.1000967133485146
13.24072,11.0247978590368,0.0994466536978989
13.243116,11.0849610126594,0.0987804915432979
13.245504,11.141306956244268,0.0981152546344406
13.247884,11.203706423896634,0.0973908190695528
13.25028,11.263080077444185,0.0966645568299751
13.252668,11.322081643939397,0.0959269169081961
13.255048000000002,11.378429483382131,0.0952049654007353
13.257452,11.423743105734392,0.0945300142797928
13.259836,11.460024611742586,0.0938924899536812
13.262216,11.493931929952028,0.0932595427534685
13.264612,11.520901780362442,0.0926675235194305
13.267,11.536278335174933,0.0921385193501547
13.269396,11.551422572561949,0.0915942781978288
13.271792,11.561538895097732,0.0910554745414933
13.27418,11.57072405207374,0.0905212143717878
13.27656,11.568176143824964,0.0900461387638844
13.278964000000002,11.562834738896854,0.0895817474128349
13.281352000000002,11.551766570983212,0.0891419357155187
13.283732,11.531479295270406,0.0887576893341597
13.286136,11.51184364586366,0.0883771912373198
13.288524,11.49528103238997,0.0879780120213955
13.290908000000002,11.480580750035832,0.0875721705974594
13.293304,11.465321389174257,0.0871819659898137
13.295692,11.441634316446432,0.0868455190257252
13.298072,11.420461201144224,0.0865069911663471
13.300468,11.400079481774933,0.0861688003201724
13.302856000000002,11.37248075535289,0.0858713096854663
13.305236,11.351260418222438,0.0855547455623313
13.307632000000002,11.328130528144182,0.0852680469957764
13.310020000000002,11.299785731759597,0.0850120778656192
13.3124,11.27423443205434,0.084745629860294
13.314796,11.246121953095232,0.0845042861690565
13.317184,11.215168755628548,0.0842969318391417
13.319564,11.18523927152026,0.0841069263666554
13.32196,11.15540233521059,0.0839378036240573
13.324348,11.13380611931206,0.0837444432154827
13.326728,11.115655026398924,0.083546715255799
13.329124,11.1034630138968,0.0833440746246882
13.331516,11.094855894006926,0.083132944532667
13.333896,11.087552026729169,0.0829323201763354
13.336292,11.076336505757192,0.0827732098066535
13.33868,11.062699575158218,0.08263614054697
13.341076,11.04571006937247,0.0825237456657819
13.343472000000002,11.035378492132027,0.0823866123507575
13.345860000000002,11.02276527489145,0.0822673778815646
13.34824,11.005728547277458,0.0821797527418322
13.350636000000002,10.998422784141832,0.0820509001517285
13.353024,10.988975150632925,0.0819358710815116
13.355404,10.988187546415746,0.0817873076179608
13.3578,10.991916000370598,0.0816285177941172
13.360188,11.002302382870758,0.0814473825705032
13.362568,11.020697168356588,0.0812279736020717
13.364968,11.041233824215691,0.0809948292455481
13.367352,11.063912350448074,0.0807479559736505
13.369732,11.085008084814618,0.0804982826365722
13.372132,11.103310322501828,0.0802576293638641
13.37452,11.118259985002265,0.0800419623206309
13.376916,11.126691488584251,0.0798450777626746
13.379312,11.13391228735274,0.079659037316078
13.381700000000002,11.141552395001808,0.0794614014760253
13.38408,11.15347624339743,0.0792372840441769
13.386476000000002,11.167402192539468,0.0790042759160426
13.388864000000002,11.189476314294035,0.0787307671551633
13.391244,11.208337630488687,0.0784784190510285
13.39364,11.22533661556378,0.0782305596373918
13.396028,11.25141493881118,0.0779404399911281
13.398412,11.272697664632831,0.0776686190196557
13.400808,11.29290945526784,0.0774028297901699
13.403196,11.30967612291746,0.0771412290185964
13.405576,11.327653495380575,0.0768705674467102
13.407972,11.333618263365192,0.0766528029914833
13.41036,11.333017650603114,0.0764772220414397
13.412744,11.333208433773958,0.0763034928820761
13.41514,11.336192713624134,0.0761233667236343
13.417528,11.34462421720612,0.0759338722186988
13.419924000000002,11.353847116721026,0.075746118546811
13.42232,11.366562361049564,0.0755323982943037
13.424712,11.385795764296557,0.0753029798493401
13.427092000000002,11.404889397916682,0.0750771362892096
13.429492,11.425705593029509,0.0748523009468418
13.43188,11.445171313701977,0.074642506935279
13.434264,11.460073754374164,0.0744645048785648
13.43666,11.47162361985958,0.0743097878793574
13.439048,11.47930905347902,0.0741670997232298
13.441428000000002,11.49444381157669,0.0740076685048313
13.443832,11.50208202336789,0.0738908802416774
13.446216,11.51009232221143,0.0737874184111821
13.448596000000002,11.523829384040496,0.07366777829379
13.450992,11.532723626615564,0.0735873562438004
13.45338,11.53891692030992,0.0735344924244802
13.455764000000002,11.553770243296,0.0734548209962295
13.458156,11.576911508521466,0.0733355794836668
13.460544,11.599773234493211,0.0732244980801309
13.462924,11.621424255651462,0.0731241288593904
13.465320000000002,11.640142010503515,0.073034470180485
13.467704,11.6621651187141,0.072948669694179
13.470088,11.679345407670692,0.0729013761252744
13.472484,11.698388027746836,0.0728509385566199
13.474868,11.72450788524887,0.0727726195583944
13.477264000000002,11.747414937190992,0.0727118277766626
13.47966,11.768459658013551,0.0726550066263252
13.482048,11.797932090702368,0.0725571535003299
13.484428,11.824611026711844,0.0724650722306596
13.486824000000002,11.858227430520351,0.0723487441919889
13.489212000000002,11.887979402462884,0.072244795031693
13.491592,11.925227920711889,0.072102743444656
13.493992,11.963966683028106,0.0719445153081205
13.496380000000002,12.000051718291854,0.0717896382736095
13.49876,12.039768867996097,0.0716066886769604
13.501156000000002,12.081255801021278,0.0714003487286557
13.503544000000002,12.121299711807485,0.0711882363742283
13.505924,12.157479190727717,0.0709890988872675
13.508324000000002,12.194357517782253,0.0707728953506569
13.510712000000002,12.22965305297095,0.0705538544673127
13.513108,12.264296961853589,0.0703300256910143
13.515504,12.297125761444914,0.0700877934290147
13.517892,12.332935049170676,0.0698132460309902
13.520272000000002,12.362505717231713,0.0695446355491853
13.522668,12.385558226374304,0.0692894093377759
13.525056,12.407167713277918,0.0690265399098742
13.527436000000002,12.432269544995163,0.0687420344278201
13.529832,12.452855318540385,0.0684638696556265
13.53222,12.478376459138213,0.0681716025966219
13.5346,12.501104103056708,0.0678852322959322
13.537,12.519595228056891,0.067595550844806
13.539388,12.531568194138623,0.0673176516144876
13.541764,12.541958368354525,0.0670361559250718
13.544168,12.550765750704583,0.0667509981760752
13.546556,12.561063377121863,0.0664513357511724
13.548936,12.568567506859814,0.066156028437266
13.551332000000002,12.577142571784398,0.0658570940221047
13.553716,12.58413484484315,0.065554334338371
13.556112,12.588333621222562,0.0652557290652674
13.558508,12.592811936855698,0.0649506006344452
13.560892,12.599851431742689,0.0646268419341651
13.563272,12.603817890696629,0.0643138497560865
13.565668,12.606713414463922,0.0640056324221162
13.568052000000002,12.60853800304458,0.0637011540900299
13.570448,12.61022282199838,0.063399918396512
13.572844,12.61204741057904,0.0630946186158165
13.575228,12.609728028040006,0.062804424569376
13.577612000000002,12.604335609567917,0.0625239594659121
13.580008,12.596708772923932,0.0622338426837741
13.582396,12.59029264109345,0.0619361759810754
13.584776000000002,12.590674207435136,0.0616244849459594
13.587172,12.592778335269516,0.0613140363484729
13.589556000000002,12.597815729410092,0.0609979448609059
13.591952,12.603504749856723,0.0606878084199001
13.594352,12.60691213030322,0.0603901920598611
13.59674,12.615534417056049,0.0600753686148139
13.59912,12.619361106383126,0.0597685605891887
13.601524,12.620906155710063,0.059472955495442
13.603908,12.625104932089476,0.0591783021668669
13.606288,12.632236974775086,0.0588790159276064
13.608684,12.632943406340864,0.0586045486078433
13.611072,12.63579170827992,0.0583218011172061
13.613452,12.642923750965528,0.0580237186903957
13.615856,12.657272800703886,0.0577049290601137
13.618244,12.671109993763046,0.0573768075590265
13.620628,12.69109325868832,0.0570329043290953
13.623024,12.713218393986867,0.0566813130421885
13.625412,12.73976703965883,0.0563112837875828
13.627792,12.765104980517291,0.0559494551928279
13.630196000000002,12.78951175581598,0.0555895101775903
13.632584,12.807120832942498,0.0552406180646336
13.634964,12.819794543016403,0.0549000982698714
13.63736,12.827253346783976,0.0545755153942264
13.639748,12.836062624991907,0.0542413695770229
13.642128,12.8438009680132,0.0539106340013451
13.644524,12.844042764728025,0.0536061284015408
13.646912,12.847078058122182,0.0532999634170833
13.649292,12.854397092262897,0.0529789791311632
13.651688,12.857711924910776,0.05266595140341
13.654076,12.851947419386349,0.0523722582471181
13.656456000000002,12.850326884981614,0.0520665680763867
13.658852,12.844422609830328,0.0517747032420039
