Time,Force,Position
12.73132,7.882038577690148,0.1569540956043024
12.733704,7.892791359669038,0.156926915788701
12.7361,7.907735334595865,0.156788856879498
12.738495999999998,7.937625180307389,0.1564110829367034
12.740883999999998,7.969841991989423,0.1560624922935975
12.743264,7.995865509977105,0.1558592298226487
12.74566,8.016302034606115,0.155728135632234
12.748048,8.040417895503865,0.1554794924359818
12.750428,8.061507942296803,0.1552447038566224
12.752824,8.075148664611515,0.1551134276828308
12.755212,8.093677532150593,0.1549455421201015
12.757607999999998,8.127524357526708,0.1545615888420129
12.760004,8.165143066970177,0.1540896872944574
12.762387999999998,8.193170581562145,0.1537549290455923
12.764772,8.216727363952453,0.1535436114469591
12.767167999999998,8.252621616045358,0.1532053579308951
12.769555999999998,8.291681451869936,0.1528460449798259
12.77194,8.332231531761732,0.1524421119867775
12.774335999999998,8.375482560534246,0.1519770867979128
12.776723999999998,8.415428235948227,0.1515421414510311
12.7791,8.447645047630262,0.1512212730948987
12.781496,8.486007931178408,0.1508106980711314
12.783884,8.521996626927798,0.1504129406767579
12.786268,8.544576917787955,0.1501641334980399
12.788671999999998,8.561477667490825,0.1499578437574345
12.791055999999998,8.578657956447417,0.1497395792159747
12.793436,8.602496173949316,0.1494370817304666
12.795844,8.621119485144881,0.1492130727882592
12.798227999999998,8.643374910780945,0.1489174117637605
12.800611999999996,8.667352897909703,0.1486098947705774
12.803007999999998,8.69184274171766,0.148315257670675
12.805391999999998,8.71256070145826,0.1481010612624894
12.807776,8.73285935231828,0.1479063072439351
12.810171999999998,8.757488965753096,0.1476089626210785
12.812559999999998,8.78072277877718,0.1472820727053547
12.81494,8.798369598442592,0.1470253953380009
12.817335999999996,8.818158288481284,0.1467377515744029
12.819727999999998,8.842230719266528,0.14638562003939
12.822108,8.862066631133464,0.1460681891966283
12.824512,8.886186283746953,0.1456891349037158
12.826895999999998,8.915241303413055,0.1452514231538494
12.829276,8.94094374789238,0.1448738791348528
12.831671999999998,8.972884812036435,0.1444416363519081
12.834056,9.012135431031853,0.1439376354508914
12.836451999999998,9.047521618161298,0.1434759982059441
12.838848,9.08556153234322,0.1429957320245667
12.841231999999998,9.120109101711504,0.1425759552000989
12.843616,9.163316700371514,0.1420550476059545
12.84602,9.202287780113211,0.141567441703286
12.848404,9.2377211890709,0.1410855635145039
12.850784,9.270780410229833,0.1406189745863249
12.853179999999998,9.305469645082846,0.1401171637360967
12.855567999999998,9.339926562510383,0.1395961905714961
12.857948,9.372521148818365,0.1390961312785392
12.860343999999998,9.399528741767671,0.1386492808002894
12.862731999999998,9.420809571731452,0.1382643541192912
12.865128,9.443393654307346,0.1378885396643693
12.867524,9.463137018375663,0.1375729967599435
12.869908,9.485022252817258,0.1372288587904536
12.872287999999998,9.500529097967265,0.1369440968091208
12.874692,9.50937801457196,0.1367288518717289
12.87708,9.514362499310684,0.1365549911271077
12.879459999999998,9.513248134011542,0.1364265426189603
12.881856,9.510458429047944,0.136279886971566
12.884244,9.511580377778566,0.1360615971085157
12.88662,9.509396973150654,0.1358620634551834
12.889028,9.5085640429631,0.1356368850758766
12.891412,9.505077385723071,0.1354325993466455
12.893795999999998,9.499588627736628,0.1352502138203884
12.896192,9.487953797884073,0.1351416663715784
12.898575999999998,9.479112464710852,0.1350072075616861
12.900956,9.46878088747041,0.134903571143234
12.903351999999998,9.461614893961643,0.1347882235679044
12.905739999999998,9.45803379306513,0.134644975939285
12.908136,9.460319224781005,0.1344399291542085
12.910532,9.464327217989576,0.1342226243363234
12.91292,9.46274821783948,0.1340563275668127
12.915304,9.463218540264045,0.1338374685114513
12.9177,9.459312574143434,0.133648980308555
12.920088,9.454754981716766,0.1334570116729942
12.922468,9.452339259663376,0.1332367395591418
12.924864,9.452065407983262,0.1329880417890929
12.927252,9.454585052982486,0.1327135907212026
12.929631999999998,9.44988769092896,0.1325254805029436
12.932036,9.442768919248431,0.1323764020255296
12.934424,9.436162004247109,0.1322357889977057
12.936804,9.43514208260445,0.1320460363655565
12.9392,9.435332865775292,0.1318373646129261
12.941588,9.440319246371889,0.1315817815402765
12.943967999999998,9.454105425887066,0.1312350381084764
12.946364,9.461233676856937,0.1309519516691336
12.948752,9.46798984077447,0.1306555187664457
12.951131999999998,9.468926693907854,0.1303883506459474
12.953528,9.462833531443597,0.1301689956743122
12.955915999999998,9.452875937113362,0.1299870917015552
12.958312,9.446410687596764,0.1297534791512995
12.960708,9.446371049199998,0.1294394334222288
12.963096,9.445400245243455,0.1291341118127546
12.96548,9.446524089831945,0.1288313970575659
12.967876,9.450022122219188,0.1285208023895932
12.970264,9.453380384979573,0.1282159105699445
12.972648,9.45874074848637,0.1278908479698532
12.975044,9.460888306433256,0.127605106212858
12.977428,9.467412152925313,0.1272889102977059
12.979812,9.476729496096704,0.1269489288495691
12.982208,9.48339311221562,0.1266268837306527
12.984596,9.481024611990472,0.126373606503794
12.986976,9.477724946205546,0.1261285649225954
12.989376,9.46935014374115,0.1259383830091004
12.991764,9.458693701276614,0.1257803579166694
12.994144,9.453903791424471,0.1255652851520629
12.99654,9.448974111945466,0.1253556935632753
12.998928,9.448280951384776,0.1251239792143617
13.001312,9.450194296048313,0.1249042895569925
13.003708,9.457834403697378,0.1246335019751439
13.006096,9.46333264097317,0.1243899381894626
13.00848,9.461893410449935,0.1242160463956468
13.010876,9.459895101419256,0.1240639950441509
13.013264,9.462832159441191,0.1238647184715683
13.015643999999998,9.46884225339618,0.1236336030877333
13.01804,9.474060951418249,0.1234043459990451
13.020428,9.47476359126829,0.1232062540570931
13.022824,9.479610202238025,0.1229627252727099
13.025223999999998,9.48860078432745,0.1226751406293336
13.027611999999998,9.49652043123024,0.1224007060231912
13.029992,9.506861487760023,0.1220903846199525
13.032396,9.520787436902063,0.1217558828119627
13.034783999999998,9.534014537909805,0.1214487999244185
13.037164,9.55483073302263,0.1210795903586934
13.039559999999998,9.57285343145612,0.120731643955884
13.041947999999998,9.585009597277216,0.1204376955919875
13.044328,9.59488412309818,0.1201736328285584
13.046723999999998,9.602477008919006,0.1199401017393246
13.049112,9.61183967806077,0.1196672175228799
13.051492,9.619340016082976,0.1194102375895079
13.053895999999998,9.626840354105186,0.1191535739431309
13.056283999999998,9.637646045485925,0.118884533458749
13.058664,9.647241032053168,0.1186329936420115
13.061068,9.652971586754436,0.1184160742199523
13.063451999999998,9.65576887514951,0.1182259881086241
13.065832,9.659357559477504,0.1180342644866965
13.068227999999998,9.667042993096944,0.1178294913309839
13.070615999999998,9.678173549701782,0.1176102624825815
13.073,9.687022466306477,0.1174214551365437
13.075395999999998,9.69894441884423,0.117203632633123
13.077783999999998,9.709887983993964,0.1170222323919733
13.08016,9.723485276196168,0.1168276753110172
13.082556,9.73522023727882,0.1166455815044427
13.084944,9.745512176122492,0.116463057180106
13.087324,9.76087925164564,0.1162341249514898
13.08972,9.781973090154317,0.1159623945071754
13.092108,9.808933461275384,0.1156437128511515
13.094504,9.838827098702646,0.1153017128853377
13.096899999999998,9.870163758368884,0.1149643936266921
13.099287999999998,9.9000101739679,0.1146544091216439
13.101664,9.930508215872976,0.1143491601612057
13.104063999999996,9.961146027404912,0.1140400304265804
13.106452,9.99378593968327,0.1137137327191136
13.108828,10.027217247894542,0.1133874380928719
13.111231999999998,10.059437851292312,0.1130772393487827
13.113619999999996,10.094591720996284,0.1127458267288541
13.116,10.126300467714858,0.1124292033519248
13.118403999999998,10.150280350701486,0.1121722504823721
13.120791999999998,10.17025603219528,0.1119487383926718
13.123172,10.187438217009738,0.1117449505084395
13.125567999999998,10.208252516264697,0.1114947663862437
13.127955999999998,10.22399167884018,0.1112895224465126
13.130336,10.241872711788938,0.1110621622204516
13.132732,10.255050695110564,0.1108934130370572
13.13512,10.263805168058775,0.1107735243070354
13.1375,10.267764043581234,0.1106881434142709
13.1399,10.26785848723772,0.110631312021742
13.142284,10.266230369401512,0.1105812471073898
13.144668,10.262879690072603,0.1105378303705677
13.147064,10.25915692369136,0.1104806492339631
13.149452,10.257855566937115,0.110392905645595
13.151847999999998,10.253620943876674,0.1103269155252715
13.154243999999998,10.250597025629734,0.1102457472042833
13.156627999999998,10.244779610703455,0.1101813431867168
13.159012,10.240964296523591,0.1101008939055087
13.161407999999998,10.23356408973148,0.1100379452895376
13.163795999999998,10.230679941111395,0.1099520640033737
13.166176,10.233802094730562,0.1098187001819938
13.168575999999998,10.246143356148895,0.1096080189946011
13.17096,10.257134143126873,0.1094171201684093
13.173344,10.263049793425374,0.1092682650918167
13.175739999999998,10.273249184470432,0.109078794521667
13.178127999999996,10.285310906635043,0.1088792912890286
13.180508,10.298723103240016,0.1086592858218039
13.182904,10.313765313539069,0.1084100722705955
13.185292,10.330809624584536,0.1081449535014865
13.187687999999998,10.350275345257003,0.1078514277085155
13.190084,10.370812001116107,0.1075488283875108
13.192472,10.39442169290827,0.1072228696310533
13.194852,10.42268721249932,0.1068728816796313
13.197247999999998,10.44773992653046,0.1065546730894336
13.199635999999998,10.474282884628812,0.1062119374215816
13.202016,10.495890475674557,0.105904665278836
13.204411999999998,10.518429232280075,0.1055913351636339
13.206799999999998,10.537522865900204,0.1052891509612637
13.20918,10.55927022657281,0.1049771857695362
13.211576,10.57771223388688,0.1046731140687061
13.213964,10.593500514148475,0.1043814716949783
13.216359999999998,10.598486894745069,0.1041644229127758
13.218756,10.603613044968522,0.1039423505720871
13.221144,10.611672461498172,0.1037005349230438
13.223527999999998,10.616938381348488,0.1034743001063949
13.225924,10.62369454526602,0.1032263220003402
13.228312,10.631801183623912,0.1029597361210587
13.230691999999998,10.638836886795165,0.1027028188468622
13.233088,10.64494142440664,0.1024507449294774
13.235475999999998,10.646762221271562,0.1022366274690814
13.237859999999998,10.647651852576704,0.1020276997486336
13.240256,10.64146424645596,0.1018703588531448
13.242639999999998,10.629549877349683,0.1017461143720871
13.24502,10.616052716377569,0.1016219393453128
13.247419999999998,10.608142548764128,0.1014697129800269
13.249807999999998,10.6022344818971,0.1013031577212476
13.252188,10.60047038614977,0.1011046914735331
13.254583999999998,10.602291183014689,0.1008920113594809
13.256971999999998,10.599456152080718,0.1007023672091593
13.259356,10.597132977825948,0.1005216366103365
13.261751999999998,10.594670033944311,0.1003455296535296
13.264136,10.597794083421352,0.1001413088831159
13.266536,10.604270708085163,0.0999057160246682
13.268932,10.610095706442916,0.0996661936415729
13.27132,10.614709999987172,0.0994397799983262
13.273699999999998,10.611827747224956,0.0992766815451452
13.276104,10.612670156701856,0.0990963947722878
13.278492,10.614024422857948,0.0989250887250306
13.280872,10.619382890506875,0.0987276967846067
13.283268,10.625952062969306,0.0985165236134911
13.285656,10.62837726431204,0.0983358784024071
13.288035999999998,10.63480666714761,0.0981278044054681
13.290432,10.644448875543096,0.0978930806280456
13.29282,10.653299688005664,0.097657521253584
13.295199999999998,10.657354903042476,0.0974499470360604
13.297596,10.662620822892787,0.0972291034932149
13.299983999999998,10.66215997975757,0.0970389374031979
13.302364,10.665051711809127,0.0968192406653943
13.304764,10.669945544607105,0.0965859838425427
13.307152,10.676329621472297,0.0963312056453827
13.309535999999998,10.680432058337354,0.0960979260674649
13.311932,10.686444048150213,0.0958304876250994
13.31432,10.689243232403154,0.0955893349280184
13.3167,10.691483338148656,0.0953660552479394
13.3191,10.698146954267571,0.0951047202550202
13.321488,10.708442684826986,0.0948035187336104
13.323867999999996,10.711800947587369,0.0945446481456887
13.326268,10.71678922404183,0.0942601618066908
13.328656,10.7188442341901,0.0939931674104379
13.331039999999998,10.72383251064456,0.0937105383787491
13.333431999999998,10.73324429747244,0.0933894234251667
13.335819999999998,10.74479795467359,0.093052852228603
13.338216,10.757003238180802,0.0927228598765066
13.340612,10.772513875046544,0.0923903849533299
13.342996,10.783089144859678,0.0920846558957118
13.345375999999998,10.793384875419092,0.0917881602798391
13.347776,10.807405268217616,0.0914762888922046
13.35016,10.812206553216978,0.0912250639597835
13.352539999999998,10.821803435642089,0.0909518237575886
13.354944,10.83112077881348,0.0906883688290892
13.357332,10.84192836605209,0.0904033667868417
13.359711999999998,10.84989523478312,0.0901571893268237
13.362108,10.857862103514153,0.0899107890191745
13.364496,10.865456885192843,0.0896507495293526
13.366875999999998,10.871421653177462,0.0894170016376953
13.369272,10.879760608960831,0.0891860598037113
13.37166,10.892243535863894,0.0889279124876871
13.374056,10.903375988326598,0.0886869618156212
13.376452,10.912506340042889,0.0884571913566063
13.37884,10.916421785452842,0.0882620463211122
13.381224,10.92392212347505,0.0880585174978203
13.38362,10.928489195191062,0.0878700042410152
13.386004,10.929052065414243,0.0877036538929844
13.388384,10.927752604517869,0.0875440890722594
13.39078,10.9313885106741,0.0873585030231128
13.393168,10.934093251270555,0.0871762715828205
13.395552,10.936797991867014,0.0869945700467522
13.397948,10.944298329889222,0.0867910145393914
13.400336,10.947934236045455,0.0866061096545235
13.402715999999998,10.951709911828551,0.0864175838672785
13.405112,10.959210249850758,0.0862167925126728
13.4075,10.966990127126683,0.086007818677683
13.409896,10.978913975522309,0.0857743769536142
13.412292,10.994562486157044,0.0855294485217347
13.41468,11.006486334552667,0.0852967537715167
13.41706,11.016547851828731,0.0850710380302519
13.41946,11.027260995410858,0.0848515867101997
13.421844,11.0399762397394,0.0846226810016067
13.424228,11.054553815187496,0.0843875485550922
13.426624,11.076208628061485,0.084115328238563
13.429012,11.093999009069496,0.0838610515434636
13.431396,11.114443117129984,0.0836027621429218
13.433792,11.13595816037711,0.08333692585008
13.436176,11.163759045117208,0.0830350867673139
13.438555999999998,11.194213656909778,0.0827303255773651
13.440952,11.230534801314745,0.0824025976874185
13.443336,11.265785010533063,0.0820829468378927
13.445732,11.305318960497944,0.0817384583440708
13.448135999999998,11.3445733712091,0.0814027346214818
13.450523999999998,11.381126833039538,0.0810969865678769
13.452904,11.414327719683204,0.0808171055228068
13.455299999999998,11.448040463006064,0.0805472467580002
13.457687999999996,11.477189926328652,0.0803132264728345
13.460064,11.5040577496511,0.0800980659458424
13.462467999999998,11.53679210558594,0.079859641523803
13.464855999999996,11.56952646152078,0.0796217838294822
13.467236,11.600538255962924,0.0793864199444207
13.469628,11.630479115218428,0.0791589978118145
13.472016,11.665355341526542,0.0789131404517783
13.474396,11.696227366341828,0.0786869801122211
13.4768,11.726680082276529,0.0784728532955835
13.479184,11.756201632651456,0.078262390396908
13.481564,11.786374809332438,0.0780572304737735
13.483964,11.813195410826642,0.0778771649694376
13.486348,11.835080645268238,0.0777170912684238
13.488727999999998,11.85081980784372,0.0775874259990678
13.491128,11.865348265605704,0.0774677370148934
13.493512,11.87480158668822,0.077371803240649
13.495908,11.884254907770732,0.0772759526817027
13.498303999999996,11.89855104810724,0.0771410172149012
13.500688,11.91619976363052,0.076984837065358
13.503072,11.932405456914829,0.0768220775247097
13.505468,11.952103495012771,0.0766341304982132
13.507856,11.968216640498463,0.0764512619944832
13.510236,11.983538390051235,0.076268211662371
13.512639999999998,12.001933175537063,0.0760721060818742
13.515024,12.019396795463114,0.0758784518664674
13.517408,12.034998084269606,0.0756893916500307
13.519804,12.042730739717292,0.0755291334335589
13.522192,12.04860106404542,0.0753729943792394
13.524572,12.054611158000409,0.0752131747143491
13.526975999999998,12.0588986904627,0.075054014474452
13.529363999999998,12.066678567738627,0.0748707031673177
13.531744,12.071013322029165,0.0746884736550475
13.534143999999998,12.07804902520042,0.0744799097682713
13.536531999999998,12.090858713185447,0.0742327666438073
13.538912,12.110233781917168,0.0739494552498033
13.541308,12.130679785835524,0.0736607247379035
13.543696,12.151824637888184,0.0733543792581761
13.546076,12.167894353261367,0.0730696858110254
13.548479999999998,12.178237305649024,0.072800529745462
13.550867999999998,12.190722128409956,0.0725208755733461
13.553248,12.200553224118414,0.0722439583043291
13.555643999999996,12.214528290946566,0.0719488722699402
13.558032,12.224638925908746,0.0716651246574107
13.560412,12.232235603445304,0.0713807739275432
13.562815999999998,12.23997205060873,0.0710927546636857
13.565203999999998,12.248919202585652,0.0707959169356083
13.567584,12.264291965682403,0.0704677691560314
13.569979999999996,12.283948469525711,0.0701191912766964
13.572368,12.304583360757045,0.0697464455793134
13.574752,12.324566625682316,0.0693680783885102
13.577147999999998,12.338031731689142,0.0690017510649884
13.579535999999996,12.350286132882466,0.0686432066505472
13.581916,12.36226099482207,0.0682925779605944
13.584312,12.365947914522286,0.0679765102746002
13.5867,12.359764100117278,0.0676903349088027
13.58908,12.352788889779353,0.0674019990126026
13.591483999999998,12.343532039441287,0.0671269702788666
13.593871999999998,12.33613752022278,0.066848641952016
13.596252,12.33181603693733,0.066558326387127
13.598655999999998,12.323490352159045,0.0662805790629127
13.601043999999998,12.314885128127038,0.0660095962910688
13.603424,12.304417572975476,0.0657414399511312
13.605823999999998,12.297954219316743,0.0654607644568238
13.608211999999998,12.288138290471244,0.0651977751469812
13.610592,12.27925352718552,0.0649332863588146
13.612987999999998,12.272790173526792,0.0646525732734483
13.615375999999998,12.260040978375091,0.0643971168166847
13.61776,12.2431478121037,0.0641570523919417
13.620151999999996,12.225416028071148,0.0639377814663411
13.62254,12.209406805531287,0.0637191139896073
13.624935999999998,12.19884480672324,0.0634964755247655
13.627332,12.193218174967804,0.0632609105815707
13.62972,12.188382939145283,0.0630279509990574
13.632099999999998,12.185270264815465,0.0627952330714512
13.6345,12.19002622384445,0.0625429346121862
13.636883999999998,12.195853118060072,0.0622862359933639
13.639264,12.205684213768532,0.0620186514949154
13.641659999999998,12.214863683170927,0.061745399463646
13.644047999999998,12.224834548506248,0.061475328789239
13.646428,12.238809615334402,0.0611943359882987
13.648823999999998,12.251713746975916,0.060917502970959
13.651211999999996,12.264198569736848,0.0606511450752824
13.653607999999998,12.271608255818307,0.0604002654427483
13.656004,12.281951208205964,0.0601427131066492
13.658388,12.29215439096676,0.0598890472078702
13.660771999999998,12.294721257794222,0.0596694441647966
13.663168,12.29942999499497,0.0594405917037863
13.665556,12.308142933688544,0.0592015851162336
13.667935999999996,12.315273080516285,0.0589572910705119
13.67034,12.323334392903805,0.0587127306999987
13.672728,12.330464539731544,0.0584699651489978
13.675107999999998,12.335872125066588,0.0582261425967116
13.677504,12.34249041521513,0.0579756044337137
