Time,Force,Position
12.281192,7.918750424354468,0.157489190795791
12.283588,7.95552862017891,0.1571244472112874
12.285976,7.961023065738964,0.1570176599512772
12.288356,7.971267782754393,0.1567802682157309
12.290752,7.98938113312863,0.1564287724380468
12.293136,8.001208642009894,0.1561821671868531
12.295536,8.018018739772018,0.155812184641333
12.297931999999998,8.035527685668441,0.1554017953159752
12.300319999999996,8.048054042684008,0.1551127885812899
12.3027,8.058576403095287,0.1549638279624756
12.305103999999998,8.080131084739179,0.1547794253075431
12.307491999999998,8.107365307540359,0.1545457820265588
12.309872,8.128919989184253,0.1543548679273487
12.312267999999998,8.149870266350328,0.1541303630620676
12.314655999999998,8.167188429075912,0.1539871606718375
12.31704,8.19069988549585,0.1537113860039798
12.319435999999998,8.213933698519934,0.1533453469610337
12.321823999999998,8.22846215628192,0.1530332035090336
12.324208,8.241175504752592,0.1527128337691891
12.326603999999998,8.249372795051231,0.1524506529741514
12.328988,8.253937970909375,0.152266652397122
12.331372,8.271539464604414,0.1519197834243211
12.333767999999996,8.295798886844763,0.1514789528437187
12.336156,8.310047805353028,0.151195818613062
12.338536,8.319965761286497,0.1510235881308689
12.340944,8.34031163397476,0.1507826292591848
12.343327999999998,8.367640300432425,0.1505025888715528
12.345712,8.396738750211032,0.1501695937581815
12.348112,8.428026292191156,0.1497705110721774
12.350499999999998,8.460012682305582,0.1493477377174101
12.35288,8.478962754583112,0.1490802180716243
12.35528,8.49982237980844,0.1487565141151359
12.357668,8.52366249316821,0.1483565875429112
12.360048,8.537818863877858,0.1480525259037255
12.362443999999998,8.551603147535168,0.1477356475614414
12.364831999999998,8.561568325296875,0.1475327803443613
12.367216,8.576746513507048,0.1473453558961189
12.369616,8.598675178061148,0.1470984949294265
12.371999999999998,8.61981244668233,0.1468583422705111
12.374383999999996,8.64625716940846,0.1465723200299394
12.376779999999998,8.673585835866124,0.1463125505575905
12.379167999999998,8.692486790457542,0.1461828865622063
12.381548,8.710596349116042,0.1460572893577561
12.383943999999998,8.723026366617255,0.1459665582838628
12.386331999999998,8.72949730370746,0.1459251720528064
12.388712,8.731871491506213,0.1459121274241121
12.391108,8.739088498558962,0.1458071790606777
12.398272,8.736483889192602,0.1457047575732336
12.40066,8.736950419901424,0.1456526892068366
12.403044,8.735786936916169,0.1456422852937616
12.40544,8.735926706543031,0.1456360480709538
12.407828,8.746960923633509,0.1455180079589202
12.410223999999998,8.759717702216685,0.1453871103445135
12.41262,8.777409847852475,0.1451940619907731
12.415007999999998,8.799665273488536,0.1449280457069058
12.417388,8.821688381699122,0.1446412154008273
12.419783999999998,8.839894279871977,0.1443680015401656
12.422171999999998,8.844691773155597,0.1442207563062639
12.424552,8.848977409760021,0.1440662098501044
12.426956,8.860060744536614,0.1438304906312769
12.429344,8.872494553753564,0.1435670200371679
12.431724,8.89507863632946,0.1431702327356387
12.434119999999998,8.92166692039819,0.1427206512395565
12.436507999999998,8.95370242819873,0.1422217675785423
12.438891999999996,8.985550944544164,0.1417712988404408
12.441287999999998,9.020704814248132,0.1413065907782377
12.443675999999998,9.0570693887656,0.1408158440363067
12.446056,9.101210048843258,0.1402044476671836
12.448451999999998,9.14134650742808,0.1396489591378172
12.450839999999998,9.18935159937171,0.139008555239067
12.45322,9.242339280196196,0.1382906862724592
12.455612,9.28592275762428,0.1376415151717817
12.458,9.321545053894942,0.1370555686693779
12.460392,9.351720126433792,0.1365209567634942
12.462787999999998,9.376959831920033,0.1360488067678652
12.465175999999998,9.407274674085745,0.1355205731950242
12.467552,9.435168106624458,0.1350276980699464
12.469955999999998,9.46822922364126,0.1344945948050812
12.472343999999998,9.499939866217703,0.1339896797210189
12.474724,9.532441904727069,0.1334875777155486
12.477119999999998,9.56601487842307,0.1329744561876968
12.479507999999996,9.588925722080928,0.1325739029656876
12.481903999999998,9.611836565738788,0.1321749436246264
12.484308,9.63288507827709,0.131797437637268
12.486692,9.64532078335191,0.1314766255832037
12.489071999999998,9.650726472829083,0.1312062544111256
12.491468,9.659344967866174,0.1308943400021417
12.493856,9.65860458547724,0.1306946155370793
12.496235999999998,9.660937239021356,0.1304603105189548
12.546411999999998,9.23705889195688,0.1304466866874431
12.548819999999996,9.228310106582276,0.1303303877399491
12.551208,9.223285983446784,0.1301813482382595
12.553588,9.224407932177405,0.1299619744742726
12.555991999999998,9.225297563482547,0.1297242819328518
12.558376,9.228980691467024,0.1294622447629554
12.56076,9.240625000608928,0.1291437382667855
12.563155999999998,9.253572562362944,0.1288319986708178
12.565543999999996,9.26703198079616,0.1285305904818017
12.567924,9.279560233669596,0.1282379596967759
12.57032,9.294183135088067,0.1279509120463389
12.572708,9.317838152850603,0.1275979999873836
12.575088,9.346009228785167,0.1272142176492781
12.577484,9.374320074346594,0.1268256211245361
12.579876,9.408776991774127,0.1263719841296539
12.582256,9.446027405881,0.1258963697505936
12.584659999999998,9.487142251853845,0.1253817839752759
12.587044,9.526302218908516,0.12486045707553
12.589428,9.567231969284128,0.1243067417909214
12.591824,9.604437057420624,0.1237814564480695
12.594208,9.640850749624208,0.1232588701812623
12.596588,9.670699061081097,0.1228201411989686
12.598992,9.700687142164842,0.1223780408873774
12.60138,9.722154963583725,0.1220090822078493
12.60376,9.740921836121888,0.1216887686538709
12.606163999999998,9.759409169406332,0.1213797308937943
12.608551999999998,9.77603417157122,0.1210862276554427
12.610932,9.796011748922885,0.120752870051042
12.613327999999996,9.813615138475791,0.1204258088870078
12.615716,9.830427132095783,0.1201007902990546
12.618096,9.840301657916749,0.1198399730553348
12.620499999999998,9.843518255192404,0.1196347128087579
12.622887999999998,9.83942529761669,0.1194802259477472
12.625268,9.832399073734782,0.1193516749979257
12.627663999999998,9.819226777986763,0.1192858189202769
12.630051999999996,9.803912611865467,0.1192440484732734
12.637216,9.749634949433952,0.1192328551832225
12.639596,9.73492518779047,0.1192227837487262
12.641992,9.723940088386106,0.1191851854215772
12.64438,9.71924083047471,0.1190813231013424
12.64676,9.713610407003536,0.1189841531502384
12.649156,9.713986285771613,0.1188313583434645
12.651544,9.711708437487212,0.1186930072588771
12.653928,9.709570358829671,0.1185494996146383
12.656324,9.710924624985772,0.118360902457604
12.658708,9.70534142334284,0.1182338905910396
12.661104,9.700689387259686,0.1181002072417406
12.6635,9.699901783042504,0.1179357360589671
12.665888,9.706331185878073,0.1176998858841942
12.668268,9.716625020579617,0.1174332552273044
12.670664,9.735718654199747,0.1170944959227291
12.673052,9.762820690805542,0.116686178226888
12.675432,9.790993662597977,0.1162652702423936
12.677828,9.825452475883385,0.1157848333672526
12.680216,9.859539202116451,0.1152925482668554
12.682591999999998,9.893905467603242,0.1147878656435383
12.685,9.930273833836448,0.1142648059931995
12.687388,9.959844501897484,0.1137988883612082
12.689768,9.98261747178635,0.1133869854889862
12.692171999999998,10.002457175369022,0.1130013738133577
12.694559999999996,10.022296878951696,0.1126163797981492
12.69694,10.037573302534094,0.1122865492787419
12.699343999999998,10.05378089167627,0.111948798358504
12.701731999999998,10.070919646378226,0.1116058682269563
12.704112,10.084566056266546,0.1113083161769168
12.706511999999998,10.104078998767257,0.1109650824034615
12.708895999999998,10.123312402014244,0.110632428322614
12.711276,10.13761043820862,0.1103407869902034
12.713672,10.148044042537023,0.1100785443785756
12.71606,10.154752984626311,0.109840199990561
12.71844,10.152382588543295,0.1096798159620027
12.72084,10.14386612059417,0.1095743304576263
12.723228,10.140285019697655,0.1094305149021118
12.725608,10.128276206934892,0.1093663600928968
12.728004,10.117710416411104,0.1093052365819881
12.730392,10.11207999293993,0.1092063727222403
12.732776,10.107520504655398,0.1090971441393734
12.735172,10.10375241230378,0.1089869873775609
12.737556,10.104640147751054,0.1088487459674516
12.73994,10.10804184062394,0.1087041262843092
12.742336,10.114376799803026,0.1085389287238789
12.744724,10.124995499728662,0.1083327456445273
12.74712,10.142551667453327,0.1080754735593384
12.749515999999998,10.159036899991357,0.1078290470630149
12.751903999999998,10.17151793103655,0.1076126603756564
12.754284,10.178132429469354,0.1074385895767391
12.756679999999998,10.185678093461936,0.1072594497247567
12.759067999999996,10.19881075081319,0.1070489514490011
12.761448,10.218182027829169,0.1068120909948955
12.763844,10.241417736711124,0.1065500148081225
12.766232,10.271590913392105,0.1062368670537111
12.768616,10.302555486006002,0.1059229523617663
12.771012,10.32830515231357,0.105656191588252
12.773396,10.36020089048725,0.1053394879820513
12.77578,10.392096628660928,0.1050253109203464
12.778176,10.420779561274692,0.104742786432235
12.780564,10.451045285754292,0.1044617318005085
12.782959999999996,10.484523815793803,0.1041525155604451
12.785355999999998,10.521075381766376,0.1038220412023575
12.787743999999998,10.55497322068647,0.1035037378314748
12.790124,10.586729189233289,0.1032068681186229
12.792519999999998,10.619136784086168,0.1029170378792182
12.794907999999998,10.648611112632848,0.102649881348942
12.797292,10.679296145993028,0.1023700020425717
12.799687999999998,10.71491654640582,0.1020563346699556
12.802075999999998,10.755192774617502,0.1017190009892439
12.804456,10.795748542082908,0.1013744222833979
12.806851999999996,10.828435676189503,0.1010810776052953
12.80924,10.855675586564292,0.1008131263040435
12.811624,10.879702691379162,0.1005732329116695
12.814019999999998,10.89865465951456,0.1003703648310889
12.816407999999996,10.92095920283674,0.1001372362538434
12.818788,10.943683055039491,0.099890498633671
12.821196,10.961611309816496,0.0996717016974227
12.823579999999998,10.977677233473948,0.0994627862891389
12.82596,10.994162466011971,0.0992410383429213
12.828359999999998,11.00734234519147,0.099024694692793
12.830747999999998,11.018799662878266,0.0988137316402825
12.833128,11.024809756833257,0.0986252842922012
12.835527999999998,11.027886584482046,0.0984538126064213
12.837911999999998,11.027518289145446,0.0982906782407508
12.840292,11.02226184858448,0.0981315163326502
12.842691999999998,11.013280745784396,0.0979894284743736
12.845076,11.003508247051398,0.0978471652640734
12.84746,10.99550553163934,0.0976747236262458
12.849856,10.987270498801806,0.0974850509918033
12.852244,10.981177336337543,0.0972790948770172
12.854624,10.980858158687058,0.0970179271853083
12.85702,10.980958289917153,0.0967436184460084
12.859412,10.983899139654826,0.0964314089612099
12.861803999999998,10.990192564579273,0.0960898907841099
12.8642,10.99196993133169,0.09576483947265
12.866587999999998,10.994166606964685,0.0954268034929083
12.868968,10.99678259147826,0.0950750718655735
12.871372,11.000888820059057,0.0947030538814082
12.873755999999998,11.002992947893434,0.0943428751523545
12.876136,11.001884270167896,0.0940059879344854
12.87854,11.001846527628995,0.0936615905870344
12.880928,11.00073784990346,0.0933241937316278
12.883307999999998,11.00219035143178,0.092956703871408
12.885704,11.006436349639436,0.0925770258337281
12.888092,11.014779097138542,0.0921956302631413
12.890472,11.025123945384063,0.0918021666291255
12.892867999999998,11.034397858442947,0.0914170631164336
12.895255999999998,11.04404385855417,0.0910479735129927
12.897636,11.052479153851891,0.0906922534380994
12.900035999999998,11.05383721172373,0.0903792258765221
12.902423999999998,11.054496421461264,0.0900883216527426
12.904804,11.056458883810912,0.089807428489164
12.907199999999998,11.055580627652985,0.0895634857820218
12.909587999999998,11.05069817000222,0.0893418774361863
12.911984,11.047118964963571,0.0891298488368104
12.91438,11.042561372536904,0.0889471514116795
12.916764,11.040238198282134,0.0887707741496143
12.919143999999998,11.033211974400226,0.0886377221599323
12.921544,11.029910412757433,0.08849076726074
12.923927999999998,11.033686088540524,0.0883027485691698
12.926311999999998,11.03704245544304,0.0881279512402834
12.928708,11.044914880517586,0.0879404162685969
12.931095999999998,11.052879853390747,0.0877748558522065
12.933476,11.06191576145055,0.087602284774473
12.935876,11.071231208764072,0.0874223962080624
12.938263999999998,11.078265016077458,0.087261524283323
12.940644,11.088883716003096,0.0870923274666808
12.943039999999998,11.092425178502843,0.0869624908434508
12.945427999999998,11.09633872805493,0.0868462637325679
12.947824,11.106258579846267,0.0866981624872966
12.95022,11.116178431637604,0.0865505870148735
12.952608,11.12637782268266,0.0863952733259306
12.954987999999998,11.13592558742166,0.0862344992362743
12.957388,11.149198014399772,0.0860609188197882
12.959776,11.164752081378024,0.0858693677046691
12.962155999999998,11.183798493169906,0.0856482413146866
12.96456,11.204055609775292,0.0854168909707033
12.966948,11.230598567873644,0.0851467438585146
12.969328,11.257001756345138,0.0848825175503582
12.971724,11.27805026888344,0.08465477249044
12.974112,11.297236450302188,0.0844334728793335
12.976492,11.314560300601377,0.0842190017518651
12.978888,11.336167891647118,0.0839777742302132
12.981276,11.355493842692724,0.0837550692643801
12.983655999999998,11.367742556312445,0.0835687713650496
12.986056,11.380922435491938,0.0833791118276845
12.98844,11.39065719168604,0.0831938061824936
12.990823999999998,11.407748724559752,0.0829640206362102
12.99322,11.420603738515153,0.0827361774742264
12.995608,11.430385716537495,0.0825256986979057
12.997987999999998,11.438165593813428,0.0823251626049949
13.000388,11.446085240716217,0.0821213391709047
13.002771999999998,11.458940254671615,0.0818959863329275
13.005155999999998,11.474076908627156,0.0816545087335966
13.007552,11.484138425903222,0.0814389083087116
13.00994,11.489124806499817,0.0812490303691855
13.01232,11.491177920790214,0.0810716211489069
13.01472,11.490297768774417,0.0809068246186579
13.017108,11.486903659333006,0.0807422862458467
13.019504,11.484720254705092,0.0805668199724588
13.0219,11.484538950823596,0.0803822065387239
13.024288,11.487290913248296,0.0801864057099801
13.026668,11.485107508620382,0.0800119788520977
13.029064,11.485065974365748,0.0798246611828055
13.031452,11.49289307346992,0.0796049180759477
13.033836,11.502862042947369,0.0793724657896556
13.036232,11.512411703544238,0.0791516735351011
13.038616,11.517817393021414,0.0789534112511596
13.041,11.52666820548398,0.0787524689486801
13.043396,11.536450183506329,0.0785490719181084
13.045784,11.550515902275224,0.0783209102896413
13.048163999999998,11.561368815484208,0.0781119782518931
13.05056,11.569288462386996,0.077915177932806
13.052948,11.571993202983451,0.0777463069002624
13.055344,11.581635411378937,0.0775495402514426
13.05774,11.597144152386813,0.0773311254607312
13.060128,11.614654994141103,0.0771045543030568
13.062508,11.635099102201591,0.0768684551968213
13.064904,11.658057167687696,0.0766339810556653
13.067292,11.68609036985327,0.0763781857402861
13.069672,11.713983802391985,0.076127322536019
13.072072,11.737361176758668,0.0758847595953124
13.07446,11.760878320752212,0.0756384429040918
13.07684,11.784395464745756,0.075393231677338
13.079236,11.80404817687332,0.0751613626380605
13.081624,11.82570298974731,0.0749230176029596
13.084008,11.851501773740988,0.0746660112349807
13.086404,11.877580096988387,0.0744016755976933
13.088792,11.903006793929732,0.0741320994812688
13.091176,11.929504426057717,0.0738575470816595
13.093572,11.95320856150636,0.0735909335210847
13.09596,11.980125502514923,0.0733074476151778
13.09834,12.01011547945654,0.0730123931876507
13.100736,12.041316161211656,0.072707622517908
13.103124,12.062785878488407,0.0724335413442219
13.105508,12.080810472779769,0.072160980971953
13.107904,12.095110404832017,0.0718960508053434
13.110292,12.103543804271869,0.0716502222512388
13.112684,12.107321375912836,0.0714137302920586
13.115083999999998,12.107094746060966,0.0711929700114438
13.117471999999998,12.104493928410342,0.0709666129354861
13.119856,12.104826377065914,0.0707312320546447
13.122251999999998,12.106229760908125,0.0704904355114999
13.124639999999998,12.106841748817416,0.0702481358600049
13.127024,12.108664441540204,0.0699967909439166
13.129419999999998,12.10769363758366,0.0697513912052425
13.131807999999998,12.100996070641584,0.069519828085233
13.134188,12.094298503699507,0.0692879794595297
13.136587999999998,12.089463267876992,0.069052904102438
13.138975999999998,12.083976405748418,0.0688124749590238
13.141356,12.07727883880634,0.0685807741523853
13.143755999999998,12.067648005558071,0.068357263815868
13.146143999999998,12.05201087007055,0.0681538231533196
13.148524,12.040517705702722,0.0679336146838592
13.150923999999998,12.037824340253485,0.0676885373953663
13.153311999999998,12.034571896296804,0.067457604701206
13.155696,12.035044114579232,0.0672204937779484
13.158091999999998,12.035516332861665,0.0669823961558926
13.160479999999998,12.03999275263693,0.0667309816331487
13.162864,12.04181544535972,0.0664800260589631
13.165259999999998,12.04428976438857,0.066234555404695
13.167647999999998,12.045273839350196,0.0660053625415418
13.170028,12.045186979125187,0.0657812099442764
13.172427999999998,12.04496034927332,0.0655608406197886
13.174815999999998,12.043523014607947,0.0653490185606382
13.177199999999996,12.040083579196164,0.0651433138583587
13.179595999999998,12.039437640463714,0.0649332093343811
13.181983999999998,12.0415851984106,0.0647195064763106
13.184364,12.046014396357624,0.0644934638567596
13.186763999999998,12.051234990237564,0.0642702659848153
13.189151999999998,12.056315814490643,0.0640504870773785
13.191535999999996,12.0652610706097,0.0638225404604164
13.193931999999998,12.075277261915389,0.0635891427081104
13.196319999999998,12.081940878034304,0.0633745600338711
13.198703999999998,12.084879831914106,0.063165318059193
13.2011,12.091962756913604,0.0629413873401042
13.203487999999998,12.098254285980182,0.0627155542903589
13.205871999999998,12.107339311726095,0.0624860120322279
13.208272,12.115493171912233,0.0622581676129159
13.21066,12.129094255830177,0.0620277470895469
13.213043999999998,12.144417901240818,0.0617990470312627
13.21544,12.158950150718542,0.0615679102915173
13.217832,12.176275896875598,0.0613342644766467
13.220207999999998,12.194532808592438,0.0611002514386941
13.222612,12.214000425122777,0.0608585216191608
13.225,12.236401307959303,0.0606107214510225
13.227379999999998,12.258662421168976,0.0603668736663208
13.229784,12.278641894378508,0.0601362417765331
13.232172,12.293266691654848,0.0599284082044235
13.234552,12.30682055374455,0.0597255725607003
13.236948,12.32130558139403,0.0595219162420395
13.239332,12.331646637923816,0.0593325081884399
13.241711999999998,12.346643522252494,0.0591392025555519
13.244108,12.360709241021391,0.0589468574094191
13.246496,12.37542658609635,0.0587607770334951
13.248875999999996,12.386419268932196,0.0585787813435878
13.251271999999998,12.398994743633878,0.0584026299727099
13.253659999999998,12.413851858335695,0.058215326815313
13.25604,12.42828966415693,0.0580385729212106
13.258439999999998,12.438863038112196,0.0578688150699816
13.260827999999998,12.449576181694315,0.0576961690129034
13.263208,12.462291426022857,0.0575189261052505
13.265603999999998,12.470211072925643,0.0573487658783627
13.267991999999998,12.476268388708876,0.0571802406849246
13.270376,12.485119201171443,0.0570103677976258
13.272776,12.49369047438029,0.0568477356332296
13.275163999999998,12.50147035165622,0.0566824665626748
13.277544,12.510460933745648,0.0565101406006934
13.279939999999998,12.524666422141408,0.0563217342237176
