Time,Force,Position
14.854371999999998,5.406217120674321,0.1664243023233155
14.856756,5.57076887774583,0.1648900467269383
14.85914,5.724894613920411,0.1633920478368115
14.861535999999996,5.865708284720114,0.1619796622686555
14.897384,6.158056178714633,0.1613714778789253
14.899772,6.171135926664036,0.1613592991452038
14.902151999999996,6.189243589464664,0.1612828811232502
14.904547999999998,6.206233095250414,0.1612773686293547
14.906935999999998,6.22960099032775,0.1611713045356916
14.909319999999996,6.25725262615164,0.1609714509794951
14.911715999999998,6.28774498048311,0.1606696005997225
14.914103999999998,6.31893618294888,0.1603196084076112
14.916484,6.348452045750196,0.1599422845338523
14.918883999999998,6.378387217432093,0.1595401584379797
14.921271999999998,6.408554706539468,0.159175535775818
14.923652,6.445752211244489,0.158696592167108
14.926047999999998,6.4856034430019855,0.1581748154838104
14.928435999999998,6.524243969945982,0.1576953364751047
14.930816,6.563256583942318,0.1572532780072804
14.933211999999996,6.607157343163022,0.1567697230984546
14.9356,6.6525011246227015,0.1562842531754312
14.93798,6.694771870149326,0.1558648888067713
14.940388,6.743096139743445,0.1552874496055082
14.942776,6.7876031992998325,0.1547474525293244
14.945156,6.82745443105733,0.1542956811991794
14.947551999999998,6.864000309456291,0.1538870746574246
14.949939999999998,6.900872948937217,0.1534206884938838
14.952324,6.936908866514853,0.1528849915814332
14.954728,6.966334077375421,0.1524226026398601
14.957112,6.994269044168772,0.1520144774315223
14.959492,7.028442630626849,0.1515296644889872
14.961887999999998,7.063687152271567,0.1510235432316959
14.964275999999998,7.104518667274955,0.1504388841236381
14.966659999999996,7.148562987838258,0.1498011451920036
14.969055999999998,7.189953581349086,0.149201718232991
14.971439999999998,7.23562791560647,0.1485267610825997
14.973824,7.285213903558067,0.147764756060988
14.976219999999998,7.331401990352516,0.1470012297084198
14.978607999999998,7.365392377071228,0.1463700319007804
14.981004,7.393703222632654,0.1457888981121702
14.9834,7.419080801887885,0.1452521232859538
14.985788,7.446879790770113,0.1446618827560746
14.988172,7.467508994427835,0.1441600038010541
14.990568,7.486695175846581,0.1436633840739613
14.992956,7.502016925399353,0.1432230337995078
14.995335999999998,7.514777495698267,0.1428444021709645
14.997732,7.526327361183686,0.1424932668114481
15.00012,7.538808392228879,0.1421321161094811
15.002499999999998,7.550637796968015,0.1417684625743075
15.004896,7.560744640214457,0.1414238553503704
15.093308,7.06067892474303,0.141338438805977
15.095688,7.062121946982006,0.1413374036598609
15.098088,7.07543780407262,0.1411620065032174
15.100476,7.096482524895183,0.1408799587081074
15.102856,7.120460512023943,0.1405608553315397
15.105252,7.149234096578454,0.1401797501498679
15.107644,7.187738645611328,0.1396642099723794
15.110024,7.228664604271199,0.139095894596616
15.112424,7.274573151811928,0.1384233153078965
15.114808,7.317176345994124,0.137777529457316
15.117192,7.362061180176457,0.1370913597482324
15.119588,7.403453669545154,0.1364774151844164
15.121976,7.443263367048014,0.135871236069214
15.124356,7.487636344551148,0.1351819891814056
15.126756,7.533871653173839,0.1344687538035199
15.129144,7.57847694810245,0.1338025191215747
15.131524,7.62480480452376,0.1331219734432122
15.13392,7.668246616467116,0.1324454864625922
15.136308,7.708894931731139,0.1318097528722025
15.138687999999998,7.739532743263077,0.1313179771435905
15.141088,7.7687275325560385,0.1308288462731089
15.143476,7.797550234796664,0.1303267647949165
15.145855999999998,7.816781742185784,0.1299474431634087
15.148252,7.83349929214929,0.1295894482780409
15.15064,7.845421244687042,0.1292911194481669
15.153036,7.85468947017232,0.1290181132202675
15.155431999999998,7.858230932672067,0.1288127455458282
15.157819999999996,7.864845431104873,0.1285668484938211
15.1602,7.865174088044705,0.1284126088644504
15.162599999999998,7.86908763759679,0.1282275787976461
15.164987999999996,7.87113885602932,0.1280621067362204
15.167368,7.876402880021764,0.1278491358504532
15.169767999999998,7.885531335880181,0.1275933494668482
15.172155999999998,7.891307216551824,0.1273928304832459
15.174536,7.900295902783383,0.1271469951379807
15.176935999999998,7.913708099388354,0.1268340195341925
15.17932,7.927399835247045,0.1265095442844141
15.1817,7.942814132598435,0.1261744873323509
15.1841,7.952361897337432,0.1259040197325531
15.186484,7.969498756181516,0.1255537770091032
15.188868,7.9874270109585215,0.1252021852160755
15.239044,7.984822401592154,0.1250493148065152
15.24144,7.992084734615279,0.1250222508943397
15.243828,8.003770578011816,0.1249301106228709
15.246212,8.015456421408354,0.1248386326428818
15.248611999999998,8.025279933685335,0.124763946707745
15.250999999999998,8.040969978574706,0.1246269821599729
15.253384,8.062386786449606,0.1244329895445178
15.255788,8.091300140630977,0.1241370382278569
15.258171999999998,8.124589783357521,0.1238140819991091
15.260552,8.1601610660842,0.1234554272295595
15.262943999999996,8.200527946236631,0.123051552234821
15.265332,8.243176466389198,0.1226146555915926
15.267712,8.281960554675795,0.1222174518605376
15.270108,8.323957448522306,0.1217774207655214
15.272496,8.36208991050284,0.1213739285149708
15.274891999999998,8.403155638789574,0.1209397717466165
15.277288,8.44478044558375,0.1204827541665228
15.279675999999998,8.48268059013881,0.1200653263871073
15.282056,8.51815932506687,0.1196885701462235
15.284451999999998,8.561134606301403,0.119216080694084
15.286839999999998,8.603598030856737,0.1187418453220259
15.28922,8.637820735000927,0.1183380446942726
15.291624,8.666037136905866,0.118000641950216
15.294007999999998,8.695044934743724,0.1176636032085263
15.296392,8.730478343701412,0.1172495435265577
15.298787999999998,8.76381710411407,0.116835984230522
15.301171999999998,8.794641907101111,0.1164355821250162
15.303556,8.823185070088014,0.1160721094224009
15.305951999999998,8.845349843783328,0.115753905257359
15.308339999999998,8.866071595239667,0.1154338082629639
15.31072,8.882417058150837,0.1151398179379184
15.313123999999998,8.894106693263113,0.1148811043310867
15.315511999999998,8.909009133935307,0.1145843205529095
15.317892,8.922608321995382,0.1142805551654857
15.320287999999998,8.940119163749674,0.1139098868554453
15.322672,8.957397688078489,0.1135203764179653
15.325052,8.972674111660886,0.1131507345237255
15.327455999999998,8.987019369683507,0.1127890348266545
15.329843999999998,9.005555820654065,0.1123524601731731
15.332228,9.014361307146258,0.1120010970852083
15.334628,9.019162592145618,0.1116889221217464
15.337015999999998,9.026897143451173,0.1113515680016024
15.339396,9.036261708450809,0.1109790736740455
15.3418,9.04274022897249,0.1106002772985365
15.344188,9.04335221688178,0.110273817991265
15.346567999999998,9.038609528857876,0.1100070355346539
15.348964,9.033354984154778,0.1097299970158179
15.351352,9.024003690160228,0.109462610885439
15.353732,9.020007072098872,0.1091358225761546
15.356127999999998,9.015730914783791,0.1088195548321141
15.358515999999998,9.010383822282076,0.1085143326248112
15.360896,9.008901161646332,0.1081778577426122
15.363291999999998,9.003414299517756,0.1078771633949771
15.365679999999998,8.994574862202406,0.1076167547403255
15.36806,8.987038677499168,0.107366177464407
15.370476,8.975358521676238,0.1071564717070161
15.37286,8.965168609920527,0.1069182323800888
15.375239999999998,8.953116367045261,0.1066918997563591
15.377636,8.93529013935622,0.1065397711014843
15.380024,8.925984171332045,0.1063265917502241
15.382407999999998,8.917749138494507,0.1061015432685281
15.384804,8.907372235283693,0.105899485084624
15.387187999999998,8.900440455058272,0.1056844258280236
15.389571999999998,8.89267005707169,0.1055014207838608
15.391976,8.885551285391168,0.1053231595827484
15.394364,8.883367880763254,0.1051039242037805
15.396748,8.884350059867014,0.1048834055446314
15.399144,8.887287117888949,0.1046773446761576
15.401528,8.885660895910608,0.1045277789644748
15.403911999999998,8.886828170611603,0.1043609004068256
15.406308,8.89078894199193,0.10417650075398
15.408696,8.894470174118537,0.1040035753849447
15.411075999999998,8.904017938857535,0.1037855266050262
15.413476,8.920503171395564,0.103512053337331
15.415864,8.936848634306735,0.1032459062714748
15.418243999999998,8.959852025763212,0.1029362083805337
15.420644,8.982436108339106,0.1026438199188693
15.423028,9.008093226848056,0.1023247537159877
15.425411999999998,9.040687813156037,0.1019521342057877
15.427808,9.067276097224765,0.1016302310003935
15.430196,9.093724611666632,0.1013146518396796
15.432579999999998,9.118682882041282,0.1010243889489558
15.434984,9.139636950923098,0.1007680727738658
15.437368,9.162593120551332,0.1004949559494977
15.439752,9.185828829433284,0.1002119305416408
15.442156,9.2079936031286,0.0999416988985528
15.44454,9.225642318651882,0.0996936974163384
15.44692,9.2479940838023,0.0993901794516563
15.449316,9.271416784139358,0.0990749992088962
15.451704,9.294048088543496,0.098762067993521
15.454083999999998,9.317750328134274,0.0984409875304103
15.45648,9.341871876605632,0.0981061787195744
15.458868,9.360266662091458,0.0978078802788132
15.461247999999998,9.375588411644232,0.0975376398601084
15.463644,9.38732526858475,0.0972824758206231
15.466031999999998,9.391473031420182,0.0970723294914054
15.468428,9.396412190188531,0.0968627882273162
15.47082,9.400140644143384,0.0966688607923902
15.473208,9.398282104739566,0.0965044146009061
15.475587999999998,9.400847075709162,0.0962956677126726
15.477992,9.40355181630562,0.0960820897456278
15.48038,9.41002844096943,0.0958188364220124
15.482764,9.415713669700327,0.095554597534985
15.48516,9.424891243244858,0.0952524759299063
15.487548,9.43313765122961,0.0949552267453348
15.489928,9.43658846178861,0.0946855939685998
15.492324,9.443112308280668,0.0943920265875918
15.494712,9.443350313279751,0.0941522401878953
15.497096,9.447732289398532,0.0938799727573717
15.499492,9.455187301450366,0.0935863802660033
15.501876,9.460640212755782,0.0933075877613955
15.50426,9.462880318501284,0.0930568213919232
15.506656,9.473640683911652,0.0927631864382461
15.509044,9.48454081894888,0.0924658013753648
15.511423999999998,9.498374220292302,0.0921508598228313
15.51382,9.519517176487089,0.0918071041744826
15.516208,9.54028804562954,0.091449383630044
15.518604,9.559056814025574,0.0911045979078986
15.521,9.579268604660584,0.0907656810486416
15.523388,9.595056884922183,0.0904687668042589
15.525772,9.609494690743418,0.0901907314178191
15.528168,9.622302482870571,0.0899421510795924
15.530556,9.637764002050208,0.0896860537937223
15.532936,9.648522471602709,0.0894815847862272
15.535335999999996,9.66165512895396,0.0892799750354474
15.537724,9.68130594522366,0.0890498364284359
15.540104,9.69946651742614,0.0888439642849376
15.578352,9.634573946784723,0.0886809377596754
15.587903999999998,9.644629776487182,0.0886732352939616
15.590284,9.653801662458104,0.0886403075773657
15.592683999999998,9.66776914585478,0.0885840094783081
15.595067999999998,9.680525924437957,0.0885404920371251
15.597452,9.700080401193302,0.0884608478843802
15.599847999999998,9.72377884906834,0.0883525738539192
15.602232,9.745195656943242,0.0882658008927177
15.604612,9.774900407057531,0.0881207059559374
15.607011999999996,9.812893099411207,0.0879180773924485
15.609396,9.85488999325772,0.0876914257028215
15.61178,9.895723404118977,0.0874496521194776
15.614183999999998,9.933391231248557,0.0872055577005301
15.616568,9.969336496885443,0.0869647734386052
15.618952,10.005049445096851,0.0867059558550097
15.621347999999998,10.034663543270392,0.0864594885085256
15.623735999999996,10.057387395473146,0.0862247542563059
15.626116,10.07652635506365,0.0860008178791699
15.628519999999998,10.097435097975092,0.0857473191974027
15.630907999999998,10.11704058827442,0.0854831391936216
15.633288,10.139347027454464,0.085186032076568
15.635692,10.159978126970053,0.0848630118009986
15.638075999999998,10.179445743500388,0.0845271055267506
15.640456,10.195887545925912,0.0841833945097675
15.64286,10.21759147648601,0.0837778876983109
15.645248,10.240413564060992,0.083340720768746
15.647627999999996,10.261652859770136,0.0829040247777803
15.650028,10.286943578800356,0.082418664517813
15.652416,10.308649405218324,0.0819446341735705
15.654795999999996,10.322905907158065,0.0814966735469792
15.657191999999998,10.333065659806357,0.0810464119062074
15.659579999999998,10.340711455029032,0.0805956692192596
15.661963999999998,10.351290516557905,0.0801331755345168
15.66436,10.365222153273551,0.0796459985991289
15.666747999999998,10.376500062936724,0.0791635372243215
15.669128,10.39113054778667,0.0786550287064364
15.671523999999998,10.407483594129316,0.0781445372907031
15.673911999999998,10.426909676405014,0.0776187521427731
15.676292,10.440329456441464,0.0771225421271944
15.678687999999998,10.452538531664416,0.076637256344619
15.681075999999996,10.461674570954312,0.0761701544467677
15.683456,10.471974093229464,0.0757195509107859
15.685852,10.480271514758195,0.0752803354286106
15.68824,10.490011958525908,0.0748498587477476
15.690635999999998,10.4958407485994,0.0744624164944563
15.693032,10.4968267194189,0.0741201742723178
15.695415999999998,10.493668719118704,0.0737999762736266
15.6978,10.48967210105735,0.0735061025215335
15.700195999999998,10.485256174115412,0.0732251016292617
15.702583999999998,10.486567010159003,0.0729264639450386
15.704964,10.49118319956113,0.0726314210554835
15.707359999999998,10.50217777825484,0.0723259764344985
15.709747999999998,10.511961652135057,0.0720326214024153
15.712132,10.522257382694471,0.0717517244787643
15.714527999999998,10.53492730105264,0.0714773354175764
15.716912,10.54768976720942,0.0712267230841572
15.719292,10.560172694112484,0.0709844131899392
15.721692,10.567580484336071,0.0707648800931236
15.724076,10.580435498291475,0.070537418690787
15.726471999999998,10.598877505605548,0.0702990975283853
15.728872,10.618110908852533,0.0700634403435148
15.731255999999998,10.640417348032576,0.0698151809837226
15.733639999999998,10.66202493907832,0.0695880416240481
15.736036,10.681490659750786,0.0693733036877717
15.738428,10.702027315609891,0.069152685139995
15.740807999999998,10.72070164034944,0.0689351107609228
15.743204,10.742960857701242,0.0687140455226668
15.745591999999998,10.761355643187068,0.0685044306401712
15.747975999999998,10.7785397238594,0.0683049034160349
15.750372,10.789298193411897,0.0681414963686659
15.752764,10.799637354083814,0.0679909260917206
15.755143999999998,10.803970212516482,0.067863988603006
15.757548,10.807092366135649,0.0677472478367808
15.759936,10.80234588639601,0.0676567823274227
15.762315999999998,10.799741277029646,0.0675549603336139
15.764712,10.796345271730369,0.0674508873909578
15.7671,10.798536259789756,0.0673370090610573
15.769479999999998,10.805383075648034,0.0672147204211937
15.77188,10.80929662520012,0.0671017073793613
15.774268,10.809345742886231,0.0669998114637273
15.776647999999998,10.808323925385707,0.0669035290984005
15.779044,10.803158136765488,0.0668258416529717
15.781432,10.799342822585626,0.0667346176234328
15.783811999999998,10.797809148405902,0.0666282829441549
15.786212,10.797206639785957,0.066520521808664
15.7886,10.799537397472209,0.0664038969137555
15.790979999999998,10.801216528852397,0.0662810312225178
15.793376,10.807831027285204,0.0661425982343776
15.795763999999998,10.819008805718282,0.0659748884728107
15.798144,10.83675196489805,0.0657708789139151
15.800548,10.85505420258526,0.0655518063596877
15.802936,10.877640181019029,0.0653117474131541
15.805315999999998,10.899714302773594,0.065061595435793
15.807716,10.929936597140689,0.0647804499258985
15.810104,10.95536329408203,0.0645114767304513
15.812487999999998,10.979858825463594,0.0642441206931339
15.814884,10.99904690274021,0.0639787395296346
15.817272,11.015860792218067,0.0637065388915132
15.819651999999998,11.037237961696206,0.0634070922658667
15.822052,11.05675280005478,0.0631100947059406
15.824436,11.07719880397314,0.0628119868705216
15.826819999999998,11.09606201602566,0.062507921835587
15.829216,11.11120056583907,0.0622088932963273
15.831604,11.12340584934628,0.0619177877176652
15.833983999999996,11.136170211360932,0.0616122920749098
15.836388,11.151216213375724,0.061293987287976
15.838776,11.167612689830872,0.0609640890342449
15.841155999999998,11.182286604793324,0.0606338149904313
15.843556,11.193747714195863,0.0603199113536945
15.84594,11.205069053971542,0.0600122934274891
15.848323999999998,11.215459228187438,0.0597065381039467
15.85072,11.22370753203006,0.0594113464923799
15.853108,11.2327472318056,0.0591191897786649
15.855487999999998,11.237782730088307,0.058839188995584
15.857888,11.242678458744154,0.0585622677862211
15.860276,11.248784892213497,0.0582770193942411
15.862655999999998,11.251678520122926,0.0580047614817112
15.865052,11.253873299898054,0.0577511379022055
15.867439999999998,11.248431763739852,0.05753353848319
15.86982,11.244061162768288,0.0573108558008306
15.872224,11.240901266610225,0.0570800986436593
15.874612,11.24346813343769,0.0568410423051392
15.876991999999998,11.251761763250684,0.0565939569930976
15.879392,11.262709120116156,0.0563484765860058
15.88178,11.269093196981352,0.056128413394084
15.884159999999998,11.27440633865991,0.0559137755893779
15.88656,11.27608736589797,0.0557236504502388
15.888948,11.276557688322534,0.0555416609384398
15.891327999999998,11.274886140373818,0.0553682236637365
15.893724,11.265857815745491,0.0552215324709152
15.896112,11.257341347796366,0.0550854619814737
15.898495999999998,11.24840557096666,0.0549605266984188
15.900892,11.237188154136811,0.0548477268762012
15.90328,11.226622363613028,0.0547416130901653
15.905663999999998,11.222714501634549,0.05462795008034
15.90806,11.222531301895184,0.0545125030171061
15.910448,11.230216735514624,0.0543818558213382
15.912831999999998,11.239252643574426,0.0542396376482456
15.915228,11.255505558686975,0.0540754164749064
15.917616,11.276833610479,0.0538988454731408
15.919995999999998,11.296019791897743,0.0537310821965273
15.922396,11.312132937383437,0.0535728803869162
15.924784,11.322239780629875,0.0534285360134588
15.92718,11.331415458316538,0.0532849256815817
15.929576,11.348879078242588,0.0531169001689185
15.931964,11.363129892608722,0.0529611398566124
15.934348,11.380593512534771,0.0527934364449965
15.936743999999996,11.39884852839374,0.0526290830184539
15.939132,11.414310047573371,0.0524649924084347
15.941512,11.434986473059336,0.052284204155213
15.943911999999996,11.454219876306324,0.0520935933570145
15.9463,11.472010257314338,0.0518926221027704
15.948684,11.493292983135984,0.0516726543168201
15.951079999999996,11.514995017838212,0.0514422152842031
15.953468,11.52817679287558,0.0512187257041518
