Time,Force,Position
14.69344,5.826874173532549,0.1608114168067053
14.731672,6.337384693861083,0.1607161617747463
14.734076000000002,6.33570935419663,0.1606943217843358
14.73646,6.341575886809021,0.1605834048974127
14.73884,6.34990915501878,0.1604863761718431
14.74124,6.365412208453048,0.1602762846037201
14.743624,6.379797104872434,0.1601376309062839
14.746008,6.401863643195526,0.1599048827080854
14.748404,6.4344053201016544,0.1595349356246557
14.750792,6.471183515926094,0.1591164809114301
14.753172,6.513316387683728,0.1585736199784718
14.755568,6.561083474628273,0.157892585778927
14.757956,6.605358216759185,0.1573154100861011
14.76034,6.648562023703456,0.1567736973384478
14.762736,6.695909801767419,0.1561494592080344
14.765124,6.748332716510856,0.1554226687088034
14.767508,6.794749329015044,0.1548124103363173
14.769912,6.836882200772677,0.1543097489473943
14.7723,6.887627879993791,0.1537010158453725
14.77468,6.944751948506494,0.1530086861325861
14.777076,6.9980115851532245,0.1523893318133198
14.779464,7.053041005120893,0.151720728332542
14.781844,7.108349964342284,0.1510583452514694
14.78424,7.166080333190673,0.1503550166432611
14.786624,7.226791190173499,0.1495689653021673
14.789008,7.28768903861143,0.1487410693519473
14.791404,7.346539460332569,0.1478750388797566
14.793788,7.397568470523144,0.147108560929402
14.796172000000002,7.438354659556157,0.146490988200829
14.798576,7.477558056723334,0.1458905172112687
14.80096,7.515178662024671,0.1453039127449014
14.803344,7.550425079527259,0.1447392655294997
14.80574,7.581574747738392,0.1442059618436905
14.808124,7.612444876695807,0.143692670305361
14.810508,7.640102200093308,0.143239458570059
14.812904,7.664314400505413,0.1428209750866922
14.815292,7.692810341664074,0.1423250100204568
14.817672000000002,7.719351403904562,0.1418246573798173
14.820076,7.746451544652491,0.1413046909626519
14.822464,7.765962591295332,0.1408872317977955
14.903692,7.3734284873285585,0.1404603298261112
14.906084,7.371892917290965,0.1404299246806271
14.908476,7.369146642439874,0.1404245952725366
14.910856,7.372778756880371,0.1403491239576595
14.913252,7.38148600800034,0.140196891657757
14.91564,7.399691906173196,0.1398889533224093
14.918036,7.420458983599908,0.1395242896209868
14.920436,7.43698954210831,0.1391909555124618
14.922820000000002,7.45473080543021,0.1388315531257996
14.925204,7.472751608005829,0.1384598364435165
14.927600000000002,7.49212288502181,0.1380552060242717
14.929988000000002,7.517919773157621,0.1375418786231982
14.932368,7.543716661293428,0.13702582804566
14.934764,7.572027506854853,0.1364901744485943
14.937152,7.604342553909115,0.13590110829722
14.939536,7.632001773164485,0.1353691550919733
14.941932,7.652071898314764,0.1349335752804316
14.94432,7.671862484211328,0.1345126497710878
14.946704,7.686717703055275,0.1341626639933056
14.9491,7.698127798913831,0.1338432239571462
14.951488,7.708374411787132,0.1335107192019913
14.953872,7.712335183167459,0.1332773717730432
14.956268,7.718158285667345,0.1330221667494802
14.958656,7.720396495554975,0.1328034182525284
14.96104,7.723054014323186,0.1325654457549449
14.963436000000002,7.718913834919231,0.132414572320395
14.965824,7.712631785141998,0.1322977775942422
14.968208,7.712588355029492,0.1321225835022414
14.970608,7.713615860103625,0.1319306441493021
14.972996000000002,7.714503595550898,0.1317461450985733
14.97538,7.719255762864146,0.1315160934344087
14.977776,7.720003728684558,0.1313401676343229
14.98016,7.726338687863642,0.1311061012824218
14.982544,7.733092955923307,0.1308530055050507
14.984940000000002,7.731187194691246,0.130700536835235
14.987328000000002,7.732354469392239,0.130505497411614
14.989708,7.7381775718921215,0.1302612372099398
14.992104,7.741486716966391,0.1300319666653073
14.994492,7.7450754012943825,0.1297887216685412
14.996872,7.747453380808874,0.1295680021757717
14.999268,7.750343217002563,0.1293577442061107
15.001656,7.75537492356953,0.1291128532962855
15.004036,7.761477565323134,0.1288519248827115
15.006436,7.767440437449879,0.1285973104703355
15.008824,7.769910964762989,0.1284068017340892
15.011220000000002,7.775035219128573,0.1281934816382482
15.013616,7.781882034986856,0.127967577116125
15.016004,7.788868620471996,0.1277366746349543
15.018388000000002,7.795994975583999,0.1275003097758654
15.020784,7.799396668456887,0.1273018618404083
15.023172,7.798794159836939,0.1271560314164119
15.025552,7.79977444308283,0.12700464007213
15.027948000000002,7.796098898529829,0.1269007325483946
15.030336000000002,7.79149218841705,0.1268061038814698
15.03272,7.794614342036215,0.1266236955450309
15.035116,7.798248352334581,0.1264527391260268
15.037504000000002,7.80560702487206,0.1262473060234651
15.039884,7.820694561141485,0.1259585174415167
15.042280000000002,7.836433723716969,0.1256735807633075
15.044668,7.857108253345065,0.1253319251972653
15.047048,7.882857919652633,0.1249313113136913
15.049448000000002,7.913682722639673,0.1244716447896118
15.051836000000002,7.943436590440076,0.124028841878447
15.054216,7.975052789360034,0.1235693816120264
15.056612,8.006948527533712,0.1230954012509777
15.059,8.039775431267168,0.1226161412686451
15.061396000000002,8.072602335000626,0.1221393575229156
15.063792,8.098491770935055,0.1217394396299743
15.06618,8.122751193175404,0.1213807931140036
15.068564000000002,8.156182501386674,0.120946642335115
15.070964,8.19133637109064,0.1205039268761463
15.073348,8.226909549675192,0.1200451701423757
15.075732,8.263925750498716,0.1195888287717195
15.078128,8.300894729493997,0.1191685069903141
15.080512,8.337072312556362,0.1187561930387171
15.082896000000002,8.368454298192972,0.1183901274097016
15.085292,8.392898816030556,0.1181022183896253
15.08768,8.410917722748309,0.1179022188803996
15.09006,8.433080600585754,0.1176541619095109
15.092456,8.453101608049922,0.1174363316543984
15.094844000000002,8.469909809954174,0.1172634925640602
15.097228,8.483365436671653,0.1171395106727499
15.099624,8.497472689695188,0.1170201020392136
15.102012000000002,8.510648777158945,0.116908721197888
15.104396,8.527968835742394,0.1167507738272382
15.106792,8.543426563206287,0.1166086021131284
15.109180000000002,8.55981545622996,0.116460191837059
15.11156,8.587006248918636,0.1162082746601396
15.11396,8.617829156047808,0.1159014769510594
15.116348,8.64162204757933,0.1156389447228263
15.118732,8.66369237761816,0.1153860456828868
15.121128,8.68348106765685,0.1151651618505424
15.123516,8.702757901016344,0.1149346788347405
15.1259,8.72329266101758,0.1146536032080373
15.128296,8.742337176951594,0.114404061439301
15.130684,8.766596599191944,0.114096691544699
15.133064,8.794208596619068,0.1137453912197161
15.135460000000002,8.825452708486688,0.1133400155364091
15.137848000000002,8.850830287741921,0.1129898767852178
15.140232,8.87769811106437,0.1126128610815364
15.142628000000002,8.899490797707347,0.1122862514207335
15.145016000000002,8.918629757297849,0.1119742138876025
15.147412,8.938467565022654,0.1116354203855052
15.149812,8.961238639053652,0.1112728396867443
15.1522,8.980657137897875,0.110955089310872
15.15458,9.002357276742234,0.1106092223138486
15.15698,9.023126250026818,0.1102718420946981
15.159368,9.03788892107215,0.1099931706556073
15.161748,9.047296916184289,0.1097747524775346
15.164148,9.06028980390868,0.1095374382011174
15.166532,9.07435362681971,0.1092890333373823
15.168916,9.092421651223573,0.1090055801259928
15.171316,9.111700380440938,0.1087063736409222
15.173704,9.128417930404442,0.1084474237335064
15.176084,9.145694558875388,0.1081679240853509
15.17848,9.160969086599918,0.1079075206884879
15.180868,9.174893139884087,0.107670022817565
15.183244000000002,9.184253913167984,0.1074891162864259
15.185648,9.193195377571296,0.1073232944915592
15.188036,9.196502626787698,0.1072255920621274
15.23342,9.029801415911438,0.10716238269138
15.235824,9.019467942813128,0.1071118614882136
15.238208,9.01542031120779,0.106998418280143
15.240588,9.010721053296392,0.106880196128547
15.242992,9.00443900351916,0.1067631091040015
15.24538,9.005373960794676,0.1065782514841898
15.24776,9.005797061390995,0.1063830753223192
15.250164000000002,9.007291097173956,0.1061760909249047
15.252552,9.012789334449744,0.1059346199767494
15.254932,9.01656501023284,0.1057004356411875
15.257328,9.021830930083157,0.1054397692349261
15.259716,9.02723661956033,0.1051727586309796
15.262096,9.038788380903616,0.104849552282926
15.264500000000002,9.053925034859152,0.1045081723962947
15.266888000000002,9.067618666575717,0.1041628986696541
15.269268,9.082802542359495,0.1037930275040651
15.271664,9.103480863703329,0.1033634139253856
15.274052,9.124858033181464,0.1029085145739194
15.276432,9.15401128821979,0.1023680366947869
15.278832,9.18051081620564,0.1018398884975139
15.281216,9.205008243445072,0.1013327344473833
15.2836,9.22899381400531,0.1008178087486885
15.286004000000002,9.245902147139658,0.1003632169813027
15.288388,9.264021185087502,0.0998948488966274
15.290772,9.280557431169512,0.0994267116004246
15.293168,9.29350878463927,0.0989764888329137
15.295556,9.309672943668945,0.0984973866763588
15.29794,9.327327346765832,0.0979930242694306
15.300336,9.34633222430308,0.0974716754617335
15.30272,9.36026196516086,0.0969884459881069
15.305104,9.371258439712443,0.0965259250672115
15.3075,9.381463518331108,0.0960612280139318
15.309884,9.389666496203356,0.0956135812359235
15.312268,9.39535551664999,0.0951701960466399
15.314664,9.40169616340268,0.094732351382719
15.317052,9.402682134222175,0.0943443191238558
15.319436,9.398313429108484,0.0940057090488838
15.321832,9.393245875860488,0.0936928115331245
15.32422,9.383987129664556,0.0934456013124338
15.3266,9.37645094496132,0.0931937359442897
15.328996,9.368635221004364,0.0929523902956402
15.331384,9.361191584099744,0.0927268381844922
15.33378,9.354399573501183,0.0925059097369871
15.336176000000002,9.344115218088987,0.0923236608013273
15.338564000000002,9.333923410475409,0.0921668086756708
15.340948,9.323963920287309,0.0920305345193136
15.343344000000002,9.309441150098928,0.0919423401787429
15.345732000000002,9.293288366216473,0.0918835625423839
15.348112,9.27257230233374,0.0918723301734207
15.350508,9.258374397369456,0.0918300531858678
15.352900000000002,9.245339975390428,0.091804097575887
15.35528,9.240686043449406,0.0917382185995968
15.357676,9.235053724120364,0.0917076347279091
15.36006,9.235008398149986,0.0916509697843503
15.36244,9.231610496992838,0.0916273447230991
15.36484,9.235661920313916,0.0915691450030119
15.367224,9.24609173292658,0.0914859223647009
15.36962,9.25437967516597,0.0914211496333827
15.372016,9.265089027032356,0.0913280292342602
15.374404000000002,9.280314437070771,0.0912198100779776
15.376784,9.291535645616351,0.0911383471585365
15.379180000000002,9.302617084535076,0.091062334993451
15.381568,9.31956505606619,0.0909517533010349
15.383948,9.343310725769474,0.09080305980557
15.386352,9.369198265846032,0.0906361882671816
15.38874,9.397087906669006,0.0904568473272247
15.39112,9.429773144917732,0.0902524751888231
15.393516000000002,9.466462584659292,0.0900229824035753
15.395904000000002,9.50687668663997,0.0897771021302495
15.398284,9.546359623060864,0.0895370111452502
15.40068,9.589986530601458,0.0892680063694377
15.403068,9.626815739969878,0.089039705594372
15.405448,9.66448356709946,0.088782345052302
15.407844,9.697076257549572,0.0885609534831703
15.410232,9.73781712061221,0.0882851414836277
15.412628000000002,9.772831220689318,0.0880393035897747
15.415024,9.80668183778117,0.0877805650532899
15.417412,9.846538757112272,0.0874858548007702
15.419796000000002,9.884253806070095,0.0872098987185892
15.422192,9.916102322415531,0.0869676448441182
15.42458,9.95181527062694,0.0867053051357318
15.42696,9.986736822905431,0.0864429640982259
15.429364,10.017793943317953,0.0862020145381847
15.431748,10.0432640703718,0.0859847359308829
15.434132000000002,10.070876067798922,0.0857528703926827
15.436528,10.09662573410649,0.0855290105309401
15.438916,10.12065283892136,0.0853091729212871
15.441296,10.140955281497115,0.0851042843127264
15.443692,10.161816802580317,0.084882704736697
15.446080000000002,10.184959963663651,0.084642529168708
15.44846,10.205449397694515,0.0844099335920529
15.450856000000002,10.228872098031571,0.0841636202760521
15.453244000000002,10.25322596392841,0.0839151618657343
15.455628,10.277859369078964,0.0836574104311177
15.458024000000002,10.298628342363546,0.0834194934522764
15.460412000000002,10.319816624528707,0.0831680187291122
15.462792,10.336581396320458,0.0829521218846193
15.465192000000002,10.350832210686592,0.0827385794895587
15.467580000000002,10.365222794679584,0.0825208915415525
15.46996,10.37910152199338,0.0822925960336612
15.472360000000002,10.395401658934174,0.0820421013574428
15.474748000000002,10.410630860688329,0.0817990979130694
15.477132,10.424277270576647,0.0815532451302607
15.479528000000002,10.438063450091828,0.0813029193086835
15.481916000000002,10.448124967367894,0.0810656704623113
15.4843,10.458605793524535,0.0808156403143193
15.486704,10.464291022255434,0.0805843638896384
15.489092,10.471978351732748,0.0803430649802749
15.491472000000002,10.477663580463645,0.08011289604345
15.493872,10.478413442141926,0.079906406509431
15.496256,10.474227936767596,0.0797226067729029
15.498640000000002,10.46724893471393,0.0795475546441068
15.501036,10.460409702287128,0.0793683964236334
15.503424,10.45478117467382,0.0791775985534059
15.505804,10.44743008556782,0.0789880254753314
15.5082,10.443152032394872,0.078781718963224
15.510592,10.442226554408702,0.0785498336328402
15.512972,10.438228040489475,0.0783346490427557
15.515368,10.431156490637193,0.0781357213403801
15.517756,10.426878437464248,0.0779285548738354
15.520136,10.416454312425191,0.0777546883699175
15.52254,10.410174158505829,0.0775575463393067
15.524928,10.408549832385358,0.0773475520823208
15.527308,10.405714801451388,0.0771482941283328
15.529712,10.404602332010112,0.0769482446924017
15.5321,10.401347992195562,0.0767616958997395
15.534480000000002,10.403168789060482,0.0765490364566118
15.536884,10.406060521112042,0.0763304111091141
15.539272,10.408021087603824,0.0761143259268223
15.541652,10.41305469002866,0.0758822858831644
15.544048,10.42916973137222,0.0755990091823298
15.546436,10.4455643119695,0.0753072574371589
15.548816,10.458746087006864,0.0750357155163701
15.55122,10.472719257977149,0.0747669438804028
15.553608,10.488834299320708,0.0744857610945761
15.555988,10.500945139171437,0.0742230674740242
15.558388,10.509982943089105,0.0739759102610207
15.560772,10.52102284775319,0.0737198558709315
15.563152,10.537557197977332,0.0734274189686615
15.565548,10.553160382641693,0.0731381312519973
15.567936,10.573978473612389,0.072821279001761
15.570316000000002,10.59000096715733,0.072520701744359
15.572712,10.60243856809002,0.0722258087377566
15.5751,10.62009107532904,0.071904483221005
15.57748,10.637091956262005,0.0715779048406485
15.579876,10.658376577941524,0.0712273636097704
15.582264,10.67966119962104,0.0708785454663392
15.58466,10.698152324621224,0.0705370458291941
15.58706,10.716503679994547,0.0701995897006974
15.589444,10.733923869808091,0.0698653151368229
15.591824,10.742264721449333,0.0695709870025012
15.59422,10.751396969023489,0.069279103591567
15.596608,10.764673187717335,0.0689680041735949
15.598988,10.774876370478133,0.0686706053997497
15.601392,10.780656042865512,0.0684006740375294
15.60378,10.788158276745593,0.0681310221527392
15.60616,10.80073564730514,0.0678410029822999
15.608556,10.813313017864692,0.0675514949247792
15.610944,10.826402245103438,0.0672744935783861
15.613324,10.837629141222628,0.0670008510986856
15.61572,10.84871626771496,0.0667329179743905
15.618108,10.85980339420729,0.0664644505707419
15.620488000000002,10.869679815886125,0.0662053577299944
15.622892,10.874481100885482,0.0659669541730304
15.625276,10.87914261625798,0.0657328950885941
15.62766,10.88273319644384,0.0655054681531372
15.630056,10.886323776629702,0.0652787768107395
15.632444,10.889634817561843,0.0650598782150367
15.634828,10.89522749849412,0.0648265060867967
15.637224,10.902542740919094,0.0645950313506731
15.639612,10.911999853717344,0.0643528017638356
15.641992000000002,10.922667671329096,0.0641020747250427
15.644388,10.930681761888373,0.063852259418293
15.646776,10.943259132447922,0.0635742300291936
15.649172,10.960539552634607,0.0632637112202997
15.651572000000002,10.977028576888372,0.062950766445282
15.653956,10.989513399649306,0.0626519158576526
15.65634,11.005071258343293,0.0623431500305487
15.658736,11.016113058865246,0.0620373149214249
15.661128,11.02994835606654,0.0617282081887239
15.663508,11.03777735102858,0.0614374523370809
15.665904,11.049470777856596,0.0611388130562906
15.668292,11.06623934136408,0.060823951733448
15.670676,11.088222811177902,0.0604894339930524
15.673072,11.108343949872165,0.0601571280114638
15.67546,11.128045779685849,0.0598376923708905
15.67784,11.14667667431289,0.0595241176973784
15.680236,11.165167799313071,0.0592141207122948
15.682624,11.181517053939976,0.058914508127878
15.685004,11.195212581514408,0.0586148226530879
15.6874,11.2078371739022,0.0583201856706843
15.689792,11.217248960730078,0.0580399332305514
15.692172,11.227172604237154,0.0577704275296269
15.694568,11.234535068490372,0.0575225745716018
15.696956,11.241338454236148,0.0572907609487814
15.699336,11.250143940728345,0.0570539899216774
15.701732,11.258809657593671,0.0568208691674435
15.70412,11.263750712219894,0.0565916518856391
15.706516,11.269343393152171,0.056368906002628
15.708912000000002,11.272933973338032,0.0561515343565786
15.7113,11.27931805020323,0.0559312287533499
15.713684,11.283560256695148,0.055720436161068
15.716080000000002,11.285660592813793,0.0555194171249631
15.718464,11.283197648932155,0.0553437036689325
15.720848,11.287532403222691,0.0551569540176375
15.723244,11.290004826393671,0.0549715238828917
15.725632,11.290335379191374,0.0547944504642741
15.728016,11.292947571989217,0.0546053001243183
15.730412,11.294349059973554,0.0544237496009511
15.7328,11.293468907957756,0.0542539203138456
15.73518,11.293240382248015,0.0540909071838771
15.73758,11.295665583590756,0.0539299717879702
15.739968,11.29715961937371,0.0537695194864481
15.742348,11.300655755903088,0.0536047868372871
15.744744,11.30387235317874,0.0534478222601707
15.747132,11.306809411200677,0.0532986404159443
15.749516,11.310677634782389,0.0531490035049616
15.751912,11.314778175789575,0.0530173182312594
15.754296,11.321020587170043,0.0528776601355421
15.75668,11.33219836560312,0.0527293198386236
15.759076,11.344726618476557,0.0525698001748874
15.761464,11.35953651135013,0.0523993438128994
15.76386,11.368340101984453,0.0522415440839391
