Time,Force,Position
14.422047999999998,6.459145066705154,0.157587657651894
14.424428,6.46780320013901,0.1575630824522828
14.426828,6.487355781036486,0.1573848251927354
14.429215999999998,6.510353484919355,0.1571637105170884
14.431596,6.537355390295059,0.1568648418925917
14.433996,6.569851741230814,0.156439852587492
14.436379999999998,6.604769501793568,0.1559442772213941
14.438763999999995,6.633867951572173,0.1555119793863481
14.441159999999998,6.6628738535521626,0.155045676990544
14.443547999999998,6.700307467398399,0.1544026175348735
14.445931999999996,6.738300159752076,0.1537273440691862
14.448327999999998,6.77433797318758,0.1530494240194607
14.450715999999998,6.806139267704771,0.1524224247062529
14.453096,6.837800792595105,0.1517958962407432
14.455495999999998,6.868903238977995,0.1512119275719287
14.457879999999998,6.901728246853585,0.1506116374902837
14.460264,6.932411384355898,0.150063511791128
14.462659999999998,6.964584765925428,0.1494727692637466
14.465047999999998,6.998900017868237,0.1488435739524327
14.467432,7.028559442012153,0.1482950322538723
14.469831999999998,7.054122116864619,0.1477876437016605
14.472215999999998,7.068418257201127,0.1474135435776697
14.4746,7.073310194141236,0.1471415860016596
14.476995999999998,7.078900979215644,0.1468319216508069
14.479383999999998,7.087564800223107,0.1464701908274319
14.481768,7.099161887536765,0.1460671689672898
14.484163999999998,7.112109449290783,0.1456285248271719
14.486555999999998,7.127710738097274,0.1451576315523277
14.488936,7.146757149889157,0.1446562964017068
14.491336,7.16138005130763,0.1442469146683147
14.493719999999998,7.17586318309924,0.1438462025212755
14.496107999999998,7.190858171570048,0.1434561150892392
14.498508,7.206504786346914,0.1430669344171805
14.500892,7.227366307430112,0.1425867454692371
14.503271999999996,7.247436432580393,0.142115121401235
14.505663999999998,7.264061434745282,0.1416783567567221
14.508051999999998,7.276310148364998,0.1412856326849096
14.510443999999998,7.287767466051797,0.1409006497298021
14.512848,7.296431287059259,0.1405538886733864
14.515232,7.306166043253362,0.1401901679586917
14.517611999999998,7.313619159447325,0.1398704393731488
14.520016,7.322515297880264,0.1395465405301731
14.522404,7.335368415977795,0.1391997876133905
14.524779999999998,7.349664556314301,0.1388547552223399
14.527176,7.359816725531116,0.138580864669764
14.529564,7.362100261389123,0.138423349856876
14.531943999999998,7.3623816965007105,0.1382963657672127
14.534348,7.362383592358581,0.1381841129361702
14.536736,7.35665872523092,0.1381491977593499
14.539111999999998,7.354426202916896,0.1380430335700541
14.541508,7.353124846162648,0.1379255439349705
14.543895999999998,7.353034194221901,0.137782373653549
14.546288,7.358810074893543,0.1375583084221147
14.548684,7.363375250751686,0.1373616016020534
14.551072,7.368592052915887,0.1371692510148019
14.553451999999998,7.378185143625258,0.1369373317959609
14.555856,7.394016853999358,0.1366431952582443
14.55824,7.409941112172075,0.1363823776867062
14.560619999999998,7.428379327770407,0.1361050514473271
14.563024,7.443464968181964,0.1358885227427845
14.565412,7.467070868258384,0.1355709974126417
14.567787999999998,7.494913287253117,0.135221733376945
14.570195999999996,7.525968511807765,0.1348263688483053
14.57258,7.5532990741233,0.1344743854920401
14.574964,7.583283363491307,0.1340986351269478
14.57736,7.620437438083822,0.1336535030175967
14.579744,7.660617326781153,0.1332007391606379
14.582124,7.702939085851756,0.1327156375019954
14.584528,7.7499166727212545,0.1321798291501122
14.586912,7.7934019147771165,0.1317143397801023
14.589292,7.836328078325538,0.1312783538496043
14.591699999999998,7.878415624112797,0.1308852661491759
14.594084,7.917290364340142,0.1305496667491654
14.596464,7.956304874194348,0.1302113203321941
14.598867999999998,7.990384016995941,0.1299340887566559
14.601255999999998,8.021529893491337,0.1296954654212936
14.603632,8.049090877374482,0.1294907583471211
14.606035999999998,8.072555111966176,0.1293072091138822
14.608423999999998,8.094716093945754,0.1291190536974339
14.610804,8.118646859246272,0.1288816208332925
14.613207999999998,8.134197134508783,0.1287324166346542
14.615595999999998,8.144719494920068,0.1286142979929895
14.617976,8.146581826039624,0.128595290525285
14.620371999999998,8.152588128278877,0.128519149458186
14.622759999999998,8.156360012346235,0.1284454629041537
14.62514,8.154964211935502,0.128408671391858
14.627535999999996,8.153615633353013,0.1283360598328543
14.634707999999998,8.128432628984365,0.1283178420736795
14.637091999999996,8.117167990326278,0.1282979189427089
14.639472,8.105810803869572,0.1282484964719592
14.641868,8.094221299987389,0.128175731955979
14.644256,8.079326442746675,0.128119669819154
14.646636,8.071928131812431,0.1279554672530147
14.649032,8.06667169125146,0.1277608057652922
14.65142,8.063417351436907,0.1275419178840131
14.6538,8.066169313861606,0.1272507606621632
14.656196,8.069572902592363,0.1269647646439051
14.658584,8.073348578375457,0.1266958074035385
14.660963999999998,8.081128455651385,0.1263788784332881
14.663368,8.093564160726203,0.1260182558230356
14.665752,8.111726628786553,0.125597709310017
14.668131999999998,8.127747226473625,0.1252105493073553
14.670536,8.146701090466891,0.1247932824220336
14.67292,8.169659155952992,0.1243306364840333
14.675299999999998,8.19354838699887,0.1238638189843072
14.677704,8.225725560284138,0.1232962162040842
14.680092,8.25510923689007,0.1227516106962216
14.682472,8.286495014242417,0.122183749199173
14.684875999999996,8.317601252341046,0.1216283616352912
14.746984,7.974853224167573,0.1214452327488615
14.74938,7.978438116779825,0.1214191502042952
14.751768,7.986539067564109,0.1213586834993257
14.754148,8.000087242080204,0.1212561799977436
14.756544,8.019781488462408,0.1210815364347511
14.758928,8.043479936337446,0.120865149692586
14.761324,8.069460024212622,0.1206156446530735
14.763719999999998,8.097861521714796,0.1203256542309301
14.766107999999996,8.13361979589658,0.1199463558941556
14.768488,8.169005983026025,0.1195480865343343
14.770884,8.208443593476545,0.1190709548870862
14.773272,8.250861692061507,0.1185295659232265
14.775652,8.295142121766023,0.1179761204426504
14.778048,8.342914896284176,0.117370028070515
14.780436,8.387801626324379,0.116762518281081
14.782831999999996,8.431664643006183,0.1161379008139893
14.785227999999998,8.479811400434544,0.1154590820626927
14.787615999999998,8.52395395637007,0.1148279527256849
14.789996,8.563720223760425,0.11423016262568
14.792395999999998,8.599809050739912,0.1136305489764611
14.794779999999998,8.630078566935246,0.1130594683332692
14.79716,8.658113664958693,0.1124908152632594
14.799559999999998,8.687639007049356,0.1118960273354275
14.801944,8.718142736528039,0.1112687601898729
14.804328,8.745341112648191,0.1106578036141133
14.806723999999996,8.766952495409672,0.110090406264109
14.809112,8.788563878171155,0.1095263929530993
14.811492,8.810966656865554,0.1089638515260173
14.813888,8.827922211828145,0.1084393450738023
14.816276,8.847019637164014,0.1078906184552639
14.818656,8.8644870488058,0.1073783277465548
14.821052,8.880883525260948,0.1068802415686507
14.82344,8.895045583544205,0.1063806566464969
14.825836,8.906693684401848,0.1058903517354863
14.828227999999998,8.918993411565545,0.1054055912055211
14.830615999999996,8.932084534662161,0.1049222703548474
14.833007999999998,8.938377959586608,0.104490881959101
14.835404,8.944671384511055,0.1040589311632984
14.837792,8.949754104622004,0.1036441095733114
14.892752,8.595730062643234,0.1033345164158732
14.89514,8.604063330852997,0.1033160416796592
14.897519999999998,8.619334066861787,0.1032409047382582
14.89992,8.634884342124298,0.1031543671739013
14.902304,8.651226013319729,0.1030675248756006
14.904687999999998,8.66663651895538,0.1029860230322277
14.907084,8.68684262201678,0.1028705059911276
14.909472,8.70849174731716,0.1027590730275729
14.911851999999998,8.729069937430898,0.1026598638960651
14.914256,8.752022315343394,0.1025595346524504
14.91664,8.778327268442665,0.1024190121016152
14.919024,8.807845027101852,0.1022453313982577
14.92142,8.835500454641478,0.1020839253433124
14.923804,8.865577291808103,0.1018897349819566
14.926183999999996,8.903010905654341,0.1016228157570012
14.928579999999998,8.93271565576863,0.1014148431422773
14.930967999999998,8.958835513270667,0.1012249809964352
14.933348,8.983372578906868,0.101035479798456
14.935752,9.00669893972957,0.1008638266444697
14.93814,9.023926450514404,0.100715072201415
14.940519999999998,9.042504435739597,0.1005469391814255
14.942916,9.055727745031596,0.1004336776445689
14.945303999999998,9.068019888763818,0.1003269382929995
14.947687999999998,9.082314133242456,0.1002044790024196
14.950084,9.098890017721232,0.1000562735849464
14.952471999999998,9.119098016640503,0.0998613191922832
14.954852,9.1366522885073,0.0996781455909754
14.957247999999998,9.157187048508536,0.0994435111875536
14.959635999999998,9.178420656644075,0.0991842433781135
14.962032,9.20170358735427,0.0988800920117558
14.964428,9.224474661385267,0.0985667552566737
14.966816,9.244731777990651,0.0982600846060649
14.969195999999998,9.266339369036398,0.0979338987694755
14.971592,9.28715556414922,0.0976096548882582
14.97398,9.303967557769212,0.0973173247183187
14.976359999999998,9.325994457695534,0.0969815475909874
14.97876,9.352025559114692,0.0966181170847368
14.981148,9.37940713497421,0.0962352157222972
14.983527999999998,9.41121222120714,0.0958125735352039
14.985924,9.446090343373124,0.0953649933655203
14.988312,9.476452407367082,0.0949390977718706
14.990691999999996,9.509655189868614,0.0944696263227098
14.993087999999998,9.541554719758032,0.0939920213867752
14.995471999999998,9.574385415207228,0.0935127059272867
14.997868,9.602280743603812,0.0930661063867037
15.000272,9.628034201627116,0.0926410320152174
15.002656,9.65378765965042,0.0922167364239374
15.005036,9.676468081740673,0.0918173839477436
15.00744,9.697658259763704,0.09144345836546
15.009828,9.717497963346378,0.091091180386841
15.012204,9.739199998048608,0.0907326191972552
15.0146,9.759691327937338,0.0903881105560871
15.016984,9.779391261893153,0.0900443596492381
15.019363999999998,9.79536653360985,0.0897170321082121
15.02176,9.809619243833852,0.0893926591336226
15.024143999999998,9.817865651818607,0.0891077216467411
15.02654,9.822527167191106,0.0888351759104281
15.028932,9.825698438496389,0.0885858234525104
15.03132,9.817788270882945,0.0884089728457186
15.033699999999998,9.812811369575694,0.0882159180083101
15.036096,9.8102086560672,0.088025716419322
15.038479999999998,9.805324302558567,0.087857590141676
15.040876,9.79880993535586,0.0877169491410832
15.043272,9.789082762593235,0.087602106403336
15.04566,9.785361892069862,0.087450138430602
15.048035999999998,9.77828844635971,0.0873282234345586
15.050436,9.768002195089649,0.0872317944398288
15.05282,9.760090131618334,0.0871382168416914
15.055203999999998,9.752038298520162,0.0870493766146633
15.0576,9.74156505579499,0.086987082188453
15.059988,9.726808072323266,0.0869586778129242
15.064776,9.694732926125964,0.0869329718035244
15.067164,9.68351361343825,0.0869234820082899
15.069544,9.674156631870094,0.0869063758581558
15.07194,9.670526413287464,0.0868620634521007
15.074328,9.666197346570534,0.0868414866131571
15.076707999999998,9.666943416533082,0.0867882166099459
15.0791,9.678631155787487,0.0866707611710839
15.081487999999998,9.688037255041758,0.0865757036361927
15.083884,9.692787526497137,0.0864987349496835
15.08628,9.700191525004987,0.0864158810370749
15.088668,9.710668559445896,0.0863130717484501
15.091048,9.725848643513938,0.0861638456918315
15.093444,9.737955691648926,0.0860355858419647
15.095832,9.75928184758308,0.0858490990682844
15.098211999999998,9.78903571538348,0.0856038723067161
15.100616,9.816555165011987,0.0853513829432615
15.103,9.846496024267497,0.0850750090723979
15.105379999999998,9.882862494642833,0.0847532192228972
15.107776,9.920299900204808,0.0844224169279587
15.110164,9.95866847132656,0.084088713263958
15.11256,10.00495289763536,0.083688156334538
15.114964,10.045790100212356,0.0833046087452519
15.117352,10.087698237975989,0.082914924524941
15.119731999999996,10.126021483127364,0.0825357817910817
15.122127999999998,10.167045677159464,0.0821238899088209
15.124515999999998,10.202482877832889,0.0817334296022305
15.126896,10.23112238033415,0.0813764049817616
15.129291999999998,10.257247925409793,0.0810199511614659
15.131679999999998,10.287657211231991,0.0806333666721402
15.13406,10.319556741121406,0.0802292180203312
15.136455999999995,10.34973370951813,0.0798284982177848
15.138844,10.374835541235376,0.0794579367803407
15.141224,10.40301040888568,0.0790720138888496
15.143627999999998,10.424387578363817,0.0787182317045848
15.146015999999998,10.438687510416065,0.0784035922047927
15.148396,10.452707903214588,0.0780976502735753
15.150795999999998,10.460721993773864,0.0778211680412963
15.153183999999998,10.462217925414688,0.0775650120754636
15.155564,10.468137367428929,0.0772774057254819
15.157968,10.476198679816449,0.0769768760022334
15.160351999999998,10.47410971884502,0.0767285110469546
15.162732,10.474162628246871,0.0764661414647257
15.165127999999996,10.475426242462222,0.0761936837903272
15.167512,10.476689856677572,0.0759209847175697
15.169896,10.475532061265923,0.0756705693244176
15.172295999999998,10.477027992906752,0.0754169719679825
15.174683999999996,10.480526025293996,0.0751539485894776
15.177064,10.486817554360574,0.0748836944507382
15.17946,10.490547904173296,0.0746398858044549
15.181848,10.488271951746766,0.0744234411051112
15.184228,10.481852028200542,0.0742286306075308
15.186631999999998,10.476083730960378,0.0740395189717801
15.189016,10.465100527413878,0.0738794141182946
15.191396,10.452766849427022,0.073734069339263
15.193799999999998,10.444297603306138,0.0735749622036994
15.196187999999998,10.439832558678088,0.0733983024358812
15.198568,10.44137381628929,0.0731948544336507
15.200971999999998,10.441145290579552,0.0730185573245062
15.203359999999998,10.439426520802597,0.0728624454389171
15.20574,10.437707751025638,0.0727069831987808
15.208144,10.44171574423421,0.0725336056398887
15.210532,10.447306529308618,0.0723648901900454
15.212911999999998,10.449544739196249,0.072219848628841
15.215308,10.456578546509634,0.0720607164726586
15.217695999999998,10.465754224196294,0.0718892438564645
15.220076,10.475069671509816,0.071714232811569
15.22248,10.485176514756256,0.0715418174923002
15.224868,10.49421242281606,0.0713760469219951
15.227247999999998,10.507671841249271,0.0711822491174603
15.229644,10.527928957854655,0.0709671192853807
15.232031999999998,10.55526331188593,0.0707219948424677
15.234412,10.585670701850258,0.0704636239741428
15.236816,10.617428566254944,0.0701905292268956
15.239204,10.649326200286495,0.06991225636726
15.241583999999998,10.677219632825208,0.069650641871555
15.24398,10.701108863871092,0.0694062928113839
15.246368,10.723927159730332,0.0691695444996651
15.248747999999996,10.751820592269048,0.0689110293075592
15.251143999999998,10.775849592941787,0.0686644479715895
15.253531999999998,10.79852811917417,0.0684333419831989
15.255912,10.823348515779829,0.0681921765851073
15.258307999999998,10.845654954959873,0.0679491732265804
15.260695999999998,10.868101163766775,0.0677019616183217
15.263076,10.88561200552107,0.0674728919139395
15.265471999999995,10.90433355208886,0.0672355214266387
15.26786,10.922123933096874,0.0670006401773261
15.270255999999998,10.93712081742555,0.0667708498008395
15.272652,10.954259572127503,0.0665307706868353
15.27504,10.967114586082904,0.0663140181214119
15.277419999999998,10.973963297799054,0.0661193493482489
15.279824,10.97787874320901,0.0659340959114579
15.282208,10.981933958245824,0.0657458187665532
15.284587999999998,10.989713835521751,0.0655522243259268
15.286984,11.00592142466393,0.0653210524700336
15.289371999999998,11.022408553059826,0.0650815449493153
15.291752,11.041037551829,0.0648319442423964
15.294156,11.058735385038396,0.0645845434398813
15.296544,11.07284832563554,0.0643391871844477
15.298923999999998,11.091245006979236,0.0640733909065232
15.301328,11.109129831643736,0.0637980286364483
15.303716,11.122219058882484,0.063533966438948
15.306095999999998,11.134888977240651,0.0632814248155896
15.3085,11.150911470785594,0.0630105135501659
15.310888,11.16507163321098,0.0627414895040257
15.313268,11.17615875970331,0.0624847481599357
15.315664,11.18724588619564,0.0622284297627888
15.318052,11.203547918994303,0.0619516729502426
15.320431999999998,11.215054354367217,0.0616849070349655
15.322836,11.22711986824757,0.0614027717631202
15.325224,11.24039608694142,0.0611113881610769
15.3276,11.253020679329213,0.060813838230258
15.330007999999998,11.26271200541081,0.0605241773034102
15.332392,11.267747503693515,0.0602404617119677
15.334768,11.262492958990416,0.0599945001127213
15.337172,11.264036112459486,0.0597347586240864
15.33956,11.26357716518214,0.0594809875692687
15.34194,11.264189153091433,0.0592229267491846
15.34434,11.266943011374,0.0589553399655701
15.346728,11.267694768910152,0.0586941050883854
15.349108,11.265792799393823,0.0584313683107155
15.351511999999998,11.26789503137034,0.0581580046245109
15.353896,11.270556341854288,0.0578694469103156
15.356276,11.270004846778324,0.0575951044272143
15.358679999999998,11.277601524314887,0.0572968145018923
15.361067999999998,11.289202403344287,0.0569891578428802
15.363448,11.302153756814048,0.0566706426221412
15.365852,11.310029973604328,0.0563675677181841
15.368235999999998,11.31962875188731,0.0560661563720919
15.370616,11.331089861289849,0.0557641538081459
15.37302,11.342550970692384,0.0554620895582818
15.375407999999998,11.356526037520537,0.0551664347997543
15.377788,11.36956993878891,0.0548711008441884
15.380192,11.38568687599034,0.0545671286480731
15.38258,11.40781011543102,0.0542487903283193
15.384959999999998,11.422344260766613,0.0539397693518058
15.387356,11.43874073722176,0.0536302636863093
15.389739999999998,11.451924408116994,0.0533333576966676
15.392123999999995,11.465759705318284,0.0530441599978159
15.394519999999998,11.478384297706077,0.0527629196065141
15.396907999999998,11.4943142434524,0.0524909885876801
15.399288,11.508893714758369,0.0522315988217225
15.401692,11.523845273116674,0.0519865806505501
15.40408,11.541450558527451,0.0517446824869954
15.406459999999996,11.55155929763176,0.0515315608179747
15.408855999999998,11.55445102968332,0.0513388002167226
15.411243999999998,11.555852517667663,0.0511611088231994
15.413624,11.558836797517838,0.0509898460069644
15.416019999999998,11.565685509233989,0.0508143473728231
15.418407999999998,11.571975142442698,0.0506536717437128
15.420788,11.579195941211186,0.0504928629157462
15.423191999999998,11.579479272180643,0.0503440996426616
15.425579999999998,11.58162493426966,0.0501947898653677
15.42796,11.5804180211719,0.0500603759322865
15.430355999999998,11.574135971394668,0.049937517671989
15.432743999999998,11.567294843109991,0.0498283896274281
15.435124,11.559382779638682,0.0497230389892855
15.437519999999996,11.553752356167507,0.0496064457468596
15.439907999999996,11.547982163069474,0.0494935924438266
15.442288,11.5411410347848,0.0493841444142171
