Time,Force,Position
14.745412,6.476572512681941,0.15302028189435
14.7478,6.579911035380774,0.1526763878454487
14.750184,6.6595549019203055,0.1525192265635367
14.75258,6.721043883830964,0.1524784753389191
14.754968,6.781373174472105,0.1521643069625629
14.757348,6.836725563806,0.1516188374500204
14.759748,6.865170491420679,0.1513118709219305
14.762132,6.871920967764605,0.1512402538215397
14.764532,6.876204708511159,0.1511545734265587
14.766927999999998,6.8899870963106,0.1508869954892081
14.829036,6.9653056878489465,0.1505507746589846
14.831431999999998,6.967540106020838,0.1505420372929173
14.833816,6.970985229006232,0.1505041370609887
14.838588,6.976385230909796,0.1504730336075302
14.840976,6.9858819821048135,0.1504052853382322
14.843355999999998,6.995051972217867,0.1503945987801801
14.845748,7.009808955689588,0.1503050548336014
14.848135999999998,7.028662688452765,0.1501826170057859
14.850516,7.051613170507391,0.15002662365753
14.852932,7.07949901961463,0.1497883441495173
14.855316,7.108455803908507,0.149532881671353
14.857711999999998,7.13545770928421,0.1492720002123634
14.860116,7.163065914995598,0.1489405900032674
14.862504,7.189929946602311,0.1485751976138409
14.864883999999998,7.2225679630227955,0.1480772549490156
14.867276,7.252180165338467,0.1475977178232158
14.869663999999998,7.280256797616548,0.1470875365382475
14.872044,7.3015829535506995,0.1466496266729832
14.874448,7.3216984046713565,0.146244514997255
14.876832,7.346329913964044,0.1457901645027993
14.879215999999998,7.37040234474929,0.1453687144065987
14.881612,7.39982945146773,0.1448543195820258
14.883995999999998,7.4266028311336925,0.1443675218021942
14.886376,7.456589016359572,0.1438275849824724
14.888771999999998,7.496213618265201,0.1431313593189951
14.89116,7.538167081999207,0.1423551894788324
14.893551999999998,7.57243890382951,0.1416525795880032
14.895948,7.601310723756244,0.1409788639658751
14.898336,7.626225564018388,0.1403297022167766
14.900716,7.651699482787973,0.1396585182990738
14.903111999999998,7.673728278572166,0.1390197708525344
14.905499999999998,7.694686139169719,0.1383980320061047
14.9915,7.260714219863863,0.138309389319841
14.99388,7.266253991394291,0.138282546611005
14.996296,7.274307720350331,0.138237427127072
14.998679999999998,7.292744040090795,0.138066321855426
15.001076,7.320259698003564,0.1377608639447905
15.003479999999998,7.348706521476111,0.137446896178501
15.005864,7.382088712001269,0.1370662437440707
15.008244,7.417473003272846,0.1366560875677383
15.010647999999998,7.458723827156815,0.1361690309711473
15.013035999999998,7.499695111787061,0.1357007643708153
15.015416,7.545229676417584,0.1351537659804951
15.017808,7.591183549928687,0.1345863420167063
15.020196,7.638208358626429,0.1340032391472011
15.022576,7.683650375458335,0.1334299850256247
15.024972,7.7240644774390095,0.1328910181770255
15.02736,7.764386031621069,0.1323322998673083
15.02974,7.806849456176406,0.1317488269645566
15.032144,7.8509428944258195,0.1311267291255746
15.034532,7.90001892155609,0.1304001524273131
15.036912,7.947651926447384,0.1296849090838228
15.039308,7.994633305032619,0.1289782083566867
15.041696,8.039892122125156,0.1282948459803829
15.044076,8.085570248098277,0.127598689573428
15.046472,8.125661380712726,0.1269676830981459
15.04886,8.162959016647841,0.1263713766731953
15.051239999999998,8.20002433515748,0.1257574672534019
15.053636,8.234715465868362,0.1251570809983359
15.056024,8.271408697325665,0.1245368867534599
15.058407999999998,8.302794474678013,0.1239597822391273
15.060804,8.334507013112328,0.1233405233904549
15.063192,8.358490687814692,0.1228034352787667
15.065588,8.386478564009893,0.1222256686263777
15.067984,8.413954583525891,0.1216402108308714
15.070368,8.440918746362698,0.1210451875076489
15.072748,8.470024779572778,0.1204187080946494
15.075148,8.495778237596083,0.1198467224050603
15.077536,8.516875867820495,0.119319394033893
15.079916,8.533038130992297,0.1188449674490488
15.08232,8.549060624537239,0.1183792932244828
15.084704,8.558145650283151,0.1179862462005762
15.087088,8.560712517110614,0.1176486933700103
15.163552,8.11112982970894,0.1174005094182755
15.165936,8.11741567120191,0.1173234415159329
15.168331999999998,8.12356174306802,0.117253614508444
15.170716,8.137576448292938,0.1171049537068404
15.173096,8.156526520570466,0.116905792057682
15.175499999999998,8.17962056396769,0.116659104701587
15.177887999999998,8.202574837738055,0.1164196508475276
15.180268,8.223806550015722,0.1161924564431388
15.182671999999998,8.25039293822658,0.1159001330159716
15.185059999999998,8.281914693490053,0.1155602471302955
15.18744,8.313204131328048,0.1151993865110158
15.189835999999998,8.347706374725957,0.1148027383378421
15.19222,8.385141884430064,0.1143789546779594
15.1946,8.430306257866118,0.113889959872735
15.196996,8.474679235369251,0.1134017247385985
15.19938,8.518912443245524,0.1129215554150772
15.201779999999998,8.565007982241356,0.1124271197313115
15.204176,8.610684212356606,0.1119514795229794
15.206563999999998,8.656919520979297,0.1114505049305281
15.208944,8.703294599228848,0.1109477936625233
15.211339999999998,8.749669677478401,0.1104521826191392
15.213727999999998,8.789898683861843,0.1100274467183123
15.216112,8.826263258379308,0.1096380049980239
15.218507999999998,8.855969904351467,0.1093028480149421
15.220895999999998,8.879810017711232,0.1090183105236498
15.223276,8.902858735138084,0.1087381461948949
15.225671999999998,8.927118157378432,0.1084419349726764
15.22806,8.947513147752806,0.1081781164966568
15.23044,8.967116742194264,0.107919289408954
15.232843999999998,8.986860106262581,0.1076582050733432
15.235231999999998,9.01004859331629,0.107385952322952
15.237612,9.030583353317528,0.1071296290812959
15.240016,9.051677191826204,0.1068539084526927
15.242399999999998,9.064250770670016,0.106638912064468
15.24478,9.08082855100666,0.1063906117371131
15.247184,9.097825640223888,0.1061273878465683
15.249572,9.114450642388777,0.1058495749039049
15.251952,9.136150781233134,0.1055294534716542
15.254347999999998,9.157711150450634,0.1052142435669927
15.256735999999998,9.17675756224252,0.1049067370467777
15.259116,9.189146045489096,0.1046445116364135
15.26152,9.196878700936782,0.1044093625358479
15.263908,9.205682291571106,0.1041630907558047
15.266287999999998,9.219421249258042,0.1038775144870546
15.268684,9.241448149184368,0.1035147146219389
15.271071999999998,9.259470847617855,0.1031860830393111
15.273452,9.273629114185374,0.1028859310622796
15.275852,9.289929251126166,0.1025635246319878
15.278235999999998,9.29915215064107,0.1023021286508885
15.280616,9.304650387916862,0.1020643016309334
15.283015999999998,9.304561631833982,0.101860541675778
15.2854,9.30046867425827,0.1016891965333368
15.287784,9.292371515189725,0.1015503999969399
15.290179999999998,9.286276456867595,0.1013948193057803
15.292568,9.275246031492856,0.1012773108497709
15.294948,9.26021140462528,0.1011920252176019
15.297347999999998,9.244617699250265,0.1011275528939825
15.299735999999998,9.22329723088972,0.1011001581629818
15.302132,9.20304769771581,0.1010618790441155
15.304528,9.183589560474822,0.1010230141390767
15.306916,9.168927020659584,0.1009519199004866
15.309295999999998,9.161993344576294,0.1008271036951994
15.311692,9.155059668493005,0.100702204496809
15.31408,9.146915287596215,0.1005932524218567
15.31646,9.133556000393094,0.1005313128125769
15.318864,9.118334382070415,0.1004798958537565
15.321252,9.105254634121016,0.10040717320057
15.323631999999998,9.093757678037448,0.1003341753655196
15.326036,9.085333757886938,0.1002346828068256
15.32842,9.075559363296067,0.100156029575638
15.330799999999998,9.066576364638122,0.1000771483070147
15.333204,9.062388963405922,0.0999663439121401
15.335592,9.062717620345754,0.0998345311877798
15.337972,9.06597954359178,0.0996820198497461
15.340364,9.073245668330644,0.0994983488497294
15.342747999999998,9.08544716012212,0.0992782495825581
15.345128,9.098999126353952,0.099037858525236
15.347532,9.113761797399285,0.098782210241015
15.34992,9.13094587807161,0.098497215999625
15.352299999999998,9.152134160236772,0.098184209473765
15.3547,9.17159988090924,0.0978768084526283
15.357088,9.187340939342592,0.09759056628194
15.359467999999998,9.2049443288955,0.0972958185801412
15.361872,9.220964926582576,0.0970010954832197
15.364256,9.238196229083147,0.0966914154970864
15.366635999999998,9.263156395315663,0.0963334189892733
15.36904,9.287976791921324,0.0959814999033172
15.371428,9.312145562220923,0.0956263281025247
15.373808,9.341249699573138,0.0952400826854818
15.376208,9.37663967841832,0.0948027645461464
15.378596,9.411238261330588,0.0943639836451182
15.380976,9.44318311719038,0.0939359018766421
15.383376,9.471682850064775,0.0935181821865882
15.385768,9.496178381446342,0.0931296000078158
15.388148,9.520813682454769,0.0927393298014678
15.390551999999998,9.543586652343636,0.0923600298135609
15.392936,9.564217751859228,0.0920001678393175
15.395316,9.5845693121211,0.0916511867041696
15.397719999999998,9.601288757942472,0.0913462088865776
15.400107999999998,9.610930966337955,0.091091854960253
15.402488,9.622435505852998,0.090829520474388
15.404887999999998,9.636081915741316,0.0905495046202592
15.407275999999998,9.644932728203884,0.0902954601920671
15.409656,9.656577037345787,0.0900296866092922
15.41206,9.671154612793885,0.0897483159968032
15.414447999999998,9.683869857122424,0.0894776873426491
15.416828,9.698587202197382,0.0891953972073784
15.419228,9.711581985779643,0.0889170045421746
15.421615999999998,9.717499531936015,0.0886859916029226
15.423996,9.71526890547986,0.0885103720377051
15.426391999999998,9.71704248051654,0.0883098347259384
15.428779999999998,9.720678386672772,0.0881018588130107
15.431164,9.726316393575424,0.0878818603335634
15.433559999999998,9.73516720603799,0.0876363033056197
15.435944,9.740013817007728,0.0874157186446549
15.438324,9.743789492790818,0.0872036608928679
15.44072,9.75184890932047,0.0869586532612493
15.443108,9.760699721783038,0.0867151879522819
15.445488,9.773834274992158,0.0864391900162584
15.447891999999998,9.792183734507612,0.0861263310270931
15.450276,9.810253654769344,0.0858241165121249
15.452656,9.826833330963856,0.0855450701718707
15.455052,9.845554877531644,0.0852486576737856
15.45744,9.863065719285942,0.0849667022595471
15.459824,9.877363755480316,0.0847107717968036
15.46222,9.889659690928278,0.0844674715230095
15.464608,9.898742820816322,0.0842488816872642
15.466988,9.906987332943205,0.0840577875982351
15.469392,9.918165111376284,0.0838511595284109
15.471776,9.93600081835467,0.0836156049339081
15.474156,9.954348382012254,0.0833925269174182
15.476552,9.973347571975898,0.0831765828239143
15.47894,9.989785582685684,0.0829906750789507
15.481315999999998,10.005664514888029,0.0828239738798192
15.483712,10.026059505262404,0.0826459186774444
15.486095999999998,10.048828683435532,0.0824721033029034
15.48848,10.06517225048883,0.0823457371666448
15.490875999999998,10.079513716795711,0.0822305249093539
15.493259999999998,10.091573543102456,0.0821363451731885
15.49564,10.101211959782203,0.0820671208609094
15.498036,10.112852477208367,0.0819876620300475
15.50042,10.127845569821307,0.0818815478104453
15.502804,10.147214950979416,0.0817697950659689
15.505216,10.168586432883943,0.0816484726672645
15.507599999999998,10.187955814042054,0.0815374377905396
15.509983999999998,10.205043555200028,0.0814456500809254
15.512396,10.225344101917916,0.0813318314383677
15.514784,10.251139094195858,0.0811770806542143
15.517164,10.279727583153138,0.0810143064760188
15.519567999999998,10.30552257543108,0.0808613663855518
15.521952,10.327592905469906,0.0807208356185011
15.524336,10.348732069948955,0.0805840002874402
15.526732,10.372944270361062,0.080429891173825
15.52912,10.398367175586666,0.0802650410254054
15.5315,10.419925648946297,0.0801165581915447
15.533903999999998,10.445256006373286,0.0799313161366798
15.536291999999998,10.475521730852886,0.0797231219935305
15.538672,10.506998160145985,0.0795035041844264
15.541068,10.53353922238647,0.0793058588681075
15.543456,10.559428658320895,0.0791023873192231
15.545836,10.579591331269794,0.0789205038331983
15.548239999999998,10.596820737912497,0.0787526123883349
15.550624,10.61260712231622,0.0785789205477816
15.553004,10.623877448547915,0.0784150082607917
15.5554,10.640362681085948,0.0782211729804809
15.557784,10.662202589557166,0.0779933012911687
15.560164,10.683111332468608,0.0777695057639244
15.562568,10.696151442021243,0.0775796846627769
15.564956,10.710030169335038,0.0773664698048958
15.567336,10.723536809596496,0.0771392646821822
15.569739999999998,10.738393924298316,0.0768971693597601
15.572127999999998,10.752878951947794,0.0766415950755249
15.574508,10.765269331052242,0.0763733577450547
15.576904,10.77621668791771,0.0760985530725091
15.579292,10.791867094410318,0.0757863719537658
15.581672,10.798438162730616,0.0755168351861342
15.584072,10.805847848812078,0.0752241310801885
15.586456,10.814608009333895,0.0749176176081606
15.58884,10.830073320229268,0.0745647642489163
15.591236,10.846749335938137,0.0742017857893345
15.593624,10.866638157206925,0.0738193578222409
15.596019999999998,10.884664647356152,0.0734413512235758
15.598416,10.898966475266269,0.0730729730687436
15.600803999999998,10.916341339109438,0.0726904449194642
15.603184,10.931062475900134,0.0723122659696844
15.605588,10.943129885638356,0.0719381865458556
15.607971999999998,10.95440589944366,0.0715630843976977
15.610352,10.971827985115072,0.0711596173897705
15.612747999999998,10.982824459666654,0.0707931415745513
15.615135999999998,10.994612330151154,0.0704291889997928
15.617516,11.00318739507574,0.0700826021340308
15.61992,11.008689424067272,0.0697495123706367
15.622308,11.015634475297777,0.0694252752742569
15.624688,11.020437656155003,0.0691127642307307
15.627092,11.018954995519264,0.0688317918668523
15.62948,11.022687241189852,0.0685251542791148
15.631859999999998,11.023998077233449,0.0682391141736651
15.634256,11.02437774771726,0.0679554645470275
15.636639999999998,11.02033390782766,0.0676988241443865
15.639024,11.018943794990536,0.0674418968642268
15.641419999999998,11.01634297733991,0.067194476265594
15.643807999999998,11.018677526741898,0.0669314604321344
15.646188,11.021663702449946,0.0666743061392561
15.648592,11.021437072598076,0.0664338151957238
15.650975999999998,11.020930903492488,0.0662014321836121
15.653356,11.020284964760036,0.0659732238804893
15.65576,11.017636925281172,0.0657517521777758
15.658148,11.012707245802163,0.0655454602670948
15.660527999999998,11.011130141509938,0.0653186699413693
15.662928,11.011275598710403,0.0650934575638352
15.665316,11.017706897403844,0.0648405098814206
15.667695999999998,11.027723088709536,0.0645856983555018
15.6701,11.03680811445545,0.064332892622101
15.672488,11.049757572067335,0.0640712379620497
15.674867999999998,11.063638195239,0.0638073662785075
15.677264,11.07658765285089,0.0635458670358382
15.679647999999998,11.08846617527614,0.0632897058056237
15.682028,11.096992122514612,0.0630526975819879
15.684423999999998,11.110453436805695,0.0628021938169539
15.686811999999998,11.121400793671164,0.0625489592179309
15.689192,11.137563056842966,0.0622756002267684
15.691596,11.147579248148658,0.0620251804070825
15.693979999999998,11.160668475387403,0.0617642590917068
15.69636,11.173617932999294,0.0615064825316433
15.698755999999998,11.18549645542454,0.061253833951565
15.70114,11.197235208222931,0.0610055207150438
15.703535999999998,11.212978162514156,0.0607457851292412
15.705932,11.230211360872596,0.0604706657839045
15.70832,11.246233854417538,0.0602046940879091
15.7107,11.25746075053673,0.0599478286870634
15.713095999999998,11.265474841096005,0.0597065683227827
15.715483999999998,11.272977074976083,0.059455544299499
15.717864,11.27554394180355,0.0592160102335045
15.720259999999998,11.278110808631014,0.058977583431836
15.722647999999998,11.284681876951312,0.0587282592718236
15.725044,11.291625032323946,0.0584935939547688
15.727448,11.299778892510082,0.0582506777283925
15.729832,11.315009990122103,0.0579874291590077
15.732212,11.328378756614574,0.057727377911863
15.734616,11.338534717547128,0.0574807522321882
15.737004,11.341473671426929,0.0572587481305174
15.739384,11.347485661239787,0.0570266158010904
15.74178,11.35042461511959,0.0568046130718251
15.744168,11.358718244932584,0.0565609492935703
15.746548,11.369293514745715,0.0563051982180641
15.748952,11.377726914185574,0.0560580522104088
15.75134,11.382016342505738,0.0558250459196828
15.75372,11.38481552675868,0.0556079384284647
15.756116,11.3885458765714,0.0553902462967839
15.758504,11.397071823809874,0.0551658580586744
15.760884,11.407739641421625,0.0549337900612472
15.76328,11.419059085339429,0.0547091710410363
15.765668,11.439457867429544,0.0544617056128165
15.768048,11.454921282467044,0.0542245087392128
15.770444,11.469173992691047,0.0539961488291902
15.772832,11.47905041436988,0.0537626660841596
15.775211999999998,11.488787066421848,0.0535332367232457
15.777608,11.49265718586143,0.0533145394966708
15.779996,11.494385434927736,0.0531041484360471
15.782375999999998,11.500117885486873,0.0528847492712633
15.784776,11.509994307165703,0.0526527886117991
15.787159999999998,11.520150268098256,0.0524140785492961
15.789556,11.533379264963866,0.0521676666676854
15.791952,11.538180549963228,0.0519491366179141
15.794336,11.536556223842757,0.0517536839436736
15.796715999999998,11.534140501789366,0.051554186131719
15.79912,11.537591312348368,0.0513460885479689
15.801508,11.539319561414672,0.0511347887512188
15.803888,11.540628501600391,0.0509344205468506
