Time,Force,Position
14.609604,6.0045241328035726,0.1631884316295106
14.611983999999998,6.019978068551728,0.1631486419516388
14.61438,6.0412059891136565,0.1629490911009647
14.616772,6.059128556317053,0.1627811855388469
14.619151999999998,6.073745770161916,0.1626557588201095
14.621556,6.08892206251422,0.1624958862183328
14.623944,6.116902355277943,0.1620530811760044
14.626324,6.143671943228168,0.1616407362981663
14.628724,6.165925473006362,0.1613122681976188
14.631112,6.182964096478223,0.1611168912383977
14.633492,6.201398520360817,0.1609643582071364
14.635896,6.220297579094365,0.1608660154106399
14.638284,6.237426854506974,0.1608380058214906
14.64066,6.260562432158833,0.1606789183694772
14.643056,6.286398958691411,0.1604335341934304
14.645444,6.310652693358152,0.1602077832460623
14.647823999999998,6.329691521718559,0.160111089483517
14.650224,6.350128046347571,0.1599273644247836
14.652608,6.365863417207316,0.1597405856492533
14.654987999999998,6.378620195790493,0.1595299277345679
14.662168,6.39328273560573,0.1594996440998047
14.664564,6.4057127531069415,0.1593543266487508
14.666952,6.423450224713103,0.1591325063439841
14.669332,6.44342211449116,0.1589034268363331
14.671728,6.47135518542664,0.1585745053517284
14.674116,6.505154788974512,0.1581388757854911
14.676495999999998,6.540304866962742,0.1576636699604165
14.678892,6.569495864539965,0.1572563990562118
14.68128,6.596592213572154,0.1568538187804549
14.683676,6.632535583351172,0.1562530980194491
14.686071999999998,6.673321772384184,0.15552250392748
14.688459999999996,6.707497254700132,0.1548700065612144
14.690844,6.739298549217324,0.1542474962293045
14.693239999999998,6.771658922241956,0.153598363390149
14.695624,6.798944158587117,0.1530440759081545
14.698008,6.818453309372088,0.1526607425593201
14.700404,6.846622489448784,0.1521363048414101
14.702792,6.875583065458398,0.151607450436232
14.705172,6.908268303707125,0.1510260435858308
14.707568,6.946959844195103,0.1503362893102685
14.709956,6.992169543601532,0.1495539598853758
14.712336,7.031000853716372,0.1488706266900545
14.714732,7.062430061181227,0.1482602291785495
14.71712,7.090553915287551,0.1476885328537823
14.719504,7.108434948236312,0.1472749267975054
14.7219,7.125804124505874,0.1468574667656183
14.724288,7.143732379282876,0.1464128343574376
14.726684,7.169669037045548,0.1458363526672614
14.729079999999998,7.199470126674192,0.145206988683912
14.731467999999998,7.224288627421981,0.1447059254154153
14.733848,7.249479215222108,0.1442275953440276
14.736247999999998,7.277323530074709,0.1437217634229884
14.738635999999998,7.29944108194178,0.1432943871212657
14.741016,7.32221026011491,0.1428748861448864
14.743411999999998,7.357783438699458,0.142272591611607
14.745799999999996,7.405648761016231,0.1414711692634646
14.748184,7.445133593294998,0.1407847254705621
14.750579999999998,7.486248439267843,0.1400577742756587
14.752967999999996,7.52191606150888,0.1393947435832928
14.755352,7.554650417443719,0.1387789436671315
14.822272,7.307810546069545,0.1382785676644393
14.82466,7.30366847080772,0.1382345757247869
14.831824,7.29757151662772,0.1381810269090024
14.834203999999998,7.3008768699862525,0.138158342734307
14.836608,7.311119691143815,0.1380370466392553
14.838996,7.328020440846684,0.1378310588615109
14.841376,7.349017939841004,0.1375999076946921
14.843776,7.376393828126916,0.1372977607949421
14.84616,7.4088448530922975,0.1369167700527914
14.848544,7.44334520063234,0.1364705029835377
14.85094,7.470908080373352,0.1361237631400697
14.853328,7.495537693808169,0.1358166993358989
14.855707999999998,7.519934989817508,0.1354854652965502
14.858104,7.544751594707427,0.1351319500013933
14.860496,7.570359595530266,0.1347785309379495
14.862875999999998,7.593778504151584,0.1344979869941003
14.865272,7.617709269452102,0.1342301529507302
14.86766,7.643642135499036,0.1339382030470881
14.870039999999998,7.666269648187436,0.1336708515150332
14.872444,7.688757391248977,0.1334154601266311
14.874832,7.7104537383776,0.1331672300457494
14.877211999999998,7.739506862185832,0.1328072201385466
14.879608,7.770749078195586,0.1323767985400664
14.881996,7.800967580846946,0.1319321079258297
14.884375999999998,7.824947463833575,0.1315453347494083
14.886772,7.846925246073786,0.1311882822963671
14.88916,7.867180466821301,0.1308471021864077
14.891536,7.883199168650504,0.1305354406310679
14.893944,7.89749530898701,0.1302377760013011
14.896328,7.910161435629438,0.1299846175070815
14.898711999999998,7.929857577869511,0.1296745542081329
14.901108,7.953418151975559,0.1293198746876993
14.903491999999998,7.977118495708468,0.1289599095420946
14.905875999999996,8.000958609068237,0.128593634716387
14.90828,8.025310579107202,0.128241322207898
14.910664,8.054365598773304,0.1278054390199447
14.913047999999998,8.079323869147954,0.1273902966924866
14.915444,8.095901649484597,0.127059573033147
14.917832,8.112199890567522,0.1267422802857944
14.920215999999998,8.125285326090529,0.1264742185656634
14.922612,8.138370761613537,0.1262085990126121
14.925,8.143587563777736,0.1260358730561478
14.927379999999998,8.149967848927195,0.1258784562007564
14.92978,8.154857890009431,0.1257564245667901
14.932168,8.167057485943035,0.125570507162508
14.934551999999998,8.178465685943724,0.1253875598975085
14.936948,8.186009454078436,0.1252458057983652
14.939336,8.1988606763181,0.1250645680325915
14.941715999999998,8.212643064117541,0.1248751738472712
14.944116,8.227915695984201,0.1246533626042664
14.946504,8.242024844865606,0.1244201780817177
14.948883999999998,8.25627376337387,0.1241828662480004
14.95128,8.270754999307611,0.1239685215749116
14.953672,8.289240436734186,0.1237107140493053
14.956051999999998,8.306282851921784,0.1234531622573537
14.958448,8.320903857482387,0.123237517708583
14.960836,8.3385506771478,0.1230188133599722
14.963215999999996,8.364298447597497,0.1227376850595897
14.965611999999998,8.389906448420337,0.1224624257982151
14.967999999999998,8.415933758123755,0.1221690962540448
14.970396,8.43781709670748,0.1219272587016594
14.972792,8.469291630142711,0.121592686295456
14.97518,8.497972666898601,0.1212845684489016
14.97756,8.523860206975161,0.1210003099653865
14.979956,8.54430052331991,0.1207612879695499
14.982344,8.564880609291519,0.1205168025546967
14.984728,8.594400263808575,0.1201789180854787
14.987124,8.61782106828776,0.1198799444338568
14.989512,8.64245257758045,0.1195637218255376
14.991896,8.666013151686498,0.1192639429902049
14.994292,8.685429754672853,0.1190133449817396
14.996676,8.700842156166377,0.1188056449786583
14.999055999999998,8.714020139488003,0.1185970841550418
15.001456,8.72226275575702,0.118439880154944
15.003844,8.730645141652895,0.118277717253326
15.006223999999998,8.740657541242848,0.1180793756210722
15.008624,8.751648328220822,0.1178412390099441
15.011012,8.758821905161067,0.1176067888981846
15.013391999999998,8.770838301355308,0.1172990355974154
15.015788,8.783134236803267,0.1169805805768614
15.018176,8.797060185945305,0.1166251933544193
15.020555999999996,8.806749616169032,0.1162926962124859
15.022956,8.812993923407367,0.1159758720321313
15.025339999999998,8.82151987064584,0.1156270864134023
15.02774,8.83204791863073,0.1152589040088668
15.030136,8.841784570682702,0.1148922724052821
15.032524,8.839788157509892,0.1146337038821624
15.034904,8.84244757213597,0.1143398772520117
15.0373,8.843104886015636,0.1140666416659907
15.039688,8.841760099148882,0.1138131092652958
15.042068,8.843907657095764,0.1135103723740155
15.044468,8.849407790229424,0.1131641368018248
15.046856,8.856910024109501,0.1127980387345829
15.049236,8.865762732429936,0.112408123914749
15.051632,8.873032648884534,0.1120215212512271
15.05402,8.87844023421958,0.1116493375180275
15.056399999999998,8.884778985114401,0.1112727076310721
15.0588,8.890698427128644,0.1109126976814002
15.061188,8.888981553209554,0.110644463011169
15.063572,8.885774435223244,0.110404993873242
15.065968,8.884150109102773,0.1101637194665962
15.068356,8.877031337422247,0.1099880689777559
15.070735999999998,8.875918867980973,0.1097561382425514
15.073132,8.871873132233505,0.1095488343820697
15.07552,8.867827396486035,0.1093419494417149
15.077916,8.863502121484846,0.1091458838407773
15.080311999999996,8.867185249469323,0.1088748152324991
15.082699999999996,8.869006046334244,0.1086176082182426
15.085084,8.869104281706468,0.1083673334915296
15.087476,8.867479955585996,0.1081234011755806
15.089864,8.861432119092111,0.1079329199620652
15.092248,8.852031707411447,0.1077839569752998
15.094644,8.84421408759662,0.1076334775758857
15.097035999999996,8.8327643533413,0.1075354674445412
15.099416,8.823409267631012,0.1074461186806551
15.101815999999998,8.817499304906118,0.1073425801057662
15.104203999999998,8.804884191807671,0.1073212403868862
15.106584,8.791989539455503,0.1073110615776002
15.108983999999998,8.782307692663252,0.1072652095865014
15.111375999999998,8.77276561549786,0.1072137257238434
15.113756,8.761221437586052,0.1071803711717906
15.116155999999998,8.75368146116708,0.1071103631419432
15.118543999999998,8.743580305494248,0.1070809623968813
15.120924,8.74199940948628,0.10698926747692
15.123319999999998,8.739068039037953,0.106920622869778
15.125707999999998,8.741072035642242,0.1068102369085887
15.128088,8.74051485299267,0.1067400688674055
15.130487999999998,8.741400692582074,0.106674475660646
15.132875999999998,8.744660719970232,0.1066072324647646
15.135256,8.751505639970643,0.1065211767423152
15.137651999999996,8.76114405665039,0.1064164075574013
15.140039999999996,8.77492644444983,0.1062709272460492
15.14242,8.789267910756713,0.1061050765446894
15.144819999999998,8.812037088929841,0.1058540935216253
15.147207999999996,8.830290208930938,0.1056271921756794
15.149592,8.844539127439203,0.1054359213606145
15.151987999999998,8.865213657067299,0.105175475064003
15.154375999999996,8.89096332337487,0.1048708876200888
15.156756,8.918575320801995,0.1045563879642889
15.159155999999998,8.95126245490859,0.1041992879628649
15.16154,8.983949589015184,0.1038415313234053
15.163924,9.0198495286817,0.1034533484237296
15.16632,9.05696017316171,0.1030498359550137
15.168708,9.087412889096411,0.1026956691577547
15.171092,9.119216079471476,0.1023211462471742
15.173487999999995,9.145292506861006,0.1019874880454775
15.175876,9.173930113504394,0.1016179601682776
15.17826,9.202195633095446,0.1012352839557579
15.180655999999995,9.23209116638058,0.100823747915547
15.183044,9.26240600854629,0.1003988579862908
15.185428,9.29528202996586,0.0999397466560183
15.187823999999996,9.325224785079234,0.099503441246271
15.190212,9.35181496500583,0.099105392429062
15.192596,9.37225907306632,0.0987618967344457
15.194991999999996,9.397638548179415,0.0983829177801605
15.197379999999995,9.4222266273596,0.098002528973661
15.199764,9.446954476166642,0.0976204046049224
15.202159999999996,9.464884626801515,0.0972846993842658
15.204547999999996,9.484025482249889,0.0969369541785834
15.206928,9.496368639526091,0.0966346661066138
15.209327999999998,9.512995537548852,0.0962944142152932
15.211715999999996,9.525618234078772,0.09598484684306
15.214096,9.536518369116,0.0956802627414521
15.216492,9.549420604899645,0.0953618109265111
15.21888,9.560460509563733,0.0950533557197705
15.221264,9.575504615720652,0.0947170592519906
15.22366,9.588546621131156,0.094396552558951
15.226048,9.598236051354885,0.0941096333001723
15.228432,9.603362201578337,0.0938709210214182
15.230828,9.608069042921212,0.0936478388853064
15.233216,9.612636114637224,0.0934311161643598
15.2356,9.617063416726378,0.0932190056609079
15.237995999999995,9.623492819561948,0.0929933888262392
15.240384,9.62819966090482,0.0927708505904261
15.242768,9.628762531128,0.0925807588586533
15.245163999999995,9.636402638777067,0.0923415673807638
15.247552,9.64082994086622,0.0921305206728796
15.249932,9.650332379634849,0.0918835163313648
15.252331999999996,9.651546876164083,0.0916996572600896
15.25472,9.65927953161177,0.0914863836929099
15.257104,9.66165751112626,0.0913190784626388
15.259499999999996,9.663895721013892,0.0911564078257594
15.261891999999998,9.668647888327142,0.090991212812804
15.264272,9.67218935082689,0.0908402375474667
15.266671999999998,9.676382439632697,0.090694814825082
15.269059999999998,9.678014349184645,0.0905822134980275
15.271444,9.682439755415924,0.0904579407074337
15.273844,9.690869363140042,0.0903079568936337
15.276227999999998,9.702651546050935,0.0901265526179324
15.278604,9.71485303784241,0.0899316343004372
15.281,9.725564285566666,0.089760817299156
15.283384,9.741350669970393,0.0895571807405791
15.285779999999995,9.75606611918748,0.0893627479780571
15.288171999999998,9.77622879213638,0.0891500801073208
15.290559999999996,9.802397767324528,0.0889010602773496
15.292955999999998,9.819207865086648,0.0887203278811876
15.295348,9.837880293968324,0.0885321756965509
15.297736,9.85320014766323,0.0883749030420778
15.300115999999996,9.878810044343938,0.0881472713396959
15.302511999999998,9.900695278785534,0.0879364122987037
15.304895999999998,9.926584714719962,0.0877015910518213
15.307292,9.953684855467888,0.0874540164769504
15.309696,9.981064535469534,0.0871991149987424
15.312084,10.008723754724905,0.0869355798899245
15.314464,10.035451808420492,0.0866756720403282
15.316867999999998,10.062738940623522,0.0863975160700194
15.319252,10.083880000960445,0.0861599754536703
15.321632,10.100365233498472,0.0859406843022016
15.324024,10.117781631596278,0.0857192670299968
15.326412,10.134127094507445,0.0855070061994781
15.328791999999998,10.150100470366276,0.0852805425249175
15.331196,10.161138479172491,0.085081826250086
15.33358,10.169522760926236,0.084888427501316
15.335964,10.175532854881224,0.0846924973464868
15.338367999999996,10.175955955477544,0.0845174324588294
15.340752,10.18522607682069,0.0842705601109975
15.343132,10.191051075178446,0.0840277016836516
15.345535999999996,10.19729538241678,0.0837709097797887
15.347923999999995,10.196741991482948,0.0835472905203564
15.350304,10.19446603905642,0.0833253914751588
15.3527,10.190747064390914,0.0830969360622633
15.355088,10.187167859352268,0.0828640910450297
15.357463999999998,10.18107469688801,0.0826320192505205
15.359868,10.173119203304193,0.0824058256534013
15.362256,10.168656054534011,0.0821482043460462
15.364636,10.162470344271137,0.0818919014757323
15.367039999999998,10.157914647702338,0.0816090280947412
15.369427999999996,10.159505022999651,0.0812901524394699
15.371804,10.155368635311437,0.0809935903620913
15.374211999999998,10.15016131243658,0.0807043703570455
15.376595999999996,10.143883054375085,0.0804224766080558
15.378976,10.139746666686868,0.0801258017767223
15.381379999999998,10.137891918998788,0.0798089170513606
15.383767999999998,10.136176940937569,0.0794878857509557
15.386148,10.135672667689848,0.0791544503613177
15.388552,10.127671848135655,0.0788727749382032
15.39094,10.125817100447575,0.0785565958828652
15.393319999999996,10.12810632387919,0.0782170421036001
15.395724,10.131466482497444,0.0778697726643619
15.398108,10.136968511488972,0.0775080756920952
15.400491999999998,10.1429823971597,0.077157804752367
15.402888,10.149927448390208,0.076805824979034
15.405271999999998,10.155522025180357,0.076469206771006
15.407652,10.1640498682767,0.0761205783083578
15.410056,10.169364905813124,0.075793852462554
15.412444,10.176542274469108,0.0754619981275162
15.414823999999998,10.184650808684868,0.0751272890385491
15.41722,10.190757242154213,0.0748039904436331
15.419607999999998,10.201659273049309,0.0744636019074041
15.421988,10.21484294394454,0.0741059888607553
15.424392,10.227095449279998,0.0737503264135455
15.42678,10.238277019428814,0.0734024265553354
15.429159999999998,10.253974647749663,0.0730492007296244
15.431556,10.267250866443511,0.0727178404235848
15.433939999999998,10.278897071443284,0.072409946074214
15.43632,10.290683046069915,0.0720961256720051
15.438724,10.29883690625605,0.0718167135009153
15.441112,10.298702824202795,0.0715809663592358
15.443491999999996,10.30122246920202,0.0713434197533073
15.445883999999998,10.301320704574245,0.0711273172696022
15.448271999999998,10.298765212893995,0.0709132960208471
15.450652,10.29285714602697,0.0707228494822178
15.453047999999995,10.29081351102592,0.0705196339470096
15.455436,10.28648823602473,0.0703336291720773
15.457816,10.282814587329598,0.0701540286478153
15.460219999999998,10.280723730500302,0.0699792826870886
15.462607999999998,10.282869392589316,0.0698078100027257
15.464988,10.283385040984252,0.0696599756346135
15.467383999999996,10.281898588632773,0.069520456490576
15.469771999999995,10.276780021840798,0.0694122942032626
15.472152,10.273384016541517,0.069304293118854
15.474548,10.268917076055596,0.0692023917542347
15.476936,10.259235229263345,0.0691272006257962
15.47932,10.254348979896845,0.0690383060926616
15.481719999999996,10.255748572023316,0.0689172504789359
15.484107999999996,10.26687912862815,0.0687659966317742
15.486488,10.279360159673343,0.068600857521451
15.488891999999998,10.300780759263986,0.0684029862774553
15.491275999999996,10.318197157361793,0.068221029727481
15.493656,10.34148008807199,0.0680209738913215
15.496059999999998,10.369418846581077,0.0678132109652804
15.498447999999998,10.40057041065008,0.0675879738744123
15.500828,10.428788708412888,0.0673730085108999
15.503223999999998,10.459009106922114,0.0671509378480978
15.505611999999998,10.491371375804617,0.0669183363542573
15.507996,10.519729443194285,0.0667009621492945
15.510391999999998,10.543711222038782,0.0664847734193053
15.512779999999998,10.5691832449505,0.0662512365471318
15.51516,10.598659469355049,0.0660044184681163
15.517555999999995,10.631488268946375,0.065736470826014
15.519944,10.6660396300304,0.065470529927506
15.522324,10.700590991114424,0.0652046938006385
15.52472,10.73835515775836,0.0649227368086561
15.527108,10.7756074677231,0.0646328694740352
15.529488,10.807644871381507,0.0643685511035386
15.531891999999996,10.828600836121195,0.06414576853649
15.534276,10.846064456047245,0.063947522850086
15.536656,10.85952387448046,0.0637642154478441
15.539052,10.876847724779648,0.0635715635150902
15.54144,10.890446912839725,0.0633856349957694
15.543836,10.898970964220329,0.063218749732753
15.546231999999998,10.907215476347211,0.063060304280876
15.548619999999998,10.91597184515329,0.062912330670971
15.551,10.927801249892427,0.0627535884458468
15.553395999999998,10.93562645313873,0.0626080815135862
15.555783999999996,10.94573329638517,0.0624480858145134
15.558164,10.956631535564526,0.0622909091434189
15.560563999999998,10.963106264370468,0.062158327346048
15.562948,10.963434921310302,0.0620490627982372
15.565332,10.963623808623272,0.0619439869970022
15.567728,10.96209013444355,0.0618376106044577
15.570112,10.9632101873163,0.0617317033063115
15.572507999999996,10.963538844256137,0.0616234532211042
15.574903999999998,10.958233286009056,0.0615481307378164
15.577291999999998,10.95679215962795,0.0614644892261539
15.579675999999996,10.96242827067273,0.0613573630293847
15.582071999999998,10.971416956904289,0.0612312942169553
15.584459999999998,10.980265873508984,0.0611092517458891
15.58684,10.990465264554045,0.0609754337877393
15.589235999999998,11.000245346718522,0.0608533423003921
15.59162,11.011236133696498,0.0607222144769092
15.594004,11.023577395114833,0.0605791268588249
15.596407999999998,11.037688439854104,0.0604123254965724
15.598791999999998,11.047795283100545,0.0602582206631085
15.601172,11.06018376634712,0.0600906503263888
15.603567999999996,11.076436681459668,0.0599164658577221
15.605955999999995,11.095762632505275,0.0597328162933439
15.608347999999998,11.121514194670713,0.0595212183682981
15.610744,11.150758101649783,0.0592878669888096
15.613131999999998,11.1805610871363,0.0590408513424727
15.615511999999995,11.213716647809589,0.058777916732516
15.617916,11.245568955870766,0.0585030016590319
15.6203,11.272346127252463,0.0582434509459599
15.622679999999995,11.303034952328389,0.0579511249780179
15.625084,11.330278654418912,0.0576558562218984
15.627472,11.353006298337409,0.0573618704320048
15.629847999999996,11.37601348150962,0.0570618381744342
15.632243999999998,11.399579743189276,0.0567476016788482
