Time,Force,Position
14.678631999999997,6.488758681883392,0.1599230821730388
14.681035999999995,6.512221020617217,0.1597191428859024
14.683427999999996,6.521066145506176,0.1596329792860169
14.685811999999997,6.527164995544045,0.1595513967366613
14.688208,6.538898060768825,0.1593371416539994
14.690595999999996,6.550910665247328,0.1591049983621047
14.692979999999997,6.563994204912465,0.1588453313698013
14.695376,6.576286348644686,0.1585895937540389
14.697763999999996,6.592303154616022,0.1582735331298769
14.700147999999997,6.601335270960084,0.1581374716222351
14.702547999999997,6.619911360327408,0.1578742660216279
14.704936,6.648870040479153,0.1574280767465794
14.707315999999995,6.6730331232051485,0.1570733120016015
14.709712,6.695333874811585,0.1567510338471969
14.712104,6.719776496791298,0.1563877043182321
14.714483999999995,6.743008413957512,0.1560538555357483
14.71688,6.762003812205418,0.1557672263777773
14.719267999999996,6.780255036348648,0.1554430732223808
14.721651999999995,6.790964388215033,0.1552057989820142
14.724048,6.799020013028945,0.1550066020116026
14.72644,6.799346774110909,0.1549461855455683
14.728819999999995,6.801024009633229,0.1548454317203968
14.731216,6.80577428108861,0.1546838275416851
14.733608,6.80922129993187,0.1545206041729031
14.735987999999995,6.809315743588357,0.1544353892232856
14.738384,6.8117843750436,0.1543314587056726
14.740776,6.816115337618398,0.1541980044386767
14.743155999999995,6.825149349820332,0.1539498083459398
14.745555999999995,6.835021979783426,0.1536577565691294
14.747939999999996,6.847595558627239,0.153288676312663
14.750323999999996,6.8570035537393785,0.1529472137145122
14.75272,6.86589969217232,0.1526001114739752
14.755112,6.871630246873587,0.1522740290744776
14.757491999999996,6.87782733228368,0.1518834096500303
14.759891999999995,6.876575093215545,0.1516022168257616
14.76228,6.881049617132942,0.1512325545800913
14.764664,6.89483579664812,0.15072873659733
14.767076,6.911555242469492,0.1501796498346341
14.769463999999996,6.935724012769094,0.1495241417298977
14.771843999999998,6.964408841240724,0.1488143843710297
14.774239999999995,7.002545094937002,0.1479689718976315
14.776628,7.041332974939336,0.1471312831652056
14.779008,7.0743940919561386,0.1463826257781861
14.781407999999995,7.102799381174052,0.1456994466475825
14.783792000000002,7.12883048259321,0.1450338115290343
14.786176,7.154861584012366,0.1443716861662139
14.788571999999998,7.183965721364578,0.1436598188518708
14.790960000000002,7.211067757970373,0.1429876033738826
14.793339999999995,7.228299060470944,0.1424703230004742
14.795736000000002,7.242457327038458,0.1420054512007906
14.798123999999998,7.255776975844812,0.1415866488752022
14.800504,7.266535445397309,0.1412330330195431
14.802899999999998,7.283020677935339,0.1407977249714676
14.805288,7.296665191965788,0.1404401651382445
14.807667999999996,7.317619260847604,0.1399917623064583
14.810067999999998,7.336571228983002,0.1395810279234864
14.812456,7.351658765252428,0.1392316040852051
14.814835999999996,7.361019538536325,0.1389608095378277
14.817235999999998,7.364281461782352,0.1387513395159517
14.822003999999996,7.349481048198123,0.1386341979660885
14.8244,7.340870136592509,0.1386012745916943
14.826787999999995,7.33505272166623,0.1385339575240784
14.829171999999996,7.331609494538704,0.1384539458609324
14.831568,7.329609289650157,0.1383727895984524
14.833955999999995,7.328260711067667,0.1382949544618723
14.838751999999996,7.322535843940005,0.1382593598507954
14.84114,7.324305627260944,0.1382041721178391
14.843524,7.331662403940554,0.1380807601000414
14.845919999999996,7.3431631517398595,0.137891432330472
14.848308,7.354803669166025,0.1376950296236351
14.850688000000002,7.36509371215183,0.1375333234297184
14.853087999999996,7.378968647749887,0.1373339950289418
14.855476,7.388979151481971,0.1371877230517804
14.857856000000002,7.3951252233480815,0.1370927583237239
14.860255999999996,7.400851986333612,0.1370196269526454
14.862644,7.4105357289837315,0.1369263677202593
14.865024000000002,7.423896912044722,0.1368275457373739
14.867423999999996,7.443916023651023,0.1366441379212307
14.869807999999995,7.470081207123434,0.1363669742281663
14.872192000000002,7.493452893916511,0.1361272402847347
14.874588,7.52040947332184,0.1358548827651856
14.876972,7.549507923100447,0.1355485786770644
14.879355999999998,7.58153963918525,0.135207160540445
14.881751999999995,7.615713225643328,0.1348361978779074
14.884143999999996,7.647372854675794,0.1344836118119672
14.886523999999998,7.684107620387731,0.1340617231862227
14.888924,7.722984256472944,0.1336075705774223
14.891311999999996,7.757065295132406,0.1332140981604353
14.893695999999997,7.786350736366114,0.1328811235344897
14.896092,7.816567343159602,0.1325394750285562
14.898479999999996,7.845713014766452,0.1322157200210641
14.900863999999997,7.87020285857441,0.1319409622380812
14.90326,7.895484098315286,0.1316627354908213
14.905647999999996,7.926631870668553,0.1313121405778701
14.908031999999997,7.95805918227554,0.1309497475221455
14.910428,7.989905802763109,0.1305685904597012
14.912815999999996,8.022451271384979,0.1301571906922049
14.915195999999998,8.053274178514148,0.1297642920447491
14.917596,8.081303588963985,0.1294055462789167
14.919983999999996,8.106120193853904,0.1290947234268376
14.922363999999998,8.126141201318072,0.1288401110610191
14.924764,8.144439647289547,0.1285995226064553
14.927151999999996,8.157430639156068,0.1284034720698587
14.929535999999995,8.16469486803706,0.1282704993836104
14.931932,8.175683759157165,0.1281012357814134
14.934319999999996,8.177872851358687,0.1280342027970061
14.936703999999995,8.180201713187067,0.127961280701506
14.9391,8.185743380575362,0.1278420963665869
14.941492,8.195429019083353,0.127668325035954
14.943871999999995,8.203392096098646,0.1275065452734999
14.946268,8.211355173113938,0.1273447655110459
15.008388,8.010310447045295,0.127155979667645
15.010788000000002,8.01375746588856,0.1270337253619806
15.013175999999998,8.024980570292009,0.1267942579973678
15.015556,8.037554149135818,0.1265280649074953
15.017956000000002,8.05012772797963,0.1262612845423207
15.020343999999998,8.065914112383359,0.1259478209319106
15.022724,8.081700496787082,0.1256357571335994
15.025119999999998,8.097719198616286,0.1253465115902026
15.027508,8.125610735297132,0.1249236860786489
15.029892,8.148147596044783,0.1245776336360966
15.032287999999998,8.178413320524383,0.1241510158679354
15.034676,8.210541376123537,0.1237101792445781
15.037055999999996,8.242157575043494,0.1232569586178068
15.039472,8.27740588840395,0.1227440502765976
15.041856,8.312002575458346,0.1222295022613881
15.04424,8.341803665086992,0.1217634108615608
15.046635999999996,8.374725012476937,0.1212236970180224
15.049024,8.405644259120463,0.1207122438921869
15.051404000000002,8.43377000908465,0.1202315684027649
15.053803999999996,8.461895759048844,0.1197520366154116
15.056187999999995,8.49188384013259,0.1192591045743928
15.058572000000002,8.512792583044032,0.1188725656290443
15.060968,8.528206880395421,0.1185643930424614
15.063355999999995,8.543481408119952,0.1182639575484735
15.065740000000002,8.560618266964036,0.1179483490983961
15.068139999999996,8.579757226554541,0.1176129221425238
15.070528,8.59531129353279,0.1173018106680643
15.072912,8.612355604578257,0.1169600204654354
15.075307999999996,8.619948490399082,0.1167028431243045
15.077696,8.625586497301736,0.1164312708172741
15.08008,8.627779381218993,0.1161797284105698
15.082475999999996,8.623314336590942,0.1159859521748953
15.084864,8.621782558269087,0.1157636373777086
15.087244000000002,8.6150358736409,0.1156024359941108
15.08964,8.607358023452939,0.115448405347769
15.092027999999996,8.602333900317445,0.1152776072728499
15.094411999999997,8.593677662741458,0.1151642499711055
15.096808,8.584090259605691,0.1150581809505445
15.0992,8.570358885350235,0.1149993240870437
15.101584,8.555277036654417,0.1149656428567545
15.103979999999996,8.537401691279262,0.1149536112805799
15.106368,8.524321943329861,0.1148985767302691
15.108747999999997,8.51245290019396,0.1148242265289143
15.111147999999996,8.501794561871554,0.1147303545153295
15.113536,8.489413662056455,0.1146449416499575
15.115915999999997,8.476520905562156,0.1145486353919399
15.118315999999997,8.465490480187414,0.1144376791898133
15.120704,8.452457954066258,0.1143465862083459
15.123083999999997,8.443010320557352,0.1142324300127275
15.125483999999997,8.438590601899675,0.1140985997314095
15.127867999999996,8.43375157436142,0.1139822933006606
15.130251999999995,8.436361871301388,0.113808804062039
15.132648,8.438692628987638,0.113647609541797
15.13504,8.444236192233806,0.1134476391284091
15.137419999999995,8.452293712905584,0.1132388374085596
15.139819999999997,8.46477474395078,0.1129750033525994
15.142208,8.483122307608365,0.1126583791753099
15.144592,8.502540806452586,0.1123304768331925
15.146987999999997,8.526243046043364,0.1119516766490408
15.149376,8.550364594514722,0.1115544998297822
15.15176,8.578630114105772,0.1111155520127275
15.154155999999997,8.603822597763768,0.1107097204176191
15.156544,8.629946246981543,0.1102987110261683
15.158928,8.652717321012542,0.1099323246029219
15.161323999999995,8.675208855789819,0.1095766968849794
15.163712,8.695930607246158,0.1092634639161958
15.166091999999995,8.721168416874528,0.1089249703454452
15.168491999999995,8.750130888742014,0.1085622574955167
15.17088,8.779744986915555,0.1082066565201361
15.173264,8.812851429902732,0.1078093170868934
15.175659999999995,8.846889038449689,0.1074068318682618
15.178051999999996,8.879343855130806,0.1070095387661062
15.180447999999997,8.911938441438785,0.1066087916806485
15.182844,8.946255589239462,0.1062051635281025
15.185231999999996,8.977779240360803,0.1058210638131678
15.187615999999997,9.006881481855146,0.1054758473956224
15.190012,9.033981622603072,0.1051507336951872
15.192399999999996,9.06066245447042,0.1048434339487322
15.194779999999998,9.088646538949885,0.1045487191044947
15.19718,9.12035528566846,0.1042327963639258
15.199564,9.150294249066096,0.1039578462796494
15.201947999999998,9.182095543583284,0.103671565658841
15.204343999999995,9.212825902913842,0.1033973723460727
15.206732,9.245558362990812,0.1031068497499116
15.209112,9.283505729374117,0.1027697765775467
15.211519999999997,9.322803570197776,0.1024121936309723
15.213911999999995,9.358376748782328,0.1020795642899213
15.216295999999996,9.39101666106068,0.1017708645775591
15.218692,9.41900074554014,0.1014889494181912
15.221079999999995,9.44176992371327,0.1012578950486496
15.223463999999996,9.462537001139982,0.1010428646480387
15.22586,9.481953604126335,0.1008493842470454
15.228247999999995,9.499088567112556,0.1006821162359074
15.230631999999996,9.511288163046158,0.1005520602110331
15.233028,9.5233479893529,0.1004268460423635
15.235415999999995,9.531403614166813,0.1003331254923776
15.237799999999996,9.538528073420943,0.1002449337797447
15.240196,9.540996704876186,0.1001828845190657
15.242583999999995,9.538949278159397,0.1001422218802984
15.244967999999997,9.534899750696187,0.1001172388446009
15.247367999999998,9.527405100247586,0.1001029234624245
15.249756,9.520469528306428,0.100067977318437
15.25214,9.513533956365269,0.1000329665887967
15.254539999999997,9.50566721886433,0.1000030393069725
15.256927999999998,9.496450006923032,0.0999930268109556
15.259311999999998,9.486301629421956,0.099987807377874
15.261723999999996,9.4764327911746,0.0999723189402332
15.264112,9.466703722554106,0.0999516569216701
15.266496,9.462049790613086,0.0998909369046768
15.268891999999996,9.456744232366004,0.099825029463299
15.271283999999998,9.458795450798531,0.0996951111224716
15.273672,9.46326807885806,0.0995360161306022
15.276068,9.470581425425166,0.0993327705416197
15.27846,9.484320383112102,0.0990721217749724
15.28084,9.501411915985814,0.0987782617938657
15.283236,9.522135563300022,0.0984407415797205
15.285623999999997,9.545280620241227,0.0980759516183284
15.288008,9.57671361942182,0.097645433966984
15.290404,9.61135942416233,0.0971867665322388
15.292796,9.6456331418505,0.0967151558983649
15.295176,9.683119665098587,0.0962156417416456
15.297575999999996,9.717672922040478,0.0957358999024182
15.299964,9.75371642304959,0.0952341772580191
15.302348,9.79232110331256,0.0947022358351972
15.304743999999996,9.82575809909744,0.0941837697535601
15.307132,9.85854346857626,0.0936608205974039
15.309516,9.890397672495304,0.0931430484919588
15.311911999999996,9.924533516414485,0.0926049858858462
15.314308,9.955364006975133,0.0920718772045481
15.316695999999997,9.985263331976002,0.0915424991196165
15.319095999999998,10.004500526938727,0.0910766453924602
15.321484000000002,10.022946325968537,0.0906131694229306
15.323868,10.040041650557988,0.0901699511803933
15.326267999999995,10.049128572161768,0.0897792390379984
15.328656,10.05421129227272,0.0894146301314314
15.331039999999998,10.055289810890834,0.0890752960219039
15.33344,10.04929109208306,0.0887820635013315
15.335827999999996,10.04115050290201,0.0885076039906378
15.338216,10.03314968334782,0.088228924516351
15.340611999999997,10.02314676304721,0.0879620435267589
15.342995999999996,10.011141742000188,0.0877072619815272
15.345384,10.00127859132644,0.0874351569895889
15.347779999999997,9.986340303973224,0.0871949068665468
15.350163999999996,9.966047340686812,0.0869959704247996
15.352552,9.949618809266372,0.0867769252549136
15.354947999999997,9.936775170458189,0.0865480550939577
15.357336,9.923931531650002,0.0863186836642566
15.359723999999996,9.9090857920954,0.08610109504443
15.362115999999997,9.898197032205388,0.0858889428119762
15.364504,9.891964100114269,0.0856595115403494
15.366891999999996,9.887453729515842,0.0854261981067503
15.369288,9.88373475485034,0.0851947657976123
15.371672,9.882949046491031,0.0849493321144216
15.374059999999997,9.88416543887814,0.0846913084591064
15.376456,9.886452766451882,0.0844247611101028
15.378848,9.89153359070496,0.084147586942636
15.381232,9.904622817943707,0.0838248175014065
15.383627999999998,9.91477877887626,0.0835177305942049
15.386016,9.922792869435536,0.0832271295633275
15.3884,9.93532301816684,0.0829256862228844
15.390795999999998,9.948784332457926,0.0826212870646445
15.393184000000002,9.960755402681793,0.0823386905009819
15.395571999999998,9.981666041451104,0.0820103932111579
15.397967999999995,10.00578948578033,0.0816584739104907
15.400356,10.025489419736145,0.0813420273200023
15.402751999999996,10.041604461079704,0.0810351081801237
15.40516,10.056788336863484,0.0807309742317005
15.407543999999998,10.068759407087349,0.0804493655705907
15.409947999999996,10.077425123952684,0.0801673780358798
15.412351999999997,10.079432912272708,0.0799112488118653
15.414736,10.0870276939514,0.0796372362967424
15.417135999999996,10.088616173390848,0.0793946546325558
15.419532,10.08419835059104,0.0791837244814321
15.421919999999997,10.084296585963264,0.0789628354524635
15.424316,10.087467857268546,0.0787246701240058
15.42672,10.092361690066523,0.0784859578050282
15.429107999999996,10.092971782117944,0.078277290256615
15.431504,10.093442104542506,0.0780728746143806
15.433908,10.093493118086489,0.0778816338613146
15.436291999999998,10.090610865324274,0.0777038537557814
15.438692,10.086657677375424,0.0775332016243164
15.441087999999995,10.085917294986489,0.0773411659205997
15.443484000000002,10.07688897035816,0.0771978054720369
15.44588,10.069443437595671,0.0770580761880697
15.448263999999998,10.067212811139518,0.0768872713612402
15.450664,10.06549404136256,0.0767270207979023
15.453059999999995,10.069362264944273,0.0765515851600959
15.455448,10.075884215578457,0.0763722834840772
15.457843999999998,10.0830577925187,0.0761993659884986
15.460239999999995,10.09274532688456,0.0760267449644385
15.462628,10.101641465317504,0.0758535134670776
15.465023999999996,10.114122496362697,0.0756737688877348
15.46742,10.132749599274002,0.0754615686848352
15.469812,10.147652039946196,0.0752603621618113
15.472191999999996,10.162135171737804,0.0750738088705626
15.474591999999998,10.175826907596498,0.0748863790441842
15.47698,10.192591679388244,0.074683553110913
15.479359999999996,10.21121878229955,0.0744763302005862
15.481759999999998,10.23305869077077,0.0742495047187122
15.484143999999995,10.253967433682211,0.0740252839838894
15.486527999999996,10.275807342153437,0.0737989315680398
15.488924,10.29350327950496,0.0735955197893552
15.491311999999995,10.31413248316268,0.0733801687678879
15.493692,10.33103702458129,0.073174580931337
15.496087999999997,10.34687063081326,0.0729769543684525
15.498479999999995,10.363914941858727,0.072769039429198
15.50086,10.37895715215778,0.0725716638577459
15.503255999999997,10.399493808016883,0.0723395043956661
15.505644,10.422032564622404,0.0720998884192193
15.508028,10.44992599716112,0.0718299820389248
15.510423999999997,10.475677559326558,0.0715738604289998
15.512807999999996,10.503850531118992,0.0712979181293427
15.515191999999995,10.527599992538011,0.0710523930478038
15.517588,10.554422489890088,0.0707935005316993
15.519975999999996,10.580313821682386,0.0705379889325139
15.522372,10.605134218288043,0.070289534061555
15.524767999999998,10.629023449333925,0.0700445713518532
15.527156000000002,10.649979414073613,0.0698096192916968
15.529535999999997,10.671075148440156,0.0695723092729016
15.531935999999998,10.696035314672674,0.0693245225361553
15.534328,10.72271804239789,0.0690780310166555
15.536708,10.755267302735495,0.0688135171165537
15.539103999999998,10.79102936863302,0.0685330774277892
15.541492000000002,10.829445161583015,0.0682515318574818
15.543871999999997,10.867721184906152,0.0679755408340395
15.546275999999995,10.900922071549816,0.0677201529375203
15.548664,10.930258526327506,0.06747627698841
15.551044,10.953309139612225,0.0672647663351318
15.553439999999998,10.976219983270084,0.0670586835389883
15.555828000000002,10.994986855808246,0.0668727005328597
15.558207999999995,11.011891397226854,0.0666897977934506
15.560604,11.025583133085547,0.0665242654189567
15.562991999999998,11.042347904877294,0.0663462865544061
15.565372,11.056691267042046,0.0661879933007086
15.567772,11.068101362900602,0.0660384418923523
15.570159999999998,11.082444725065352,0.0658810292785637
15.57254,11.095577382416606,0.0657334585284181
15.574940000000002,11.111643306074054,0.0655774327782797
15.577327999999998,11.123425488984946,0.0654434850428992
15.579708,11.130272304843226,0.0653252095441313
15.582108000000002,11.135536328835672,0.065202424920183
15.584495999999998,11.13772731689506,0.0650924450733145
15.586876,11.136705499394536,0.0649987483928921
15.589271999999998,11.135032055587953,0.0648988263655149
15.59166,11.13149628066181,0.0648017121659587
15.594044,11.137971009467751,0.0646717826526818
15.596439999999998,11.146587608646977,0.0645313364058549
15.598828,11.157485847826331,0.0643768760891342
15.601207999999996,11.161586388833522,0.0642392421486727
15.603604,11.165826699467573,0.0640979092122562
15.605991999999995,11.173279815661534,0.063941111925942
15.608375999999996,11.183014571855638,0.0637703968782998
15.610772,11.18716233469107,0.0636073202430789
15.613159999999995,11.190798240847306,0.0634339271659883
15.61554,11.198578118123232,0.063244110004731
15.61794,11.202493563533189,0.0630636815460251
15.620327999999995,11.205757382637088,0.0628768000581015
15.622724000000002,11.20622770506165,0.0626935514643811
15.625123999999996,11.20911943711321,0.0624923241010134
15.627507999999995,11.216294909911324,0.0622712171664996
15.629892000000002,11.225472483455857,0.0620447097377204
15.632288,11.232415638828488,0.0618065291668827
15.634675999999995,11.239778103081708,0.061557177254634
15.637060000000002,11.2492824377082,0.0612989035718732
15.639456,11.259717937894472,0.0610395747127066
15.641843999999995,11.26349550953544,0.0607930861129669
15.644228000000002,11.26941495154968,0.0605377957679646
15.646624,11.273332292817503,0.0602886094397066
15.649016,11.286608511511355,0.0600044717204559
15.651396000000002,11.301886830951624,0.059715724373274
15.653792,11.314231884085697,0.0594338643244252
15.656179999999996,11.323783440540431,0.059155091539255
