Time,Force,Position
17.082307999999998,6.547235772442808,0.1562068479650711
17.084692,6.567065996736135,0.1561254148645455
17.087076,6.603983962187436,0.1557275450431602
17.089472,6.6429040283851535,0.1552878157893111
17.09186,6.685968065702567,0.1547613771048652
17.09424,6.727589080781003,0.154250575200901
17.096643999999998,6.761621001754352,0.1538626345042687
17.099031999999998,6.79472175716792,0.1534879237195855
17.101412,6.825773190006831,0.153195047506068
17.103807999999997,6.861061141764052,0.1528494926645874
17.106196,6.896721180573612,0.1525248566614559
17.108576,6.936897277555203,0.1521356204193165
17.110972,6.971578928976741,0.1518693468764903
17.11336,7.011335717077751,0.1515125239914164
17.11574,7.047926921447088,0.1511841774961609
17.11814,7.086008369883646,0.1508173736425656
17.120524,7.119294220894451,0.1505338595249558
17.122908,7.14783169630775,0.1502861109591517
17.125304,7.175624997616371,0.1500010731876237
17.127688,7.204396686313014,0.1496646395051945
17.130084,7.233634905718481,0.149268228686249
17.132479999999997,7.261010794004392,0.1489045170304807
17.134867999999997,7.274791285945962,0.1487607329066955
17.137248,7.2940662234475875,0.1485122012283082
17.139644,7.312037908337095,0.1482606632427696
17.142032,7.325353765427712,0.1480719250101333
17.144412,7.343093132891745,0.147794359914184
17.146808,7.36576786740839,0.1474422376173112
17.149196,7.389281219686194,0.1470456282114354
17.151591999999997,7.413772959352021,0.1465993889950989
17.153988,7.437240985659452,0.146135510111776
17.156375999999998,7.458334824168128,0.1456888957743468
17.158756,7.482828459691824,0.1451374832896011
17.161151999999998,7.50257371961801,0.1446216005924356
17.163539999999998,7.521807122864999,0.1440963952359816
17.165924,7.532660036073984,0.1436785202118412
17.168319999999998,7.540207595924434,0.1432853210386827
17.170707999999998,7.549617486894443,0.1428674074666929
17.268687999999997,7.016549251381662,0.1428486524610016
17.271075999999997,7.026557859255876,0.1428033852087715
17.273456,7.038708337503368,0.1427191729766385
17.275852,7.055235104296031,0.1425887991075686
17.27824,7.0794907348206415,0.1423477085283145
17.28062,7.1129654731444205,0.141950937510465
17.283016,7.143274627736526,0.1415794684836973
17.2854,7.167857019343101,0.1412913037958193
17.287779999999998,7.189925453524062,0.1410235390620814
17.290184,7.2084089950927694,0.1407962197417467
17.292572,7.224518348862721,0.1405822549288709
17.294952,7.240255615580337,0.1403516677347391
17.297348,7.257762665618891,0.1400632501247252
17.29974,7.281648104949032,0.1396993266802309
17.30212,7.311679616145285,0.1392391763311593
17.304516,7.343061601781897,0.1387459013248514
17.306904,7.37393173073931,0.138242926575028
17.309283999999998,7.404801859696724,0.1377422146459993
17.31168,7.433669887907722,0.1372745375954609
17.314068,7.461374433133466,0.1367999365365565
17.316447999999998,7.486844560187316,0.1363340037584811
17.318848,7.511663060935108,0.1358709757981099
17.321232,7.537832036123258,0.1353821642948888
17.323615999999998,7.562837528326153,0.134882678570913
17.32602,7.587470933476709,0.1343771177106946
17.328404,7.609310841947928,0.133908923104797
17.330783999999998,7.632081915978925,0.1334348216965765
17.333184,7.657646486689257,0.1329319038447941
17.335568,7.6869357196387025,0.1323900227324249
17.337951999999998,7.719949614827262,0.1318094405687415
17.340356,7.752963510015824,0.1312273941689281
17.342744,7.785046239644604,0.1306572797169591
17.345124,7.818711761139225,0.1300822824016174
17.34752,7.849863325208228,0.1295276059055944
17.349908,7.873845104052726,0.129041945658989
17.352287999999998,7.897315026218026,0.1285482760984487
17.354684,7.923066588383463,0.1280186732877833
17.357072,7.948306293869702,0.1274806028601446
17.359455999999998,7.974896473796299,0.1269150649032409
17.361852,7.994409416297007,0.1264404698716097
17.36424,8.016715855477049,0.1259415287857573
17.366619999999998,8.035669719470315,0.1254983627068382
17.369016,8.047266806783972,0.1251598198756459
17.371404,8.060306916336605,0.1248242456511327
17.3738,8.064639774769272,0.1246217279474413
17.376196,8.06776192838844,0.1244419648945025
17.37858,8.064598240514636,0.1243495285671962
17.380964,8.058641055961498,0.1242845774369551
17.38336,8.050821540288805,0.1242376233507761
17.385748,8.040999923869691,0.1242148935746725
17.388128,8.033320177823855,0.1241610318273188
17.390524,8.02699090621838,0.1240786877555163
17.392912,8.017868137933569,0.1240229318475397
17.395291999999998,8.009956074462256,0.1239451045476132
17.407256,7.966106328785536,0.1239194603517645
17.409636,7.968202873188439,0.1238242407761317
17.412032,7.966015676844786,0.1237887957923803
17.41442,7.966110120501272,0.1237173154228395
17.416804,7.971419470464091,0.1235772497394748
17.4192,7.9739353237475745,0.123463183277164
17.421584,7.982737018524029,0.1232653741295797
17.423968,7.992330109233402,0.1230657629102294
17.426368,8.008069271808886,0.1227883086066252
17.428752,8.02245795994401,0.1225370867642434
17.431131999999998,8.037218735131473,0.1223031895074021
17.43354,8.051420431811493,0.1220945412198949
17.435924,8.063992114797436,0.1219269889082799
17.438304,8.074654244835578,0.1218130899052464
17.440704,8.095559196031282,0.121607901343007
17.443088,8.115485759838965,0.1214478141762119
17.445472,8.143700265886036,0.1211836954342091
17.447868,8.171635232679384,0.1209349157077983
17.450256,8.19635739391282,0.1207290546355356
17.452636,8.222430029586613,0.1204968949430456
17.45504,8.248782204514127,0.1202533528075029
17.457428,8.265123875709556,0.1201251721032605
17.459812,8.28439881321118,0.1199665459361611
17.462208,8.303533981085943,0.1198153058635464
17.464596,8.324391710453405,0.1196560989998803
17.466976,8.345901066126922,0.1195007304336023
17.469372,8.36619971698694,0.1193669721604816
17.47176,8.384496267100545,0.1192550209099257
17.47414,8.40065094684087,0.1191718795754985
17.47654,8.425373108074304,0.1189796603340672
17.478924,8.451585513374958,0.1187569858117989
17.481308,8.480778406810048,0.1184724096422119
17.483704,8.51067014837944,0.1181581519914904
17.486092,8.540469342150216,0.1178150293234192
17.488476,8.56030525401715,0.1175488444402661
17.490872,8.582050718831884,0.117235407771159
17.493256,8.597789881407367,0.1169867677626867
17.495652,8.610875316930377,0.1167549809818046
17.498048,8.626382162080382,0.1164841535603239
17.500436,8.644542734282865,0.1161997606328089
17.502816,8.662982845739066,0.1159053434488597
17.505219999999998,8.684775532382044,0.1155646660671302
17.507607999999998,8.704054261599408,0.1152351124300854
17.509988,8.720539494137437,0.1149271977699428
17.512383999999997,8.733579603690071,0.1146380659202612
17.514772,8.748389496563645,0.1143080642853285
17.517156,8.7636186983178,0.113962188439342
17.519551999999997,8.780477913766035,0.1135803866549693
17.521939999999997,8.799898308468126,0.1131577711104636
17.524324,8.808237264251495,0.1128479205944192
17.526719999999997,8.812199931489694,0.112561541719995
17.529107999999997,8.811878857981338,0.1123259390766464
17.531488,8.813280345965678,0.1120830419629908
17.533891999999998,8.818406496189132,0.1118139575673023
17.536279999999998,8.823253107158866,0.1115552238029198
17.53866,8.821022480702712,0.1113661508907517
17.541064,8.820282098313776,0.1111474324921955
17.543452,8.821683586298118,0.110903973589154
17.545831999999997,8.824295779095955,0.1106430520916592
17.548236,8.819738186669289,0.1104243788784235
17.550624,8.815180594242623,0.1102061323250093
17.553003999999998,8.808620901069538,0.1100063257758102
17.5554,8.801409581590399,0.1098012653547736
17.557788,8.796200362857672,0.1095769987493517
17.560167999999997,8.791922309684725,0.1093459817021986
17.562564,8.786945408377477,0.1091435689975259
17.564951999999998,8.77489126964434,0.1090087932213095
17.567332,8.761626426097706,0.1088914637638658
17.569732,8.742867136991018,0.1088403508811944
17.572115999999998,8.731696941989416,0.1087313381462977
17.574496,8.724903035532986,0.1086007551480413
17.5769,8.722113330569389,0.1084328539830366
17.579288,8.717601064113099,0.1082725130163864
17.581668,8.708153430604192,0.1081554025360204
17.584063999999998,8.698705797095288,0.108037985007148
17.586451999999998,8.697126796945188,0.107852007274068
17.588832,8.694197322354732,0.1076892882823355
17.591236,8.68805504220436,0.1075625670651536
17.593624,8.68028274835991,0.1074704281474371
17.596004,8.675815807873988,0.1073694360548899
17.598408,8.667204896268377,0.1073108539757462
17.600792,8.664180978021431,0.1072140346633046
17.603175999999998,8.6653935786928,0.1071027064194957
17.605572,8.670470611230142,0.1069615909675603
17.60796,8.677270205260179,0.1068143984446404
17.610343999999998,8.684489108170798,0.1066511463684396
17.61274,8.699716414067083,0.1064156811190516
17.615128,8.716806051082926,0.1061685117068721
17.617507999999997,8.736968724031824,0.1058905145896458
17.619904,8.752894878062415,0.1056276520778211
17.622291999999998,8.764956600227027,0.1053951504865022
17.624675999999997,8.775016221645222,0.1051814754381305
17.627072,8.785867238996337,0.1049681343348879
17.629459999999998,8.801653623400064,0.1047147449278266
17.63184,8.821304439669763,0.1044325466229173
17.634235999999998,8.838953155193048,0.1041700549695003
17.636623999999998,8.85953513702253,0.103885493492237
17.639004,8.885192255531477,0.1035565610437753
17.641403999999998,8.914621258107784,0.1031749716236764
17.643791999999998,8.944329799937812,0.1027829941430334
17.646176,8.979113478447312,0.1023462604396918
17.648571999999998,9.0101724947177,0.1019359027406822
17.650959999999998,9.034573582442778,0.1015700552251642
17.65334,9.054318842368964,0.1012347959736326
17.655735999999997,9.0692685048694,0.1009326635434306
17.658123999999997,9.07942256994408,0.100663076805455
17.660519999999998,9.089716404645625,0.1003902190758397
17.662916,9.099870469720306,0.1001236798199297
17.665304,9.112306174795128,0.0998316872806106
17.667688,9.13018910360176,0.0995147882427877
17.670084,9.152216003528084,0.0991617553071482
17.672472,9.1771761697606,0.0987902042324132
17.674851999999998,9.200274004873563,0.0984298219096898
17.677252,9.218576242560776,0.098101794778249
17.67964,9.23529568838215,0.0977752997888706
17.682024,9.24936140715105,0.0974590678554549
17.68442,9.260913168494334,0.0971486423854762
17.686804,9.267669332411868,0.096869145032968
17.689187999999998,9.26706871964979,0.0966553578513955
17.691584,9.26954114282077,0.0964174950017558
17.693972,9.266938429312278,0.0962192499710634
17.696351999999997,9.263544319870864,0.0960205940606699
17.698748,9.266156512668704,0.0957771200824325
17.701135999999998,9.267418231026184,0.0955533579747171
17.703516,9.269471345316582,0.0953287610289364
17.705911999999998,9.27683191371193,0.0950847373260499
17.708299999999998,9.280839906920503,0.0948766783859384
17.71068,9.284056504196156,0.0946686824382027
17.713079999999998,9.285922627031452,0.0944818462900431
17.715463999999997,9.279640577254218,0.094358996747123
17.717859999999998,9.271868283409766,0.0942615741645341
17.720256,9.257018752139423,0.0942175943636538
17.722644,9.24375201273492,0.0941742914229505
17.725028,9.235001331502447,0.0941124629191085
17.727424,9.226482967695452,0.0940713934876197
17.729812,9.22154949650071,0.0940167072282605
17.732196,9.21978160903764,0.093963971984462
17.734592,9.22266954937346,0.0938885035892345
17.73698,9.236359389374286,0.0937436668165901
17.739359999999998,9.243903157509,0.093646267748599
17.741764,9.257453227882962,0.093507130573476
17.744152,9.270304450122625,0.0933928952806714
17.746532,9.280222406056094,0.0932976216147041
17.748928,9.295215498669032,0.0931655465588345
17.751316,9.31728582870786,0.0929838682773166
17.753695999999998,9.339775467627268,0.0927888226555696
17.7561,9.368271408785928,0.0925548753945435
17.758488,9.399560846623922,0.0923100150228129
17.760868,9.432060989275415,0.0920530651145142
17.763264,9.4699158078601,0.0917494450903745
17.765652,9.509912496818066,0.0914299883643046
17.768031999999998,9.558057358388556,0.0910534222268295
17.770428,9.605550593652987,0.0906724030896274
17.772816,9.647456835558753,0.0903168409191471
17.775199999999998,9.68577818485226,0.0899716948654363
17.777604,9.721957663772493,0.0896460605378184
17.779988,9.753481314893833,0.0893414707432328
17.782372,9.78221146933584,0.089051172320434
17.784768,9.799208558553063,0.0888300022069048
17.787156,9.8240742811291,0.0885633887794844
17.78954,9.848940003705131,0.0882998697160008
17.791936,9.876366905535022,0.0880047902306922
17.794324,9.908589404790664,0.087687657269725
17.796704,9.935876536993694,0.0874004564122208
17.799104,9.960090633263668,0.087137583833456
17.801492,9.984304729533642,0.0868769692979946
17.803872,10.001860897258313,0.0866482938012946
17.806268,10.015692402743866,0.0864350731733858
17.80866,10.027521807483003,0.0862345813239417
17.81104,10.042004939274614,0.0860296776003179
17.813436,10.052623639200252,0.0858440638864849
17.81582,10.058167202446416,0.0856903206927663
17.818216,10.06585263606586,0.0855212924261902
17.820612,10.08154647267097,0.0853079643403458
17.823,10.107530352261882,0.0850316838506847
17.82538,10.133933540733375,0.0847423735155841
17.827776,10.164620469951426,0.0844225601730613
17.830164,10.197449269542757,0.0840891279205882
17.832544,10.237075767306248,0.0837229939541042
17.83494,10.271906667643991,0.083380799958893
17.837328,10.30259359686204,0.0830661187986536
17.839707999999998,10.330347259773893,0.08276587802798
17.842104,10.354096721192912,0.082489024788016
17.844492,10.379708513731488,0.0822055579118064
17.846888,10.399593543284537,0.0819450272240036
17.849283999999997,10.41654530653139,0.081699082565727
17.851672,10.435219631270938,0.0814511589995111
17.854052,10.455896056756902,0.0811932503161077
17.856448,10.476852021496589,0.0809272572966704
17.858832,10.495433798437515,0.08065943663249
17.861212,10.51429511463217,0.0803827167962395
17.863616,10.53329620045368,0.0801013527537102
17.866004,10.548153315155496,0.0798455372597042
17.868384,10.555933192431429,0.0796289081947135
17.87078,10.55249186116177,0.0794751612017904
17.873168,10.549841925825032,0.0793230746508778
17.875552,10.543187788995464,0.0791909041127306
17.877948,10.530667119553504,0.079083848494382
17.880332,10.51563249268593,0.0789762722084263
17.882711999999998,10.501808570631855,0.0788571347215018
17.885116,10.48854372708522,0.0787204660691043
17.887504,10.481424955404696,0.0785504680070593
17.889888,10.476448054097448,0.0783668543257
17.892291999999998,10.474823727976975,0.0781588458482156
17.894679999999997,10.481207804842173,0.0779132359705206
17.89706,10.487591881707369,0.0776673947839719
17.899464,10.49518666338606,0.0774109607125888
17.901847999999998,10.501850279504977,0.0771576908524869
17.904232,10.507023651556676,0.0769238856850143
17.906627999999998,10.5059111821154,0.0767258061324488
17.909015999999998,10.503867547114348,0.0765298472549276
17.911396,10.504105552113431,0.076316327891824
17.913791999999997,10.506625197112657,0.0760849058664942
17.91618,10.509424381365598,0.0758442899353904
17.918564,10.518369637484652,0.0755715845154188
17.920959999999997,10.525452562484148,0.0753040647182036
17.923347999999997,10.533606422670283,0.0750294013766912
17.925728,10.543343074722255,0.0747569483246399
17.928124,10.553731353080284,0.0744908168680926
17.930512,10.55890472513198,0.0742535459292196
17.932896,10.564869493116596,0.0740183021670167
17.935292,10.56655052035466,0.0738108686266782
17.93768,10.56236501498033,0.0736258065981625
17.940072,10.556037639232722,0.0734544966848126
17.942476,10.54156209087259,0.0733225435137017
17.94486,10.526015607325816,0.0731967275683061
17.947239999999997,10.508467023032626,0.0730794273444742
17.949635999999998,10.48905610761988,0.0729661379048709
17.952019999999997,10.469924731460852,0.0728441133104056
17.9544,10.459872693474134,0.0726805095342634
17.956796,10.454336713659446,0.0725101780756247
17.95918,10.44530838903112,0.0723674085497371
17.961575999999997,10.436000525149076,0.0722329830756129
17.963972,10.430417323506145,0.0720899058971831
17.966359999999998,10.42069015074352,0.0719679013679838
17.96874,10.411102747607757,0.0718413908558189
17.971135999999998,10.404169071524466,0.0717128388069086
17.973523999999998,10.405383568053702,0.0715473700314015
17.9759,10.40738946051586,0.071384276329529
17.978299999999997,10.416612360030763,0.0711862088697228
17.980684,10.425555720291946,0.070996733117462
17.983064,10.434499080553133,0.0708074987037821
17.985467999999997,10.448377807866928,0.0705997075958571
17.987855999999997,10.45839210331475,0.0704039554762746
17.99024,10.474552470628684,0.0701796083006975
17.992644,10.497138449062447,0.0699199332444391
17.995027999999998,10.519864197123074,0.0696561680102946
17.997412,10.54631460742281,0.0693855857575308
17.999807999999998,10.577188528095965,0.0690886949218705
18.002195999999998,10.603127081716504,0.0688113279281185
18.004576,10.626551677911433,0.0685327581543803
18.00698,10.652397683733357,0.0682341586621753
18.009363999999998,10.679454394368776,0.0679267524349816
18.011744,10.705579939444418,0.067622854435766
18.014139999999998,10.734126894147058,0.0672994568310227
18.016528,10.765746884782756,0.0669644532791405
18.018908,10.797925953925898,0.0666159125979892
18.021308,10.819582662657751,0.0662946111182574
18.023692,10.842077989150768,0.065950795978383
18.026088,10.858706783031396,0.0656251527329401
18.028484,10.874963489859685,0.0652853045802614
18.030868,10.88842670000864,0.0649494054511158
18.033252,10.900307118291757,0.0646091707873922
18.035648,10.915260572507927,0.0642561723675651
18.038032,10.928351695604544,0.0639074594799269
18.040412,10.934086042021551,0.0635933588695096
18.042816,10.9421020284387,0.0632652043880669
18.045204,10.94639335261673,0.0629427803511761
18.047584,10.946261166421344,0.0626463183091777
18.04998,10.94226454835999,0.0623576019478565
18.052368,10.935194894365578,0.0620800180976086
18.054748,10.9309187370505,0.0617995176072477
18.057144,10.923569543802364,0.061530427533714
18.059532,10.910493587568704,0.0612716304764028
18.061928,10.8980692576411,0.0610196491109523
18.064324,10.881361186966938,0.0607879284036061
18.066712,10.859950066665643,0.0605880999624707
18.069092,10.84584850121572,0.0603827353274253
18.071496,10.827043886138656,0.0602087999502569
18.073884,10.810613458860352,0.0600428964864618
18.076264,10.79455511863438,0.0598913284101492
18.078668,10.782361210274386,0.0597311645187939
18.081052,10.769608223406948,0.0595863791265875
18.083432,10.757506862845569,0.0594483902943986
18.085828,10.746057128590245,0.0593172060488052
18.08822,10.739682531014392,0.0591691315796446
18.0906,10.731398380490742,0.0590495176224836
18.092996,10.726699122579346,0.058929965849716
18.095384,10.72265149097401,0.0588171945955627
18.097768,10.728055284593315,0.0586912949393766
18.100164,10.737183740451735,0.0585616611135314
18.102548,10.74109729000382,0.0584524352330497
18.104928,10.7467334010486,0.0583452258532249
18.107328,10.76088977175825,0.0582263147431091
18.109712,10.773835437654398,0.0581164352731973
18.112096,10.786641333923686,0.0580101065705975
18.114492,10.800937474260197,0.0578870603420995
18.11688,10.809506851611172,0.0577732273157918
18.11926,10.82394276157454,0.0576466068750728
18.121656,10.840800081164904,0.0575032379631775
18.124044,10.858868105568767,0.0573517191005448
18.12644,10.875725425159136,0.0572092532588354
18.128836,10.896726715869194,0.0570527092354773
18.131224,10.916796841019476,0.0568974562812935
18.133604,10.93593580060998,0.0567434620141214
18.136,10.952001724267424,0.0566000167298241
18.138388,10.968766496059173,0.056437553098545
18.140768,10.983948475985082,0.0562695787697433
18.143168,11.00262280072463,0.0560813033778124
18.145552,11.01449942729201,0.0559061040064431
18.147936,11.02758675867289,0.0557235301322479
18.150332,11.044026665240542,0.0555240376046577
18.15272,11.062748211808334,0.0553127553779448
18.1551,11.077745096137011,0.0551050842809606
18.157496,11.093301058973132,0.0548828509438575
18.159884,11.115282632929082,0.0546357669380555
