Time,Force,Position
17.193448,6.482231097209611,0.1594446603167606
17.195836,6.500665521092206,0.15932159674536
17.198232,6.526596491281272,0.1590363939266803
17.200628,6.558720755164691,0.1585872289879328
17.203015999999998,6.59289434162277,0.158053402017925
17.2054,6.630327955469009,0.1574096444010237
17.207796,6.665015294464153,0.1567644453099977
17.21018,6.698958459354622,0.1560859041465341
17.212564,6.730108127565755,0.1554534980021211
17.21496,6.758044990216973,0.1548949436985381
17.217348,6.7842120695472525,0.1544017381398396
17.219728,6.815034976676423,0.1538330576252026
17.222124,6.8555416264557145,0.1531299181861421
17.224512,6.892276392167652,0.1525285103766553
17.226892,6.930221862693087,0.1518984853628849
17.229288,6.967236167658744,0.1512804338335747
17.231676,6.999874184079229,0.1507274527575351
17.23406,7.027484285648486,0.1502393707404641
17.236456,7.045038557515282,0.1498600311497576
17.238844,7.053468165239401,0.1495702887897076
17.24124,7.060362202925926,0.1492510037743893
17.243636,7.05729295870861,0.149071798669075
17.257972,6.992685614894516,0.149053439570671
17.26036,6.988264000378972,0.1490293019509976
17.26274,6.983190759557371,0.1490027083352217
17.265136,6.976162639817596,0.1489693513660782
17.267523999999998,6.97048499451818,0.1488987831216099
17.269904,6.961921304740808,0.1488338949922173
17.2723,6.955826246418678,0.148670136284015
17.274688,6.942561402872044,0.1485959524773503
17.277072,6.929436328952268,0.1485143429872165
17.281856,6.896248713313686,0.1484688967806414
17.284236,6.882424791259609,0.148426676669939
17.286632,6.878284611855652,0.1482673635290653
17.28902,6.875168145810089,0.1481287414451644
17.291404,6.880432169802534,0.1478694017964517
17.2938,6.886068280847318,0.1476290241901583
17.296188,6.891192535212904,0.1473775091081711
17.29858,6.897946803272569,0.1470719587002428
17.300976,6.903258049093259,0.1467685221171344
17.303364,6.908057438234749,0.1464575748662522
17.305748,6.9079686821518695,0.146187690894211
17.308144,6.9027122415909,0.1459727567836917
17.310528,6.899829988828685,0.14574175884669
17.312912,6.900904715731062,0.1454841269122284
17.315316,6.899046176327243,0.1452746937818412
17.3177,6.900632759908817,0.1450306765497607
17.320084,6.904034452781704,0.1448037327863214
17.32248,6.914978017931434,0.1445065701937291
17.324868,6.927923683827583,0.1441761876976268
17.327248,6.944594011962844,0.1437961736390688
17.329648,6.967922268643417,0.1433190455352309
17.332036,6.986315158271377,0.1429192362859599
17.334416,6.999121054540666,0.1425980938669178
17.336812,7.012346259690535,0.1422552600844932
17.339199999999998,7.018541449242756,0.1419915565080231
17.34158,7.023433386182862,0.1417223056731434
17.34398,7.027626474988667,0.1414902693753561
17.346368,7.034705608272423,0.1412556721023879
17.348748,7.042948224541437,0.1410336028153559
17.351152,7.046627560810175,0.1409080865336095
17.35354,7.053332711183726,0.14077131440349
17.355923999999998,7.065717402714564,0.1405931402701132
17.35832,7.076891389431906,0.1404433409222333
17.360708,7.091417951336022,0.1402289995937664
17.363091999999998,7.108738009919472,0.1399801970018828
17.365488,7.121122701450311,0.1398089340224463
17.367876,7.131505292234733,0.1396700984486708
17.370256,7.14645116301943,0.1394431379874631
17.372652,7.163399134550543,0.139188459373074
17.37504,7.177693379029182,0.1389627523975135
17.377424,7.190776918694319,0.1387657197629154
17.37982,7.213311883584101,0.1384505008293301
17.382208,7.242085468138612,0.138073935845713
17.384588,7.271370909372321,0.1377108921890002
17.386988,7.3054047262035375,0.1373245373245434
17.389376,7.344466457885983,0.1369057740331972
17.391756,7.3883237869941825,0.136425780059758
17.394152,7.429387619423047,0.1359811607687572
17.396539999999998,7.474083566292407,0.1354650830198703
17.398936,7.523203023535181,0.1348696671204942
17.401332,7.572602020031678,0.1342659058020774
17.40372,7.620557994289197,0.1336676412996947
17.4061,7.669724673360212,0.1330461573995504
17.4085,7.712233423885921,0.1325112268884073
17.410888,7.751948677732296,0.1320121233085864
17.413268,7.792455327511587,0.1315079162845132
17.415664,7.834684538783576,0.1309916971292824
17.418052,7.869696743002817,0.1305885267890073
17.420436,7.901496141662141,0.1302392944750771
17.422832,7.932876231440885,0.1299101139578025
17.42522,7.961462824540294,0.1296119908198862
17.427604,7.985393589840811,0.1293689354434604
17.43,8.005367375476737,0.1291449548992201
17.432388,8.020964872567493,0.1289558927522903
17.434768,8.032745159620518,0.1287759738578889
17.437164,8.041359862941873,0.1286103530887052
17.439552,8.047460608837609,0.1284611430764123
17.441936,8.055982764360344,0.1282676483955004
17.444332,8.060500718390244,0.1281255328327054
17.44672,8.064087506860366,0.1279935379096378
17.449104,8.064089402718235,0.127892039048283
17.451504,8.065302003389602,0.1277690242241929
17.453888,8.068516704807388,0.1276223620226315
17.456268,8.071731406225176,0.1274749832450104
17.458672,8.07615681245646,0.1273062320174083
17.461056,8.080210131635408,0.1271207892244338
17.46344,8.081237636709542,0.1269394996787007
17.465836,8.084686551410673,0.1267148387767545
17.468224,8.087903148686328,0.1264671014392988
17.470603999999998,8.094751860402477,0.1261556949317241
17.473,8.103882212118762,0.1258078528228456
17.475388,8.109427671222795,0.1254885143156128
17.47778,8.112411951072973,0.1252182266629566
17.48018,8.119260662789122,0.1249055122866362
17.482564,8.129554497490664,0.1245705346086491
17.484944,8.134633425885873,0.1243044392022138
17.487348,8.14036398058714,0.1240427810803284
17.489736,8.141019398608934,0.123844450287858
17.49212,8.144468313310064,0.1236199904136964
17.494512,8.143913026518362,0.1234431856327275
17.4969,8.146291006032854,0.1232334950705328
17.49928,8.143733618494734,0.1230805042327651
17.501676,8.135589237597943,0.1229800968754714
17.504064,8.12837602226093,0.1228707107487944
17.506444,8.117950001364003,0.1228067458201906
17.50884,8.109898168265829,0.122735423708867
17.511228,8.107153789272603,0.1226245485708171
17.513624,8.104129871025659,0.1225265095493202
17.51602,8.104271536510385,0.1224197649838577
17.518408,8.099477834942507,0.1223680011321456
17.520792,8.093473428561122,0.1223370393851895
17.523188,8.091985080351774,0.122270357147161
17.525576,8.094780472888978,0.1221452007346764
17.52796,8.0995779661726,0.1219982356709753
17.530356,8.104794768336799,0.121833918972685
17.532744,8.115226476807333,0.1216034088906255
17.535124,8.127008659718227,0.1213477601594727
17.537524,8.143865979308591,0.1210331490379728
17.539912,8.156998636659845,0.1207512018764134
17.542292,8.17506666106371,0.1204163735599458
17.544692,8.193646542146771,0.1200941718165558
17.54708,8.216882251028725,0.1197317610092486
17.54946,8.243702852522931,0.1193428191269917
17.55186,8.273316950696472,0.1189310967882214
17.554248,8.304933149616431,0.1184959290389986
17.556628,8.336037491857192,0.1180536357022296
17.559032,8.361415071112422,0.1176672938622228
17.56142,8.384278692942036,0.1172926854456093
17.5638,8.403045565480202,0.1169343599310972
17.566204,8.423814538764784,0.116554168226071
17.568592,8.443931885743307,0.1161698337407648
17.570972,8.462466440855994,0.1157908939310911
17.573363999999998,8.479138664849128,0.1154295973091342
17.575752,8.491946456976283,0.1151065478406724
17.578132,8.503683313916804,0.114799342266392
17.580536,8.515420170857322,0.1144938195862481
17.582924,8.524363531118505,0.1142114466531351
17.585304,8.529442459513717,0.1139645833262225
17.587699999999998,8.537873963095702,0.113672535450745
17.590088,8.543791509252076,0.1133912598628796
17.592468,8.546543471676774,0.113115372927225
17.594864,8.54799218148936,0.1128312322692643
17.597252,8.548789264995886,0.1125429798518063
17.599632,8.546420764770739,0.1122596155551304
17.602036,8.544471573426172,0.1119589555245288
17.604423999999998,8.539868655029133,0.1116731019744421
17.606804,8.532612009579617,0.1114004311201711
17.6092,8.528009091182575,0.1111124949894517
17.611588,8.524057799091592,0.110828595367446
17.613968,8.517824867000472,0.1105757394478732
17.616364,8.51345426602891,0.1103090454444533
17.618752,8.505870859497431,0.1100800712425964
17.621132,8.49800791371223,0.1098627827374616
17.623528,8.489074032740394,0.1096577303209509
17.625916,8.477998281395278,0.1094781259691964
17.628312,8.462778558930468,0.1093434658140232
17.630708,8.448070693144857,0.1092193121894476
17.633096,8.435225158478804,0.1090809955229169
17.635476,8.420889379745528,0.1089726930102231
17.659372,8.31335587238302,0.1089322562512608
17.664144,8.314287037942801,0.1089255304863375
17.66654,8.31987403130147,0.1088855828364414
17.668924,8.323319154286862,0.1088705631901139
17.673716,8.329510552123347,0.1088697327970722
17.676104,8.33719219402705,0.1088382531942183
17.678484,8.347807102236949,0.108781031792585
17.680884,8.357862931939408,0.1087473798625137
17.683267999999998,8.365637121641727,0.108744682754698
17.688048,8.378811313247615,0.1087414860020463
17.690432,8.386725272576797,0.1087324426185347
17.692816,8.40078530377209,0.108658612823668
17.695212,8.411260442355127,0.108606871885495
17.697604,8.41987324981861,0.1085686747528667
17.699984,8.434911668401924,0.1084546657318978
17.702379999999998,8.445294259186344,0.1083758220764827
17.704768,8.451160791798735,0.108324488112861
17.707152,8.459960590717321,0.1082483164910107
17.709544,8.4734162174348,0.1081407724056194
17.711932,8.491946980831749,0.1079853949176984
17.714316,8.50819610422856,0.1078610504613438
17.716712,8.527518263558427,0.1077060836307592
17.719096,8.550565085127408,0.107526494888736
17.721492,8.57961820893564,0.1072917569091189
17.723888,8.607740167184094,0.1070660224434485
17.726276,8.631066528006794,0.1068776809120876
17.728656,8.659607795135827,0.1066380110316542
17.731052,8.697368170064026,0.1063128700661884
17.733439999999998,8.73806181129842,0.1059648197580492
17.735824,8.780757553279232,0.1055987085009834
17.73822,8.827597266379739,0.1051963385070665
17.740607999999998,8.871084404293468,0.1048361222938143
17.742988,8.914943629259536,0.104491929005104
17.745388,8.961456581278078,0.1041356371280016
17.747772,9.002894396617148,0.1038277585842339
17.750152,9.04219034158294,0.1035426450524306
17.752552,9.084931409534128,0.1032447936976752
17.754936,9.118872678566726,0.1030158325958834
17.757336,9.14508508386738,0.102845839932421
17.759728,9.162357920622588,0.102750794127611
17.762116,9.178839361444876,0.1026562634142159
17.764496,9.197043363759862,0.1025564626561777
17.766892,9.212453869395512,0.1024746257346463
17.76928,9.227584835777444,0.1024045746692025
17.771664,9.241505097345875,0.1023513438695533
17.788391999999998,9.300859792314734,0.1023309050810445
17.790779999999998,9.305375850486763,0.1023096688098684
17.793176,9.309380051979598,0.1022784662407336
17.795572,9.316736828659208,0.1022112564295762
17.79796,9.324373144592538,0.102133578015065
17.80034,9.330706207913751,0.1020462071083977
17.80274,9.34826047978055,0.1018663786926311
17.805128,9.374102693886735,0.1016158780013313
17.807508,9.406370519112754,0.1013033677022637
17.809908,9.440128588405988,0.1009667196346692
17.812292,9.472583405087107,0.100622937634862
17.814671999999998,9.506668235462309,0.1002504934616062
17.817076,9.538006790986412,0.0998650627866047
17.819464,9.568461402778986,0.0994555104206869
17.821844,9.594027869347189,0.0990530134916083
17.82424,9.621364119236327,0.098616296337735
17.826628,9.653962497260048,0.0981031447436214
17.829007999999998,9.6775287589397,0.0976317066524908
17.831412,9.69499617058149,0.0971820906570545
17.8338,9.71674732296983,0.0966924075887769
17.83618,9.737334992372917,0.0961901697723811
17.838576,9.757271035469945,0.0956838968371567
17.840968,9.778185465954998,0.0951463169817529
17.843348,9.795794543081517,0.094613764598039
17.845744,9.818246439462026,0.094027238254936
17.848132,9.838975774349844,0.0934447511671302
17.850512,9.854118115878988,0.0928939594525539
17.852908,9.862882068116546,0.0923714608714114
17.855296,9.870994394048047,0.0918463393768257
17.85768,9.87766369774057,0.0913164054252028
17.860076,9.879816943261062,0.0908014667970744
17.862464,9.881178792848637,0.0902872089730441
17.864843999999998,9.881749246503292,0.0897717431443662
17.86724,9.882179930531088,0.0892608609680931
17.869628,9.881260140118528,0.0887663618098656
17.872024,9.878198479332688,0.0882888210186372
17.87442,9.875788444852905,0.0878179773435483
17.876808,9.876032137425591,0.0873387722270691
17.879188,9.872923254811512,0.0868873722342691
17.881584,9.872607868876765,0.0864264945121958
17.883972,9.871733404434575,0.0859851028552157
17.886352,9.867226825551892,0.0855814333958218
17.888756,9.855875326668794,0.0852412806650327
17.891144,9.8438249796514,0.0849236869976738
17.893524,9.826000647820226,0.0846620818930799
17.89592,9.808967711921971,0.0844007239297978
17.898308,9.784577999344108,0.0841917967162214
17.900692,9.7613517697515,0.0839986538453675
17.903088,9.73370202978548,0.0838428530216055
17.905476,9.70507390243144,0.0837195401546418
17.907856,9.682404855488404,0.0835897933007393
17.910252,9.659828356343985,0.0834845424454352
17.91264,9.638787427237157,0.0834110980968526
17.915024,9.61904975074245,0.0833491616935415
17.91742,9.601826031673356,0.0832860550285351
17.931756,9.5096028987164,0.0832290183427
17.934144,9.500478234573723,0.0832280462734535
17.936528,9.49894266453613,0.0831954320799341
17.938932,9.503133857484068,0.0831381128264211
17.94132,9.509047611924702,0.0830787333593994
17.9437,9.516404388604313,0.0830270151542049
17.946096,9.53656516569534,0.0829084601973524
17.948484,9.553652906853312,0.0828088936077346
17.950864,9.575396475810178,0.0826926627715695
17.953264,9.59793144069996,0.0825775282454001
17.955652,9.613808477044437,0.0824905763650231
17.958032,9.628102721523074,0.0824009652384016
17.960428,9.642956044509154,0.0822926156069388
17.962816,9.65408470525612,0.0821974574488297
17.965196,9.667215466749502,0.0820914149500823
17.967592,9.679275293056245,0.0819936309365667
17.96998,9.693616759363126,0.0818751325381212
17.972376,9.70744636899081,0.0817459663175827
17.974771999999998,9.722346913805133,0.0816094311851587
17.97716,9.736316293059676,0.081475621206283
17.979544,9.752567312314358,0.0813213807942163
17.981939999999998,9.764022734143287,0.0811888749769161
17.984328,9.774686760039298,0.0810559125243625
17.986708,9.77962402294978,0.0809470351985347
17.989107999999998,9.785632221046898,0.0808305233802179
17.991496,9.790057627278184,0.080711046877821
17.993876,9.788336961643358,0.0806293886926243
17.996272,9.794764468621056,0.0805004922579983
17.99866,9.80068011891956,0.0803615079281131
18.00104,9.807294617352364,0.0801997557201231
18.00344,9.81991541802442,0.080006114974596
18.005828,9.832396449069616,0.0798168846221344
18.008208,9.844597940861089,0.0796374190678635
18.010604,9.86252619563809,0.0794358918966329
18.012992,9.879523284855315,0.0792384560078133
18.015376,9.89880201407268,0.0790223731556445
18.017772,9.91836028254376,0.0787984531589191
18.02016,9.937127155081926,0.0785731820636762
18.022544,9.955382170940894,0.0783385577907412
18.02494,9.978060697173277,0.078070872045316
18.027328,9.999668288219018,0.0778114391999759
18.029712,10.026630555197954,0.0775179285038919
18.032108,10.048797224751135,0.0772425342581788
18.034492,10.076318570237516,0.0769327888308659
18.036876,10.104538763858192,0.0766026973749193
18.039272,10.138765259718122,0.076246546452813
18.041664,10.17555293483191,0.07586507644907
18.044044,10.204471976586888,0.0755188755122016
18.04644,10.234182414274782,0.0751769169595924
18.048828,10.264684247895598,0.0748384624038271
18.051212,10.296257016703052,0.0744963981279838
18.053612,10.33104259107042,0.0741355663142515
18.056,10.363733516892754,0.0737607851810612
18.05838,10.394981420476114,0.0733806867929524
18.060776,10.425437928126556,0.0729998970899928
18.063168,10.455242809470938,0.0726154493538688
18.065552,10.483976755628683,0.0722390569920218
18.067948,10.515783737719484,0.0718494397412225
18.070336,10.546659554250503,0.0714638007518262
18.072716,10.57432256522161,0.0710986877860809
18.075112,10.603056511379355,0.0707284816945931
18.0775,10.625225076790407,0.070401357959634
18.079896,10.653679483694434,0.0700422165732377
18.082296,10.677850149851905,0.0697096088522314
18.08468,10.700530571942156,0.0693969514988537
18.087064,10.713200490300322,0.0691247493691058
18.08946,10.7187931712326,0.0688820930629377
18.091848,10.727738427351651,0.0686168718676941
18.094232,10.732819251604734,0.0683635819667008
18.096628,10.736968910298035,0.0681126751908108
18.099016,10.737254137125364,0.067873872364215
18.1014,10.734606097646497,0.0676449088792231
18.103796,10.735822490033604,0.0674051713322473
18.106184,10.733686307233937,0.0671869042184575
18.108564,10.732481289994045,0.0669672662043266
18.11096,10.726992532007598,0.0667703549106583
18.113348,10.720293069207656,0.0665831035358547
18.115728,10.710241031220937,0.0664171381772373
18.118132,10.697767583607217,0.0662703571855859
18.12052,10.688227402299695,0.0661147048698923
18.1229,10.676685120245756,0.0659661773463326
18.125296,10.668774952632315,0.0657884219410282
18.127684,10.656581044272318,0.0656331633819001
18.130064,10.646389236658736,0.0654707264139284
18.132468,10.635917889791436,0.0653163195994507
18.134856,10.63438611146958,0.0651321842104504
18.137236,10.639512261693037,0.0649331716790981
18.139636,10.64901470046166,0.0647362014953352
18.142024,10.6622418014694,0.0645337359770682
18.144404,10.674258197663638,0.0643408216655234
18.1468,10.68506388904438,0.0641570852923793
18.149184,10.696521206731177,0.0639800607348782
18.151568,10.703275474790845,0.0638369685842264
18.153964,10.71496510990312,0.0636793472253112
18.156352,10.721719377962785,0.0635363403596649
18.158732,10.735131574567756,0.0633801735672385
18.161128,10.751616807105783,0.0632124566502248
18.163512,10.772106241136646,0.0630321793392491
18.165912,10.795668711100562,0.0628400176825451
18.168308,10.815366749198509,0.0626575624226825
18.170696,10.836927118416003,0.0624729384997725
18.17308,10.854063977260092,0.0623134048455843
18.175472,10.872132001663957,0.0621527998396876
18.17786,10.890200026067822,0.0619930353449379
18.180244,10.908827128979125,0.0618177758841524
18.18264,10.92065653371826,0.0616594284751185
18.185024,10.932765477711117,0.0614941932925967
18.187408,10.937285327598884,0.0613425668047479
18.189804,10.937289119314624,0.0611926462452556
18.192192,10.938503615843858,0.0610337421148838
18.194572,10.943722313865932,0.0608627561068554
18.196968,10.951362421515,0.0606745892189482
18.199352,10.963286269910624,0.0604666960811799
18.201748,10.974418722373327,0.0602573756504812
18.204152,10.991697246702142,0.0600265029460579
18.20654,11.002737151366231,0.0597955877693053
18.20892,11.013125429724262,0.0595590931808837
18.211324,11.020999750656678,0.0593188674607755
18.213708,11.027291279723256,0.0590731512870675
18.216088,11.037447240655808,0.0588203258443473
18.218488,11.046951575282302,0.058561370691784
18.220872,11.063021290655486,0.0582711739465805
18.223256,11.081232876401948,0.0579727977754089
18.225652,11.095440260655575,0.0576851433932397
18.22804,11.108576709722568,0.0574024120017749
18.23042,11.125717360282392,0.057108982777066
18.23282,11.137131247856686,0.0568240312832765
18.235208,11.151618171364037,0.0565289818803175
18.237588,11.16889859155072,0.056231506416529
18.239984,11.190462752483958,0.0559181661521757
18.242372,11.20951295599158,0.0556004546988968
18.244756,11.22549012356615,0.0552932648889068
18.247152,11.240955434461524,0.0549770834031806
18.24954,11.252416543864062,0.0546712367391758
18.25192,11.266531380319073,0.0543699347137577
18.25432,11.28329994382656,0.0540705698126613
18.256708,11.297926636960767,0.0537803413811025
18.259088,11.31013192046798,0.0535058826048248
18.261488,11.32419953509475,0.0532310943111536
18.263872,11.334542487482404,0.052958550650495
18.266256,11.343023108750504,0.052686923161768
18.268652,11.348151154831829,0.0524323882987843
18.271044,11.351277100166731,0.0521829786251498
