Time,Force,Position
17.169643999999998,6.377939645301961,0.1582122395691804
17.172031999999998,6.39930733549075,0.1580129154984739
17.174416,6.417601989746485,0.1578820135696138
17.176811999999998,6.434174082509524,0.1577753957768382
17.179199999999998,6.448883844153007,0.1577013235137981
17.183975999999998,6.470574503708025,0.1576997318547212
17.186367999999998,6.483282164605088,0.15767033985722
17.188748,6.50236821479374,0.1575427229133273
17.191143999999998,6.523548913527427,0.1574087167005061
17.193531999999998,6.541097497820616,0.1573707439837748
17.195912,6.561020269912561,0.157312532226744
17.198316,6.586250496109455,0.1571805182601952
17.200703999999998,6.617207485291881,0.1569510719361137
17.203084,6.649375179287803,0.1566908306254684
17.205479999999998,6.677957980671474,0.1564855909427079
17.207864,6.707099860562585,0.156248243873642
17.210248,6.730375207841305,0.1561191544340918
17.212643999999997,6.759284770306939,0.1558600074597015
17.215032,6.787822245720237,0.1555895179146047
17.217412,6.81864136113367,0.1552715232917529
17.219815999999998,6.850950720614322,0.1549085075652322
17.222203999999998,6.88605357677431,0.1545054905798395
17.224584,6.921016663307436,0.1541100248671994
17.226976,6.9582613898407,0.1536652477924882
17.229364,6.993923324508128,0.153231704332248
17.231744,7.031075503242774,0.1527550628348958
17.234147999999998,7.06371162380539,0.1523471844425383
17.236532,7.092623082128895,0.1519987779273025
17.238916,7.124375258959975,0.1515699428771446
17.241312,7.1603186287389935,0.1510193484755631
17.243696,7.1920254795997,0.1505137447809028
17.246091999999997,7.219775350795816,0.1500436236899101
17.248488,7.240634976021146,0.1496534014500895
17.250875999999998,7.260610657514941,0.1492391030178196
17.253256,7.27914331676976,0.148826717820914
17.255651999999998,7.29837482415888,0.1483804055247821
17.258039999999998,7.323240546734914,0.1478188072234252
17.26042,7.342519275952277,0.1473389690720779
17.262824,7.358492651811108,0.1468913213799781
17.265212,7.368087638378349,0.146526121794675
17.267592,7.377962164199312,0.1461488794348225
17.269992,7.385462502221519,0.1457885856355091
17.27238,7.39394122763175,0.1453772735686599
17.27476,7.397903894869948,0.1450200531845477
17.277155999999998,7.4022858709887265,0.1446399131454357
17.279543999999998,7.404014120055031,0.1442899558632734
17.281924,7.4040198076286385,0.1439564002684124
17.387068,6.783818742701335,0.1437694117950337
17.389447999999998,6.791640154231899,0.1436894935322033
17.391852,6.813988127666578,0.1433955053609079
17.394236,6.8362435533026416,0.1430668887637926
17.39662,6.8621310933792,0.142656881696583
17.399016,6.891743295694873,0.1422008413591656
17.4014,6.935090663981741,0.1415370321341928
17.403783999999998,6.983001312268886,0.1407867879563197
17.406188,7.030260334249973,0.1400387936731507
17.408572,7.073934463618805,0.1393330761881096
17.410951999999998,7.114535557054581,0.1386779171487884
17.413356,7.154857111236639,0.1380337258536639
17.415744,7.197879614299414,0.1373264868823697
17.418128,7.237876303257379,0.1366351104101269
17.420527999999997,7.273356934043311,0.1360035999089116
17.422916,7.308558025575521,0.135386951123984
17.425296,7.340546311547817,0.1348239787394353
17.427699999999998,7.367506682668884,0.1343060933129462
17.430087999999998,7.393675657857031,0.1337965893177714
17.432468,7.422917668978236,0.1332387780747065
17.434872,7.45215968009944,0.1326841140311717
17.43726,7.476234006742553,0.1321813629522486
17.43964,7.491648304093943,0.1317983557175649
17.442035999999998,7.50892493256489,0.1313952343103907
17.444423999999998,7.524851086595476,0.1310274411606412
17.4468,7.540637470999203,0.1306709749957111
17.449208,7.551628257977178,0.130379294350449
17.451591999999998,7.556612742715904,0.1301699903122277
17.453975999999997,7.562947701894987,0.1299316986168046
17.456371999999998,7.572588014432602,0.1296745406816244
17.458759999999998,7.587163694022831,0.1293553283892365
17.46114,7.604440322493777,0.1289759898993209
17.463535999999998,7.615850418352332,0.1286697678970272
17.465923999999998,7.628423997196143,0.1283788403937344
17.468308,7.641928741599732,0.1280794261790215
17.470703999999998,7.6589258308169565,0.1277197787748441
17.473088,7.685002258206488,0.1272439016145745
17.475472,7.710799146342299,0.1267809159074454
17.477867999999997,7.735385329664611,0.126342262816481
17.480252,7.759272664852622,0.1259389267100817
17.482636,7.782368604107715,0.1255398697714832
17.485028,7.80425383854931,0.1251632577460755
17.487416,7.823717663363906,0.1248289555721317
17.489796,7.842203100790482,0.1245425020754986
17.4922,7.859617603030419,0.1242728628993162
17.494592,7.873586982284964,0.1240285689834266
17.496972,7.88485541265879,0.1238434429161676
17.499368,7.898498030831371,0.1236499182317663
17.501756,7.909299930496374,0.1235220891050817
17.504136,7.922383470161513,0.1233581990895879
17.532808,8.018695768978437,0.1233452446380777
17.535204,8.035594622823439,0.1232860329703245
17.537592,8.0533320944296,0.1231891132480201
17.539976,8.073723293088236,0.1230737738604551
17.542372,8.09448657879921,0.1229748076486103
17.54476,8.118462670070098,0.1228320128855999
17.54714,8.143509696527628,0.1226751093361554
17.549543999999997,8.168976031865737,0.122498720913285
17.551932,8.19216072720371,0.1223606778274673
17.554312,8.216928214407519,0.1222187834226846
17.556715999999998,8.241695701611325,0.1220781011005682
17.559103999999998,8.265671792882216,0.1219412660543858
17.561484,8.29542186896688,0.1217186254953214
17.563879999999997,8.332388952104292,0.1214094953223915
17.566267999999997,8.370054883376005,0.1210674746561375
17.568648,8.404275691662326,0.1207451309885004
17.571044,8.438776039202367,0.1204133806654918
17.573432,8.476069883421742,0.1200624468695857
17.575812,8.514434662827757,0.11969862312964
17.578212,8.550565024061878,0.1193352372161255
17.580596,8.584833054176439,0.1189896537294708
17.58298,8.614025947611532,0.1187049097857358
17.585383999999998,8.645220941793042,0.1184025184111326
17.587771999999998,8.671248251496461,0.1181284044263938
17.590152,8.69904534452082,0.1178123610739682
17.592551999999998,8.72260591862687,0.1175177314435362
17.594936,8.747144880120938,0.1171853899832314
17.59732,8.775455725682365,0.1167936284297842
17.599716,8.799949361206064,0.1164041044548158
17.602104,8.822767657065306,0.115991706667745
17.604484,8.844841778819873,0.1155502387606918
17.60688,8.865892187216044,0.115091251360492
17.609268,8.87935350150713,0.1146984912273762
17.611648,8.887507361693265,0.1143378996679495
17.614044,8.899153566693036,0.1139297462596959
17.616432,8.91629421725286,0.1134551556607853
17.618828,8.929338118521233,0.1129924987292441
17.621232,8.935863860871157,0.1125782017016406
17.623616,8.942157285795606,0.1121438919947672
17.625999999999998,8.948870019600633,0.111692586140834
17.628396,8.956281601539963,0.1112142163016512
17.630784,8.964671570867317,0.1106977833613663
17.633164,8.964820819783522,0.110233829264917
17.635559999999998,8.966180773513228,0.1097501340382695
17.637947999999998,8.965818165750235,0.109274640556683
17.640328,8.962662061307906,0.1088157732553902
17.642732,8.954570589812969,0.1084006694524454
17.64512,8.943126543131253,0.1080282471284102
17.647503999999998,8.932194353128736,0.1076645289549239
17.649896,8.919120292752941,0.107323445150287
17.652283999999998,8.899620621257315,0.1070527544401888
17.654664,8.878770475321332,0.1068043905368143
17.657059999999998,8.85670962457185,0.1065725677391175
17.659447999999998,8.836511104941923,0.1063270005080588
17.661828,8.810306283072748,0.1061352692793792
17.664232,8.775813518964181,0.1060270820560482
17.666619999999998,8.74555727377393,0.1059030703735644
17.669,8.715580567837396,0.1057671798785775
17.6714,8.682902913020149,0.1056770401554855
17.673788,8.651668280441871,0.1055899637233174
17.676168,8.61880363416952,0.1055361900875516
17.678572,8.585891766068922,0.1055140868078963
17.68096,8.562151783939248,0.1054351480344913
17.683339999999998,8.53971505442169,0.1053660926666806
17.685744,8.519512743076026,0.1053003860201554
17.688128,8.508622087328144,0.1051735777376492
17.690507999999998,8.49796374900574,0.1050684224568147
17.692904,8.485023770683199,0.1049921462032018
17.695292,8.47473751941313,0.1049030712530449
17.697675999999998,8.468548017434518,0.1048060282307243
17.700072,8.473532502173242,0.1046363174166497
17.70246,8.480099778777802,0.1044660677932704
17.70484,8.491974509487314,0.1042711416000066
17.707235999999998,8.501939687249024,0.1041215260605733
17.709623999999998,8.51893488060838,0.1039410729982617
17.712007999999997,8.541656836953267,0.1037175266294875
17.714412,8.565170189231074,0.1034961792057413
17.7168,8.594642621919885,0.1032568969642467
17.719179999999998,8.631052522407725,0.1029617162517773
17.721584,8.66424961733565,0.1027007167278592
17.723968,8.69916927375627,0.1024337983669812
17.726347999999998,8.734508239057472,0.1021519973517893
17.728744,8.76570323323898,0.101912824313231
17.731132,8.800390572234123,0.1016315517036327
17.733511999999997,8.830282313803517,0.1013840359160797
17.735912,8.856309623506936,0.1011681672093101
17.7383,8.88648090433005,0.10091377796724
17.740679999999998,8.922518717765554,0.100616533528456
17.743084,8.958696300827919,0.1003157298639345
17.745472,8.992871783143865,0.1000321505208345
17.747851999999998,9.02132050247428,0.0997897122315081
17.750248,9.04883805624492,0.0995534998157854
17.752636,9.071839551843524,0.0993393756178909
17.755015999999998,9.100754801882765,0.0990522551341421
17.757412,9.127016324869532,0.0987781430246487
17.7598,9.153557387110018,0.0984951126055358
17.762183999999998,9.173580290432056,0.0982484795393062
17.76458,9.188155970022285,0.0980285014532453
17.766968,9.193931850693923,0.0978711811706955
17.769347999999997,9.203200076179204,0.0976721866731532
17.771752,9.212608071291344,0.097468544880983
17.77414,9.219734426403344,0.0972910305616775
17.776519999999998,9.226069385582427,0.0971132104314046
17.778916,9.228911999947876,0.0969774898721717
17.781304,9.234827650246377,0.0968157987079204
17.783687999999998,9.240743300544882,0.0966547341626223
17.786084,9.246798720470244,0.0964895596389257
17.788472,9.243914571850162,0.0963893453899672
17.790855999999998,9.237817617670164,0.0963194238255818
17.793252,9.23656348274416,0.0961888247041188
17.79564,9.236147965579317,0.0960274323900766
17.798019999999998,9.235872218041337,0.0958609659828397
17.800416,9.238529736809548,0.0956748522650265
17.802804,9.238905615577623,0.0955149843894207
17.805184,9.237558932853004,0.0953594578791059
17.807588,9.23672410680758,0.0952149917188417
17.809976,9.244689079680745,0.0950142412214929
17.812359999999998,9.25637871479302,0.0947952910193379
17.814756,9.273795112890824,0.0945432089549803
17.817144,9.293725468414245,0.0942900543226389
17.819528,9.311141866512052,0.0940406169424253
17.821924,9.331910839796636,0.0937585254720975
17.824308,9.352819582708076,0.0934711139916807
17.826691999999998,9.370934828940182,0.093196077748122
17.829088,9.388770535918573,0.0929313871520714
17.831476,9.400599940657708,0.0927077470316889
17.833859999999998,9.407354208717372,0.0925218453138133
17.836256,9.42360712382992,0.0922550402920327
17.838644,9.444283549315886,0.0919453968335152
17.841023999999997,9.458254824428298,0.0917043845770083
17.84342,9.473389582525968,0.0914810463811077
17.845807999999998,9.489315736556554,0.0912589882875016
17.848191999999997,9.503239789840723,0.0910509446293906
17.850588,9.514090807191842,0.0908664556705123
17.852975999999998,9.529085795662647,0.090651152347638
17.855356,9.542777531521342,0.0904254849743954
17.857756,9.547669468461452,0.0902529418513922
17.860144,9.552049548722358,0.0900706170911869
17.86254,9.558990808237128,0.0898574213251913
17.864936,9.562207405512783,0.0896613445763403
17.867324,9.571942161706884,0.0894386599077279
17.869704,9.57846411234107,0.0892427153648455
17.8721,9.586848394094812,0.0890392692565279
17.874488,9.603520618087945,0.0887773936282143
17.876867999999998,9.623545417267854,0.0884865248454397
17.879264,9.655582820926265,0.0881232524674182
17.881648,9.694697462010556,0.0877160601564531
17.884031999999998,9.726455326415248,0.0873652356815478
17.886428,9.756211090073515,0.0870287455709903
17.888816,9.79025059447834,0.086659226861964
17.891199999999998,9.819634271084274,0.0863078925522125
17.893596,9.842360019144898,0.0859849440697086
17.895979999999998,9.86815880313858,0.0856426545728451
17.89838,9.892095256012702,0.0853063411854777
17.900776,9.910956572207354,0.0850038013820041
17.903164,9.929538349148286,0.0847114821538058
17.905548,9.953846889074748,0.0843926591115935
17.907944,9.975082393068153,0.0840945243474374
17.910332,9.989892285941728,0.0838472030843563
17.912712,10.002839847695745,0.0836067337904959
17.915115999999998,10.00498550978476,0.0834234129469008
17.917507999999998,10.006060236687135,0.0832477988179455
17.919888,10.008205898776154,0.0830646964235667
17.922283999999998,10.006859216051533,0.0829164798634566
17.924671999999997,10.002439497393858,0.0827879998702049
17.927052,9.986146943884542,0.0827223058736639
17.929448,9.966921124069028,0.0826704655289782
17.931836,9.95169950574635,0.0825963862399975
17.93422,9.937129513729731,0.0825280239178753
17.936616,9.919766025033772,0.0824688653951908
17.939004,9.91227327044304,0.0823599092937151
17.941384,9.919866156263865,0.0821688848163995
17.94378,9.924525775778497,0.0819919951612641
17.946172,9.9330498271591,0.0817982103302914
17.948552,9.945298540778817,0.0815925782382552
17.950948,9.955545153652116,0.0813972966668226
17.953336,9.96486060096564,0.0812059237888591
17.955716,9.981113516078192,0.0809816385271173
17.958116,10.00057923675066,0.0807351951183969
17.960504,10.0226986844756,0.0804845017231732
17.962884,10.052966304813069,0.0801870529838277
17.965284,10.087657435523951,0.0798563659777696
17.967672,10.120626004742135,0.0795291839567786
17.970052,10.14921828541515,0.079207805824416
17.972448,10.178090105341886,0.0788785382143641
17.97484,10.21511009788115,0.0785043798776582
17.97722,10.249196824114216,0.0781437717095605
17.979616,10.28076959292167,0.0777834214756556
17.982004,10.311970274676789,0.0774096138758668
17.984388,10.343031186805044,0.0770403351848237
17.986791999999998,10.36049670258896,0.0767279916367042
17.989183999999998,10.366741009827296,0.0764787403371724
17.991564,10.373404625946216,0.0762162625200538
17.993964,10.381558486132349,0.0759350327794842
17.996347999999998,10.38719838889287,0.0756534039887529
17.998728,10.396330636467026,0.075342661247431
18.001132,10.402948926615569,0.0750308658287873
18.003519999999998,10.400907187472384,0.0747506092242352
18.0059,10.396211721276726,0.0744732332761231
18.008304,10.394077434334926,0.0741706726832674
18.010692,10.394224787393265,0.0738526515941844
18.013071999999998,10.392370039705186,0.0735443463730619
18.015468,10.387162716830328,0.0732591386014615
18.017856,10.38474889063481,0.0729665881431837
18.020236,10.38233506443929,0.0726742726333524
18.02264,10.376987971937574,0.0723936854241149
18.025028,10.374853684995774,0.0720938957333182
18.027408,10.375512894733308,0.0717877801978176
18.029804,10.373890464470708,0.0714982552768431
18.032192,10.37333896939474,0.0712023490501861
18.034572,10.381727042864224,0.0708698356767584
18.036968,10.391325821147204,0.0705261475647627
18.039356,10.40329878722894,0.0701899792651071
18.041736,10.412850343683678,0.0698760401005144
18.04414,10.423053526444471,0.0695687367066549
18.046528,10.432557861070968,0.0692835640799536
18.048908,10.445786857936575,0.0689913842766828
18.051304,10.463392143347354,0.0686976063317204
18.053692,10.483651155810604,0.0684028611692621
18.056072,10.49790386603461,0.0681327845719164
18.058472,10.50666213069856,0.0678981700142328
18.06086,10.513278524989234,0.0676753767590143
18.06324,10.529114027079071,0.0674129817069622
18.065636,10.54494952916891,0.0671511681404638
18.068028,10.559434556818392,0.0669036909735354
18.070408,10.571637944467732,0.0666719720009095
18.072804,10.584073649542557,0.066460242939199
18.075192,10.59823191611007,0.0662507091162868
18.077572,10.615183679356925,0.0660364546121558
18.079968,10.631064507417136,0.0658281475434752
18.082356,10.644523925850352,0.0656402406217774
18.084736,10.658914509843346,0.0654510581727526
18.087132,10.671582532343644,0.0652616321364895
18.08952,10.682527993351243,0.0650711604952891
18.091916,10.694684159172343,0.0648716731206423
18.094312,10.705397302754468,0.0646633302557172
18.0967,10.711826705590038,0.0644772469384434
18.09908,10.716533546932911,0.0642901451526329
18.101476,10.721240388275785,0.0641036341253076
18.103864,10.728461187044273,0.0639206432960367
18.106248,10.737032460253117,0.0637242481520522
18.108644,10.749328395701076,0.0635225838466531
18.111032,10.750682661857176,0.0633565160291931
18.113412,10.75310786319991,0.0631854572575341
18.115812,10.75995657491606,0.0629898053285549
18.1182,10.768947157005488,0.0627834520127438
18.12058,10.775051694616964,0.0625585453696942
18.122976,10.778502505175965,0.0623343038743387
18.12536,10.7842349557351,0.0620969061743236
18.127756,10.79117811110774,0.0618505388539548
18.13016,10.801473841667152,0.0615860021950686
18.132544,10.812980277040062,0.0613133124259743
18.134928,10.82648881315939,0.0610355567545201
18.137324,10.844653177077609,0.0607532069700785
18.139708,10.860675670622554,0.060481343154446
18.142088,10.877210020846697,0.0602203291477936
18.144492,10.900309751817524,0.0599272467249028
18.14688,10.926622288348272,0.059620705262687
18.14926,10.949070393013043,0.0593220100902552
18.151656,10.972868972118178,0.0590116359902356
18.154044,10.995317076782952,0.0587141094083582
18.156424,11.017113555141668,0.058411312978184
18.15882,11.047709832418969,0.0580892009263872
18.161208,11.074162138576575,0.0577823123447026
18.163588,11.096330703987627,0.0574957603562907
18.165992,11.1205013701451,0.0572050437598294
18.168376,11.146766684847606,0.0569315541981295
18.17076,11.173683625856166,0.0566658849924634
18.173156,11.194454494998617,0.0564207372468733
18.175544,11.21881025675332,0.0561780149994691
18.177924,11.238882277761473,0.0559543126067283
18.18032,11.255461953955985,0.0557517896241992
18.182708,11.268968594217442,0.055559457278899
18.185088,11.279402198545846,0.0553773507184779
18.187484,11.289556263620527,0.0552025334224366
18.189872,11.303062903881989,0.0550116953735884
18.192264,11.309864393769896,0.0548549815035846
18.194672,11.313313308471026,0.0547152427971019
18.197056,11.319555719851492,0.0545735380554664
18.199436,11.324587426418462,0.0544401493726626
18.201832,11.332692168918484,0.0542979768446421
18.20422,11.339446436978148,0.0541677457795333
18.2066,11.339123467611923,0.0540561054626098
18.208996,11.346529361977645,0.0539333564770376
18.211384,11.352584781903008,0.0538218818279781
18.213764,11.35822089294779,0.0537219467155643
18.21616,11.361994672873015,0.053623020355352
18.218548,11.362835186492047,0.0535291442589386
18.220928,11.368331527909968,0.0534329197250153
18.223324,11.3679613367155,0.0533469635092949
18.225712,11.365449275147752,0.0532689590288238
18.228108,11.367872580632625,0.0531814846597842
18.230512,11.372158217237043,0.0530932242955482
18.232896,11.376443853841469,0.053005013198353
18.235276,11.383942296005808,0.0529047490699121
18.237672,11.387017227796733,0.0528246355524084
18.24006,11.392373799587793,0.0527326760659703
18.242436,11.399592702498412,0.0526399926689349
18.244836,11.408673936528588,0.0525468480315158
18.24722,11.416824004998984,0.0524541516702144
18.249604,11.422832203096103,0.0523697158868766
18.252008,11.430051106006722,0.0522778900312795
18.254392,11.441413980037032,0.0521738153054798
18.256776,11.447050091081817,0.0520758318848376
18.259172,11.458320417313512,0.0519513843299052
18.26156,11.465866081306098,0.0518282164755955
18.26394,11.474342910858455,0.0517047350575357
18.266336,11.484961610784094,0.0515734572260268
18.268724,11.494277058097618,0.0514288532732952
18.271104,11.505594606157556,0.0512800532434546
18.2735,11.52026472940427,0.0511158441436297
