Time,Force,Position
16.672795999999998,6.220185029218515,0.160162573755659
16.675179999999997,6.235408543399062,0.1599845755542464
16.677583999999996,6.255846963885943,0.1596949254934619
16.679968000000002,6.277356319559462,0.1593788429742897
16.682347999999998,6.302869876725814,0.1589842342627374
16.684744000000002,6.328615751317642,0.1586157959629759
16.687132,6.362462576693756,0.1581180440961496
16.689515999999998,6.398404050614904,0.1576251354598439
16.691912000000002,6.441096000879979,0.1570580756669122
16.694296,6.48974703155606,0.1564172376242932
16.696675999999997,6.539980854097977,0.155758513870315
16.699072,6.5912856118265335,0.15507701483764
16.701459999999997,6.637422685077002,0.1544627294366876
16.703843999999997,6.68318767127513,0.1538378594862682
16.70624,6.729931044861282,0.1531607271345521
16.708627999999997,6.777001179529397,0.152425366934609
16.711024000000002,6.823047600839116,0.1516637083475979
16.71342,6.868070308790441,0.150889953456844
16.715807999999996,6.909275806704033,0.1501542581268939
16.718187999999998,6.941309418646704,0.1495682987532637
16.720584000000002,6.964962540551367,0.1491134500381866
16.722972,6.974461187604255,0.1489224220618745
16.725355999999998,6.984611460963201,0.148735570306986
16.727752000000002,6.998905705441841,0.1484714602606878
16.730136,7.011197849174064,0.1482441131248775
16.73252,7.025492093652704,0.1479817164195425
16.734916,7.038063776638647,0.1477395930711505
16.737304,7.04518823589278,0.1475713549799142
16.739688,7.047145010668824,0.1474615448095612
16.742092,7.045936201713194,0.1473739692483323
16.744479999999996,7.043563909772309,0.1472736541669486
16.746859999999998,7.037746494846031,0.1472107805960337
16.749255999999995,7.035933281412586,0.1470788846438275
16.751644,7.031978197605865,0.1469894352622654
16.754024,7.026160782679585,0.1469261446749039
16.756428,7.018992893312947,0.1468988819029201
16.758815999999996,7.014199191745065,0.1468557369517775
16.763591999999996,7.006751763124707,0.146843366034106
16.76598,7.007590380885871,0.1467973990483214
16.76836,7.0118741216324265,0.1467151587670863
16.770759999999996,7.025237200551286,0.1464763702193686
16.773148,7.03836796204467,0.1462149328969126
16.775528,7.047774061298941,0.1460068485069112
16.777927999999996,7.0605327357399865,0.1457327402114188
16.780312000000002,7.074362345367669,0.1454409896590394
16.782696,7.08954242943571,0.1451155699565287
16.785092,7.109937419810084,0.1446998537873401
16.787475999999998,7.133684985371232,0.1442216256385791
16.789859999999997,7.160598134664054,0.14372750964947
16.792256000000002,7.191468263621468,0.1432125483242081
16.79464,7.229368408176527,0.1426267243462665
16.797039999999996,7.266989013477866,0.1420610456844025
16.799436,7.306611719525625,0.1414665383171239
16.801823999999996,7.345675347065943,0.1409023818938489
16.804204,7.386321766472096,0.1403303134721797
16.806599999999996,7.42710795550511,0.1397531594777706
16.808988,7.467801596739506,0.139149867435059
16.811368,7.50411894942873,0.1385888194200514
16.813764,7.53778257506548,0.1380602063254503
16.816152000000002,7.57172573995595,0.1375180166008993
16.818536,7.601944242607306,0.1370246011232102
16.82094,7.628390861191304,0.1366161105201753
16.866332,7.636818573057554,0.1364207966711337
16.868712000000002,7.635794859699161,0.1364005764226958
16.871108,7.638543030408122,0.1363021724793914
16.873495999999996,7.639568639624386,0.1362172762025494
16.875875999999998,7.642875888840787,0.136091461407848
16.878276,7.651445266191763,0.1358498752567699
16.880663999999996,7.662343505371121,0.1355308815350859
16.883043999999998,7.675011527871416,0.1351594792957267
16.885439999999996,7.6904730470510465,0.1347577513835935
16.887828,7.703932465484262,0.1343826504482445
16.890212,7.717903740596675,0.1340172858154658
16.892607999999996,7.733085720522585,0.1336294594101598
16.894996,7.755065398620664,0.1331588579286782
16.897391999999996,7.779559034144359,0.1326734279960386
16.899791999999998,7.810198741534165,0.1321059669418479
16.902175999999997,7.84284054967039,0.1315173896491174
16.904559999999996,7.875761897060336,0.1309169922577692
16.906956,7.909242322957723,0.1302945661189885
16.90934,7.940208791429493,0.1296877151808432
16.911724,7.969592468035425,0.1290926984897998
16.914119999999997,8.0002340712831,0.1284424413004242
16.916508,8.029432652291797,0.1277997821197883
16.918892,8.051274456620886,0.127263779548494
16.921287999999997,8.07590975762931,0.1266997529981954
16.923676,8.100545058637733,0.1261387733185351
16.92606,8.1214084755788,0.1256524347088046
16.928455999999997,8.134635576586536,0.1252787388491469
16.930844,8.152099196512584,0.1248817869728446
16.933228,8.169143507558054,0.1245059503982093
16.935623999999997,8.18818991934994,0.1241051144325208
16.938012,8.205933078529709,0.1236956732479044
16.940396,8.219951575470365,0.1233220880972491
16.942791999999997,8.22903470535841,0.1230083655012134
16.94518,8.233601777074423,0.1227323973313416
16.973855999999998,8.04460929388106,0.122666530173149
16.976236,8.03576606484997,0.1225959922330001
16.983396,7.985445382083043,0.1225857817230296
16.985791999999996,7.970595850812701,0.1225845768215757
16.98818,7.958911903274032,0.1225748003469253
16.990575999999997,7.948670977974339,0.122566959648076
16.992972,7.942666571592958,0.1225356576189637
16.995359999999998,7.943831950436082,0.1224485310213272
16.99774,7.944158711518045,0.122399475049158
17.000144,7.948070365212262,0.1223225864900725
17.002527999999998,7.952261558160198,0.1222329206684372
17.004911999999997,7.956592520734997,0.1221370198039311
17.007308000000002,7.965719080735546,0.1219911848968101
17.009695999999998,7.975776806295874,0.1218370147890611
17.012076,7.982529178497668,0.1216975093650561
17.014471999999998,7.993006212938577,0.1215242561138032
17.01686,8.005066039245321,0.1213477811605256
17.019239999999996,8.021362384470375,0.1211475607439499
17.021636,8.039101751934409,0.1209507607651165
17.024023999999997,8.052697148278744,0.1208099908354586
17.026407999999996,8.070529063541393,0.1206464849239477
17.028812000000002,8.092085641043155,0.1204502360169942
17.0312,8.114852923358415,0.1202350149166167
17.03358,8.139901845673812,0.1199874732528133
17.035980000000002,8.165509846496649,0.1197166900111131
17.038368,8.19088552989401,0.1194243146029365
17.040748,8.215889126239036,0.1191174987528027
17.043143999999998,8.239729239598804,0.1187972485135279
17.045532,8.269994964078403,0.1183948573870427
17.047916,8.29653602631889,0.118025738232609
17.050311999999998,8.325079189305793,0.1176371469632847
17.0527,8.355344913785391,0.1172414266429396
17.055079999999997,8.389894379011544,0.1167975120864744
17.057479999999998,8.421650347558362,0.1163755000453295
17.059872,8.457270747971155,0.115916547317129
17.062252,8.488235320585055,0.115496811943879
17.064656,8.517477331706258,0.1150884117663098
17.06704,8.548489126148404,0.1146417016734305
17.06942,8.576986963164932,0.1142065176373605
17.071824,8.601760137942348,0.1138011377890247
17.074208,8.626300995294285,0.1133762888908087
17.076591999999998,8.64725696003397,0.1129751507253482
17.078987999999995,8.664488262534542,0.1126035678100244
17.081372,8.675853032422724,0.1122872488432395
17.083756,8.68600709749741,0.1119906417642389
17.08616,8.693599983318233,0.1117369784917182
17.088544,8.700121933952419,0.111496984861062
17.090924,8.707575050146383,0.1112508217041156
17.09332,8.709953029660877,0.1110578975235679
17.095708000000002,8.71233100917537,0.110864612530537
17.098092,8.713638053503225,0.1106847517253338
17.100488,8.711220435591965,0.1105322823088646
17.102876000000002,8.69958370988154,0.1104754801051673
17.105255999999997,8.690228624171253,0.1103877071440546
17.107659999999996,8.677800502527909,0.1103316955571674
17.110044000000002,8.66951635200426,0.1102310689293686
17.112428,8.660161266293972,0.1101427733973476
17.114824,8.64652243983713,0.1101038146185373
17.117207999999998,8.635537340432762,0.110050326029403
17.119591999999997,8.62841667289437,0.1099644732993588
17.121988,8.620876696475396,0.1098955609286402
17.124372,8.616781843041814,0.1098117556358026
17.126768,8.613338615914289,0.1097325585512144
17.129163999999996,8.614551216585658,0.1096204403723825
17.131552,8.614692882070388,0.1095204933250096
17.133932,8.618838749047951,0.1093828430046181
17.136328,8.622844846398653,0.1092510343915412
17.138716000000002,8.625640238935857,0.1091374573561672
17.141095999999997,8.628575401099923,0.1090180166798824
17.143492000000002,8.634443829570182,0.1088737126703393
17.14588,8.63551666061469,0.1087671613839007
17.14826,8.637520657218975,0.1086537443395709
17.150660000000002,8.645391186435651,0.1084891439465725
17.153044,8.656846608264582,0.1083056252893878
17.155428,8.671095526772845,0.1081023148843769
17.157823999999998,8.68385420121389,0.1079295908159989
17.160212,8.695402170841438,0.1077738786851194
17.162604,8.709743637148318,0.1075992857903693
17.165,8.72436464270892,0.1074150550870848
17.167387999999995,8.738054482709742,0.1072385180963547
17.169767999999998,8.75002176121787,0.1070692634439734
17.172164000000002,8.758264377486887,0.1069250910838302
17.174552,8.77200143931595,0.1067175795212854
17.176932,8.78601804039874,0.1065007122461333
17.179327999999998,8.801245346295026,0.1062665523304737
17.181716,8.815821025885253,0.1060289781810493
17.184112,8.83025693584862,0.1057970519139212
17.186507999999996,8.84576378099863,0.1055543279181296
17.188896,8.865926453947527,0.1052834694172095
17.191276000000002,8.884226795776867,0.1050259036152252
17.193672,8.911466706151653,0.1046947456298865
17.196059999999996,8.943641983579052,0.1043260919273218
17.198439999999998,8.972883994700256,0.1039810888995964
17.20084,8.996399242835931,0.1036777349354879
17.203227999999996,9.019402634292405,0.1033649558393575
17.205607999999998,9.039892068323269,0.1030584258512021
17.208011999999997,9.06559640866046,0.1027027303450604
17.2104,9.087715856385405,0.1023649564332065
17.212784,9.10690203780415,0.1020508034022444
17.215179999999997,9.1231549529167,0.1017588802165789
17.217568,9.139128328775527,0.1014771734572219
17.219948000000002,9.163529416500609,0.1011163892435804
17.222344,9.18429838978519,0.1008074389634066
17.224731999999996,9.203205031950215,0.100511117706261
17.227111999999998,9.223322378928737,0.1002002909736684
17.229507999999996,9.242508560347485,0.0998961488558243
17.231896,9.262253820273672,0.099571701719333
17.23428,9.283349554640218,0.0992288991183678
17.236675999999996,9.29885829564809,0.0989185330769246
17.239064,9.314506806282829,0.0986036589262521
17.241444,9.324428553932034,0.098326585908943
17.24384,9.331696574528769,0.0980615021797171
17.246228000000002,9.342456939939131,0.0977570193533499
17.248624,9.356430110909416,0.097422823791393
17.251019999999997,9.374407483372533,0.0970619556450812
17.253408,9.39624928770162,0.0966777132717268
17.255787999999995,9.413435264231818,0.0963186237549112
17.258184,9.431692175948651,0.0959491762601329
17.260571999999996,9.450088857292352,0.095574535460533
17.262952,9.47477138012902,0.0951488112006683
17.265355999999997,9.501083916659768,0.0946937563364839
17.267744,9.519248280577989,0.0943042241060964
17.270123999999996,9.53489868707059,0.0939182001108965
17.27252,9.54947815837656,0.0935419280921288
17.274907999999996,9.563778090428803,0.0931772441259122
17.277288,9.576867317667553,0.0928270353783326
17.279688,9.590747940839218,0.0924785977656486
17.282075999999996,9.600205053637469,0.0921730076247932
17.284456,9.610453562368637,0.0918672319056855
17.286859999999997,9.617489265539891,0.0915887980174739
17.289248,9.623314263897646,0.0913241053362357
17.291627999999996,9.624855521508849,0.0910966084682092
17.294024,9.625186074306548,0.0908843558146852
17.296411999999997,9.624166152663893,0.0906915735942328
17.298795999999996,9.616860389528265,0.0905493192699073
17.301192,9.604619259340025,0.0904378688256513
17.303579999999997,9.598104892137314,0.0902962601336348
17.30596,9.592242151240663,0.0901601240065518
17.308355999999996,9.588101971836709,0.0900205579463444
17.310744,9.575534080566502,0.0899480299476629
17.313124000000002,9.564548981162137,0.0898767335832819
17.315523999999996,9.554215508063828,0.0898109637067786
17.317912,9.547606697204632,0.089728856259044
17.320292000000002,9.543651613397907,0.089639540931253
17.322696,9.53862559440455,0.0895591180766856
17.32508,9.537743546530884,0.0894484351015338
17.327464,9.53579056347058,0.0893466519200421
17.329856,9.534768745970052,0.0892406553076916
17.332243999999996,9.536680194775723,0.0891182040944195
17.334628000000002,9.544458176193782,0.0889626998882168
17.337024,9.554889884664316,0.0888001598428401
17.339411999999996,9.566392528321492,0.0886278931832706
17.341803999999996,9.574822136045608,0.0884772514564162
17.344203999999998,9.583391513396585,0.0883219557463591
17.346592,9.594102761120835,0.0881488635370423
17.348971999999996,9.608538671084204,0.0879597891727835
17.351368,9.616968278808324,0.0878095610201317
17.353755999999997,9.62632905209222,0.0876557740318951
17.356136,9.634618890189476,0.0875110535284919
17.358531999999997,9.648915030525984,0.0873284064148403
17.36092,9.658927430115934,0.0871806749810798
17.363304,9.670802160825447,0.0870252555239795
17.365704,9.679883394855622,0.0868818089351784
17.368091999999997,9.684169031460044,0.0867621603589834
17.370472,9.68845466806447,0.0866425896042248
17.372867999999997,9.686454463175922,0.0865699612244937
17.375256,9.686176819780073,0.086494748900244
17.377635999999995,9.688180816384357,0.0863976788465378
17.380032,9.690324582615505,0.0862963591486668
17.382419999999996,9.688743686607536,0.0862099634708777
17.384816,9.68758209948015,0.0861095061088087
17.387211999999998,9.695080541644488,0.0859679801252766
17.3896,9.704161775674663,0.0858284042649415
17.391979999999997,9.714313944891478,0.0856810468077679
17.394384000000002,9.726188675600987,0.085531896105424
17.396772,9.741136442243551,0.085364209108825
17.399152,9.7558046696324,0.0852050504802749
17.401548,9.768610565901689,0.0850530601873106
17.403936,9.781416462170975,0.0849012351890716
17.406315999999997,9.792360027320708,0.0847570124647008
17.408712,9.80944966433655,0.0845741019510375
17.411099999999998,9.826027444673196,0.0843812076198868
17.41348,9.844188016875677,0.084191016693359
17.41588,9.866073251317273,0.0839866918893209
17.418267999999998,9.8890294209455,0.0837749905407031
17.420648,9.917991892812983,0.0835291387639557
17.423043999999997,9.945231803187772,0.0832865560753968
17.425432,9.974194275055256,0.0830440237718134
17.427811999999996,10.000083710989683,0.0828215532735481
17.430208,10.028766643603449,0.0825901803405031
17.432595999999997,10.054516309911016,0.0823736478762159
17.434992,10.069464076553585,0.0822118981463488
17.437388,10.086973022450003,0.0820216763120385
17.439776000000002,10.104202429092709,0.0818414175628596
17.44216,10.117707173496298,0.0816739500518382
17.444556,10.127207716407057,0.081529037252797
17.446944000000002,10.144065035997418,0.0813364173719702
17.449323999999997,10.164926557080618,0.0811235235907205
17.45172,10.185788078163815,0.0809108722517578
17.454107999999998,10.205299124806656,0.0807145659122023
17.456491999999997,10.219874804396886,0.0805433395617569
17.458888,10.23645258473353,0.080362762782844
17.461275999999998,10.25172711245806,0.0801706888128249
17.463659999999997,10.270773524249943,0.0799408279302993
17.466056000000002,10.284884568989218,0.0797336931237198
17.468443999999998,10.295410721116236,0.0795344680943818
17.470824,10.306076642870115,0.0793312047958668
17.473219999999998,10.310876032011608,0.0791538099302499
17.475608,10.3156754211531,0.0789761565381054
17.477992,10.316610378428615,0.0788142681721823
17.480387999999998,10.323272098689664,0.0786317637600915
17.482771999999997,10.33235522857771,0.0784250315851267
17.485152,10.3383653225327,0.0782360119652294
17.487552,10.343584020554768,0.0780456951820163
17.489939999999997,10.352946689696534,0.0778315570425503
17.492336,10.36165773253224,0.0776114290043026
17.494732,10.36636457387511,0.0774124596710054
17.497120000000002,10.368138148911788,0.0772264682288823
17.499504,10.371401968015688,0.0770209904459287
17.5019,10.377506505627162,0.0767804111609485
17.504287999999995,10.384961517678995,0.0765244107532292
17.506667999999998,10.39227676010397,0.0762741329967534
17.509064000000002,10.40210595995456,0.0760255991466066
17.511452,10.404578383125536,0.0758205078502952
17.513835999999998,10.415198978909045,0.0755750039374738
17.516232000000002,10.425679805065691,0.0753336522780111
17.51862,10.43602086159548,0.0750969258780629
17.521,10.451716594058457,0.0748272261433006
17.523400000000002,10.47062513208135,0.0745385244862801
17.525788,10.49367764122394,0.0742283592114488
17.528171999999998,10.5097926825675,0.0739478062673965
17.530568000000002,10.531634486896587,0.0736506538561767
17.532956,10.555478391972096,0.0733454051880966
17.535339999999998,10.577180426674325,0.0730527351142793
17.537736000000002,10.5958094254435,0.0727762143456916
17.54012,10.61243632346626,0.0725077739566906
17.542504,10.624127854436404,0.0722584488788181
17.544903999999995,10.634236593540711,0.0720050689386746
17.547292,10.642994858204665,0.0717672454523404
17.549672,10.649331713241615,0.071551018151708
17.552071999999995,10.65338692827843,0.0713514965489597
17.55446,10.651575610702857,0.07117284135859
17.55684,10.647110566074804,0.0709964803052272
17.559239999999996,10.64678949256645,0.0707989723753021
17.561628,10.643535152751898,0.0706127768846018
17.564011999999998,10.64535594961682,0.0704047868018383
17.566407999999996,10.643312314615766,0.070208247635145
17.568799999999996,10.63712470849502,0.0700321107026866
17.571184000000002,10.62921454088158,0.0698559394596491
17.57358,10.617579711029023,0.0696872283660135
17.575964,10.61050816117674,0.0694859021423283
17.578348,10.59878078352557,0.0692941736830849
17.580743999999996,10.5841201395682,0.0691117219537612
17.583132,10.574162545237968,0.0688932340141422
17.585512,10.565415655721232,0.0686645620790645
17.587908,10.564677169190166,0.0684061109668294
17.590296000000002,10.569944984898347,0.0681248291500348
17.59268,10.580939563592064,0.0678304284754266
17.595076,10.594215782285907,0.0675216787203813
17.597464000000002,10.610704806539676,0.0671968584454485
17.599848,10.630406636353358,0.0668553081539212
17.602244,10.655323372473374,0.0664893221232452
17.604632000000002,10.682381978966664,0.0661132470654378
17.607016,10.707438484713542,0.065745345016259
17.609412,10.730492889714,0.0653854911034261
17.611800000000002,10.74539912210193,0.0650583478862605
17.614179999999998,10.76645142635597,0.0647062482807256
17.616576000000002,10.788574665796649,0.0643482754974821
17.618964,10.809207661170106,0.0640082762228085
17.621359999999996,10.83249438359604,0.0636685429593627
17.623756,10.856432732328033,0.0633376961223648
17.626143999999996,10.879300145873389,0.0630121882156858
17.628524,10.9052405953518,0.0626750970650184
17.630919999999996,10.930621966322766,0.0623565801204719
17.633308,10.955863567666878,0.0620429687666804
17.635688000000002,10.972025830838682,0.0617615688513143
17.638092,10.98418389251765,0.0614935159623835
17.640479999999997,10.987122846397453,0.0612600571752167
17.64286,10.984846893970923,0.0610483258734083
17.64526,10.980289301544255,0.0608511767215969
17.647647999999997,10.974800543557812,0.0606553849074429
17.650028,10.969032246317644,0.0604677627623103
17.652423999999996,10.958840438704064,0.0603036771649686
17.654807999999996,10.949579796650264,0.0601383114184659
17.657192000000002,10.94218148571602,0.0599707998129544
17.659588,10.938927145901468,0.0597868711830376
17.661975999999996,10.935253497206336,0.0596152964289372
17.664355999999998,10.93758615075046,0.059426976025666
17.666751999999995,10.940989739481216,0.059233766899047
17.669136,10.944113788958251,0.0590487422676543
17.671535999999996,10.941091766569178,0.0588845512754266
17.673932,10.940723471232578,0.0587213810633968
17.676319999999997,10.943800298881373,0.058563255427969
17.678703999999996,10.943943860223971,0.0584118466693246
