Time,Force,Position
16.98958,6.444204360844822,0.1578728342209379
16.991984,6.474509723721189,0.1576075690373281
17.011084,6.434713297223413,0.1575430299039582
17.01348,6.435412145357715,0.1575006726320905
17.015868,6.442721700209081,0.1573890574805078
17.018248,6.452125903605481,0.1572728109181775
17.020644,6.462553820360276,0.1571768448770499
17.023032,6.482805249392053,0.1569394975065864
17.025424,6.512508103648472,0.1565380128175156
17.027828,6.543002353837811,0.1561269425890512
17.030216,6.572705208094231,0.1557304591102074
17.032596,6.603478997537289,0.1553136981737716
17.034992,6.632437677689034,0.1548880922911152
17.03738,6.655157738176052,0.1545536994065013
17.03976,6.678529424969125,0.1542209172499282
17.042164,6.699339932508342,0.1539561664816863
17.044552,6.722943936726894,0.153643121240298
17.046928,6.746640488744065,0.1533693967606696
17.049332,6.770522136358469,0.1531654436989196
17.05172,6.801433799570521,0.1528730184540487
17.054100000000002,6.832485232409432,0.1525749196453909
17.056504,6.861534564501925,0.1523150570449208
17.058892,6.894867637340974,0.1519737898765656
17.061272,6.927037227194767,0.1516290328030959
17.063672,6.954178902197332,0.1513404103933323
17.06606,6.983090360520835,0.1509901038947643
17.06844,7.010046939926165,0.1506316510157953
17.07084,7.029973503733849,0.150363060473691
17.073224,7.0510182245564135,0.1500402175825044
17.075608,7.077045534259831,0.1496003672428015
17.078004,7.100279347283914,0.1492020882051856
17.080392,7.118438023628526,0.1488903482705248
17.082772,7.135478542958256,0.1486404945519825
17.085168,7.160480243445411,0.1483010080289781
17.087556,7.186692648746066,0.1479350282018156
17.089936,7.218259729979914,0.1474660339144693
17.092332,7.251828911960177,0.146965685997725
17.09472,7.284094841328324,0.1464637367217031
17.097104,7.319900337338353,0.1458501494986052
17.0995,7.347093025884896,0.1453296174031052
17.101884000000002,7.371120130699768,0.1448291370260995
17.104268,7.392633278089026,0.1443475674689318
17.106664,7.405765935440278,0.1439827184926885
17.109052000000002,7.418107196858612,0.1436270944332402
17.111432,7.432450559023362,0.1432412117274467
17.113828,7.446514381934391,0.1428713111499578
17.116216,7.464023327830814,0.1424683901966572
17.118612,7.48632787115299,0.1420004643223769
17.121008,7.501275637795557,0.1416629323871159
17.123396,7.508866627758514,0.1414528684846748
17.125776000000002,7.512593185855499,0.1412953965449624
17.12818,7.520603484699038,0.1410604256392181
17.130564,7.5348070772369296,0.1406900862503044
17.132948,7.542260193430894,0.1403806786177609
17.135352,7.549760531453103,0.1400346750022799
17.13774,7.551813645743501,0.1397493937381916
17.14012,7.55321513372784,0.139462451532799
17.142516,7.556898261712315,0.139133926518194
17.144904,7.559789993763874,0.1388125640537932
17.147284,7.564916143987326,0.1384848057093082
17.14968,7.569063906822758,0.1382038443902928
17.152064,7.576005166337525,0.1378883161944686
17.209416,7.239087824095401,0.1378069350316242
17.211796,7.232851100288542,0.1377598353734405
17.21658,7.218840186779358,0.1377452773535342
17.21896,7.219306717488183,0.13768373352971
17.221356,7.221076500809123,0.1376289596773232
17.223744,7.226990255249756,0.1375082578503789
17.226124,7.233043779317251,0.1373800706392161
17.22852,7.238118915996723,0.1373022996942306
17.230908,7.25199385159478,0.1371009116329282
17.233288,7.270851376073693,0.1367899395284993
17.235692,7.28961635275399,0.1364478123768249
17.23808,7.308521099061146,0.1360996965595616
17.24046,7.331802133913473,0.1357078024635158
17.242864,7.349868262459467,0.1354022721744767
17.245248,7.368773008766623,0.1350551652219828
17.247628,7.3870261287677215,0.1347082980654314
17.250024,7.404440631007658,0.1344054033345799
17.252412,7.422087450673072,0.1341294934602603
17.254792000000002,7.446811507764375,0.1337535587392126
17.257192,7.473956974482676,0.1333304186311212
17.25958,7.496306843775225,0.1329695286471082
17.261960000000002,7.521310440120248,0.1325835709904434
17.264356,7.546593575718992,0.1321835334532692
17.266744,7.568571357959203,0.1318079157138434
17.269128,7.588454491654382,0.1314295986149861
17.271524,7.605404359043364,0.1310924275001578
17.273912,7.6230058527384035,0.1307586696993384
17.276308,7.642377129754385,0.1303722959101635
17.278704,7.658443053411831,0.1300094900434398
17.281088,7.670504775576445,0.1297030946020415
17.283468,7.680005318487201,0.1294505646253879
17.285872,7.689877948450294,0.1292161606202158
17.28826,7.698959182480468,0.1289851698053552
17.29064,7.711253222070559,0.1287033516458139
17.293044000000002,7.719123751287236,0.1284953978358711
17.295428,7.725224497182974,0.1283390933982415
17.297808,7.732675717519069,0.128152696827397
17.300212000000002,7.736961354123493,0.1279786485113849
17.30498,7.719552539457164,0.1279388348665407
17.307380000000002,7.710894406023307,0.1279343060353641
17.309764,7.701444876656533,0.1279326107126717
17.312144,7.694276987289896,0.1278904411918684
17.314548,7.686038162736621,0.1278646582291811
17.316936000000002,7.682455165982237,0.127790267979074
17.319316,7.6784528603472735,0.1277360770288025
17.321712,7.672448453965891,0.1277079289935005
17.32648,7.659321484188247,0.1277052101200493
17.328884,7.65499241747132,0.1277018732475829
17.331268,7.654527782620366,0.1276536338855551
17.333648,7.652480355903575,0.1276110285939895
17.336052,7.651643634000282,0.1275454816780699
17.338436,7.650527372843269,0.1274934711748239
17.34082,7.656488349112146,0.127348968729558
17.343224,7.665941670194659,0.12714403607909
17.345608,7.676186387210091,0.1269379011420692
17.347988,7.690015996837774,0.1267019012191133
17.350392,7.712086326876603,0.1263891357912187
17.35278,7.738952254341182,0.1260224595890066
17.35516,7.7668891169924015,0.125643122655477
17.357564,7.793615274830121,0.1252854435754857
17.359952,7.817640483787123,0.1249876212278995
17.362332,7.846461290169878,0.1246406282206161
17.364728,7.87020695987316,0.1243610946900819
17.367112,7.89516333438994,0.1240602119009539
17.369492,7.92626578077283,0.123681858865031
17.371888,7.9582993927155,0.1232976905644287
17.374276000000002,7.99755001171092,0.1228235810277939
17.376656,8.033215738094086,0.1223801981795658
17.379056,8.069300773357833,0.1219223712066383
17.38144,8.108319074927774,0.1214345565236148
17.383824,8.147337376497715,0.1209502393163417
17.386224,8.188637318067794,0.1204352922406553
17.388612000000002,8.226864223704817,0.1199641817648855
17.390996,8.262018093408784,0.1195341140568749
17.393392,8.295309631993197,0.1191225464630057
17.395776,8.328601170577608,0.1187147499034541
17.398156,8.360449686923044,0.1183099874271594
17.40056,8.393928216962559,0.1178725432504469
17.402948,8.42926907812163,0.1174258318524444
17.405328,8.468893680027257,0.1169272792177634
17.407724,8.507075259693908,0.1164238474048013
17.410112,8.54274288193494,0.1159375291687816
17.412492,8.577339568989338,0.1154618174798031
17.414888,8.613146960857232,0.1149705620626889
17.417276,8.646952251978712,0.1145064646366699
17.41966,8.679966147167274,0.1140470461104521
17.422056,8.710698402355698,0.1136266393675037
17.42444,8.744363923850315,0.1131808736754409
17.426824,8.774956409411875,0.1127694796417839
17.42922,8.803546794227021,0.1123798318557459
17.431608,8.832137179042167,0.111992450669061
17.434004,8.857794297551118,0.1116342334148747
17.4364,8.880657919380734,0.1112962518701685
17.438784000000002,8.900588274904155,0.1109830089585043
17.441164,8.920006773748378,0.1106599377997705
17.443564,8.935700610353488,0.1103643432405913
17.445952000000002,8.946459079905985,0.1101140565543936
17.448332,8.952933808711931,0.109914438415376
17.450728,8.94967757303951,0.1097983634155999
17.453116,8.943488071060894,0.1097080651835015
17.4555,8.941163000948253,0.1095856621519504
17.4579,8.936136981954892,0.1095101482880929
17.460288,8.93432376852145,0.1093979187919221
17.462672,8.932370785461144,0.1092917240000773
17.465068,8.923620104228672,0.109242182255152
17.484176,8.797744720782186,0.1092253639613719
17.486572,8.788621952497376,0.1091586303814188
17.48896,8.78173360238446,0.1090949907689567
17.49134,8.777638748950876,0.1090124086593678
17.493744,8.77740832738327,0.10889895886143
17.496132,8.778109071375441,0.1087791319521283
17.498512,8.787609614286195,0.1085852830555245
17.500908,8.797249926823811,0.1083863259138289
17.503296,8.805959073801649,0.1081947924512191
17.505676,8.815367068913787,0.1079751001039642
17.508072,8.82384389846615,0.1077622852729985
17.510460000000002,8.82673373465984,0.107586484816267
17.51284,8.837492204212337,0.1073440793887093
17.51524,8.84480555077944,0.1071157671501962
17.517624,8.854120998092963,0.1068687322357267
17.520004,8.862225740592985,0.1066388908328692
17.522404,8.872192814212566,0.1063978925243004
17.524788,8.882299657459006,0.1061510055538839
17.527188,8.899483738131334,0.1058399748046544
17.529584,8.923884825856412,0.1054573721232366
17.531972,8.938554949103127,0.105153464252338
17.534352000000002,8.946567143804534,0.1048993226867429
17.536756,8.952344920334045,0.1046417815473467
17.53914,8.956819444251442,0.1043746181752433
17.541524,8.960362802609058,0.1041139210681679
17.54392,8.963114765033758,0.1038535210107137
17.546304,8.95920879891315,0.1036395088580539
17.548688,8.956094228725458,0.1034253799697458
17.551084,8.952048492977989,0.1032172891421666
17.553472,8.94679205241702,0.1030253487356092
17.555856,8.942606547042692,0.1028223851435796
17.558252,8.943076869467253,0.1025901285454641
17.560636,8.938472055212342,0.1024031553927314
17.563016,8.93437909763663,0.1022263119783143
17.565412,8.932939867113394,0.1020380033299671
17.567800000000002,8.932990880657375,0.1018221593837596
17.570196,8.930108627895162,0.1016290343582728
17.572592,8.928157540692727,0.1014301584400518
17.57498,8.919408755318123,0.1012813737408791
17.577364,8.90930949550316,0.1011543784098007
17.57976,8.907870264979923,0.1009670208280504
17.582148,8.906942891135882,0.1007898418575754
17.584524000000002,8.907318769903958,0.1006233406676136
17.586924,8.90899790128415,0.1004676346076349
17.589312,8.910816802291203,0.1003067327232204
17.591692000000002,8.915429199977591,0.100130040422855
17.594088,8.926839295836146,0.099905134667586
17.596476,8.936247290948286,0.0996965711988723
17.598856,8.945795055687283,0.099483107469999
17.60126,8.959347021919115,0.0992381896671627
17.603648,8.974761319270504,0.0989848859388031
17.606028,8.988964911808395,0.0987479573643872
17.608424,9.00745224509284,0.0984697200332796
17.610812,9.02822121837742,0.09816579534008
17.613192,9.045917155728947,0.0978885484733256
17.615588,9.063333553826752,0.0976226975017565
17.617976,9.079399477484202,0.0973768198040219
17.62036,9.097467501888064,0.0971169106528297
17.622756,9.118049483717543,0.0968515068152091
17.625144,9.136769134427468,0.0965965531175725
17.627528,9.150273878831058,0.0963890684188957
17.629924,9.166200032861644,0.0961510733169713
17.632312,9.179332690212895,0.0959277520790801
17.634696,9.19074278607145,0.0957094815908186
17.6371,9.202013112303144,0.0954969409405516
17.639484,9.210629711482364,0.0952946700659152
17.641864,9.216313044355392,0.0951132863757322
17.644264,9.22693174428103,0.0948984747555539
17.646648,9.237270904952949,0.0946943583886201
17.649044,9.245607964878449,0.0945057910935503
17.65144,9.248218261818415,0.0943508738222456
17.653828,9.251247867638966,0.0941806815151303
17.656208,9.25213560308624,0.0940305677865481
17.658604,9.253814734466433,0.0938815790943006
17.660992,9.257635736219902,0.0937133945298421
17.663376,9.261316968346508,0.0935504243854096
17.665772,9.271423811592948,0.0933306826344843
17.668156,9.282322050772306,0.0931133087793548
17.67054,9.295641699578663,0.0928680353995107
17.672936,9.313105319504713,0.0925915720945438
17.675324,9.3323387227517,0.092281020432025
17.6777,9.349150716371694,0.0919996114800313
17.680104,9.370246450738238,0.0916816629485412
17.682492,9.39520661697076,0.0913433683790724
17.684872,9.421889344695977,0.0910030135937157
17.687268,9.451086029846804,0.0906611704726746
17.689656,9.48335575093069,0.0902996839603993
17.692052,9.508827773842404,0.0899780925461094
17.694448,9.53658143675426,0.0896354666643149
17.696836,9.565126495599031,0.0892947003947151
17.69922,9.598327382242696,0.0889341309663917
17.701616,9.63152826888636,0.0885748881593123
17.704004,9.6668710259033,0.0882003351071548
17.706384,9.699420286240905,0.0878389847294842
17.708784,9.731038381018733,0.0874828677068862
17.711172,9.76265647579656,0.0871271698035339
17.713552,9.78691779389478,0.0868285651280984
17.715948,9.804381413820828,0.0865663774292392
17.718336,9.821425724866298,0.0863204309295899
17.72072,9.832323964045656,0.0861165842707302
17.723116,9.841452419904073,0.0859452062276817
17.725504,9.85058087576249,0.0857734281917161
17.727884,9.854634194941438,0.0856348025405474
17.73028,9.856685413373963,0.0855090750341056
17.732668,9.8570140703138,0.08538624282484
17.735048,9.856551331320713,0.0852627139553665
17.737444,9.851665081954213,0.0851773174737723
17.739832,9.849712098893908,0.0850762183976145
17.742228,9.842124900646692,0.0850260218611164
17.744624,9.834677472026332,0.0849710711752064
17.747012,9.827090273779117,0.0849208205163931
17.756564,9.79105814791722,0.0848812268566399
17.758960000000002,9.785006519707595,0.0848621542973868
17.761344,9.783890258550583,0.0848167000519744
17.763728,9.79171356593902,0.0847222051196182
17.766124,9.799816412581174,0.0846191502984035
17.768512,9.813646022208856,0.0844914533074767
17.770892,9.828826106276898,0.0843464852702684
17.773288,9.849081327024413,0.0841719633846264
17.775676,9.874783771503738,0.083982244390534
17.778056,9.897273410423148,0.0838161632121439
17.780452,9.917760948596142,0.0836612389147708
17.78284,9.936246386022717,0.0835178636493875
17.785224,9.955011362703011,0.0833648805753054
17.78762,9.976849375316364,0.0831941843719084
17.790008,10.002319502370211,0.0829853179030015
17.792392,10.025927298304502,0.082783579199084
17.794788,10.046881367186316,0.0825876736036364
17.797176,10.068254744948714,0.0823789158759586
17.799572,10.09032697084541,0.082146844176869
17.801968,10.107883138570076,0.0819258814401034
17.804356,10.127069319988824,0.081679631844071
17.806736,10.143042695847653,0.0814580269309256
17.80914,10.157852588721228,0.0812211781699383
17.811528,10.166935718609272,0.0810089444320736
17.813908,10.17322535181798,0.0808064218419962
17.816304,10.177280566854796,0.0805958633214742
17.818692,10.181475551518474,0.0803810659485646
17.821072,10.18008354282348,0.0801844709744929
17.823468000000002,10.176596885583454,0.0799749507629788
17.825856,10.176882112410778,0.0797256886272098
17.82824,10.179309209611386,0.0794615240485697
17.830636000000002,10.186159817185406,0.0791648105919553
17.833024,10.198644639946338,0.0788249794221723
17.835404,10.20512316046802,0.0785152732935246
17.8378,10.214954256176476,0.0781816333422827
17.840192000000002,10.229860488564404,0.077823327903701
17.842572,10.245837656138974,0.0774582436414923
17.844968,10.261163197407488,0.0770883778878931
17.847356,10.278490839422412,0.0767098647904905
17.849736,10.304618280355928,0.0762968803568621
17.852132,10.32953501647594,0.0758967366252394
17.854516,10.356873162222954,0.0754762879738367
17.856916000000002,10.382581294275887,0.075080434850571
17.859312,10.410151757448377,0.0746807063355691
17.861696,10.43958455174042,0.0742771957042101
17.86408,10.468737806778744,0.0738835984767479
17.866476,10.49803083144393,0.0734869444122318
17.868864,10.530396892042171,0.0730758453482366
17.871244,10.565556449319748,0.0726611435030942
17.87364,10.596292496223908,0.0722769835086523
17.876028,10.629961809434269,0.0718844776985825
17.878412,10.658136677084569,0.0715294664457311
17.880812,10.677744063241766,0.0712261561449375
17.883196,10.702286816451574,0.0709041124349625
17.885576,10.722266289661103,0.0706171088259045
17.887972,10.736099691004524,0.0703601773917664
17.89036,10.751935193094369,0.0700962303341203
17.892744,10.766140681490125,0.0698551492054531
17.89514,10.780858026565085,0.0696256042962594
17.897524,10.786496033467737,0.0694345831366921
17.899924,10.790783565930028,0.0692577592144524
17.90232,10.791858292832403,0.0690993113067859
17.904708,10.792793250107922,0.0689447097875931
17.907092,10.788792840330826,0.0688074170647205
17.909488,10.782930099434171,0.0686738552573686
17.911876,10.775856653724022,0.0685502148030469
17.91426,10.770226230252849,0.0684353347740899
17.916656,10.763105562714452,0.0683386127857867
17.919044,10.75370325517592,0.0682577566975738
17.921424000000002,10.748165379503364,0.0681656531587243
17.923828,10.738483532711111,0.0680926932278331
17.926212,10.72894145554572,0.0680154546568739
17.928592000000002,10.724194975806082,0.0679252649126929
17.930988,10.713581963454054,0.0678534424922102
17.933376,10.704039886288664,0.0677756840962277
17.935756,10.693566643563496,0.0676993405428428
17.938152,10.680020364905271,0.0676361421941458
17.94054,10.66489129438121,0.0675679480474824
17.94292,10.647388036058397,0.0674923429843018
17.945316000000002,10.637101784788328,0.067384303526644
17.947704,10.628445547212342,0.0672539932633886
17.9501,10.619929079263215,0.0671193168036721
17.952496,10.615836121687504,0.0669579510857705
17.95488,10.613745264858208,0.0667884544262135
17.95726,10.610443703215411,0.0666283903611643
17.959664,10.610494716759394,0.0664473876856789
17.962052,10.608031772877762,0.0662631979752588
17.964432,10.60570859862299,0.0660749758356135
17.966828,10.596727495822908,0.0659010215113019
17.969212,10.588817328209466,0.0657218165189094
17.971592,10.58225763503638,0.0655286912489703
17.973996,10.58091284816963,0.0653119998195899
17.976384,10.58133784462382,0.065070331625925
17.978768,10.588700308877035,0.0648063832882628
17.981164,10.594340211637554,0.0645410841265162
17.983552,10.60426385514463,0.064253797822252
17.985932000000002,10.615118664211485,0.0639651450506888
17.988328,10.631840005890728,0.0636605843151955
17.990716,10.64935274350289,0.0633591347143541
17.993100000000002,10.664583841114911,0.0630742549845544
17.995504,10.680326795406136,0.0628010142866333
17.997888,10.69392787932408,0.062537735993667
18.000272,10.703664531376054,0.0622847182707452
18.002668,10.718196780853775,0.0620221271947512
18.005056,10.736733231824337,0.0617470382087424
18.007436,10.752848273167892,0.0614913665102578
18.009832,10.770825645631009,0.0612339039818827
18.01222,10.78694068697457,0.0609786804892722
18.0146,10.812926462423352,0.0606961835778066
18.016996,10.839983173058773,0.0604108964146171
18.019384,10.866900114067336,0.0601304960988835
18.02178,10.89274611988926,0.0598575864351746
18.024176,10.91267837127055,0.0596254103516434
18.026564,10.929537586718784,0.0594052837332513
18.028948,10.95012146440613,0.0591817566248983
18.031344,10.971356968399537,0.0589664506454667
18.033732,10.990730141273389,0.0587530319025056
18.036112,11.00675073896046,0.058558776478971
18.038508,11.022771336647534,0.0583650058617435
18.040896,11.036929603215052,0.0581733287527528
18.04328,11.049225538663013,0.0579836895048617
18.045672,11.066317071536725,0.0577859208141498
18.04806,11.083920461089631,0.0575990743120213
18.050436,11.097659418776567,0.0574201390053479
18.052832,11.108325340530447,0.057251729299453
18.05522,11.11819986635141,0.0570803246317038
18.057612,11.12914532735901,0.0569051798765719
18.060016,11.145817551352144,0.0567222962048147
18.062404,11.160208135345137,0.0565537149891687
18.064784,11.171665453031936,0.0563919239574616
18.067188,11.186056037024926,0.0562251999142595
18.069576,11.196302649898229,0.056072652873048
18.071956,11.210041607585165,0.0558990786480152
18.074352,11.224991270085598,0.055717954556003
18.07674,11.239009767026252,0.0555383532872947
18.07912,11.251026163220496,0.055364310829002
18.081524,11.26811769609421,0.0551768625551439
18.083908,11.28483714191558,0.0549753477072144
18.086288,11.303698458110231,0.0547663636365044
18.088684,11.324701644678164,0.0545494964379662
18.091072,11.34905740643287,0.0543173986501553
18.093452,11.370899210761957,0.0540802638594785
