Time,Force,Position
19.531836,5.545656486905893,0.1682411449931157
19.534216,5.729662589502653,0.166803546916587
19.53662,5.880569832543712,0.1660510698727123
19.539008,6.0207715154341255,0.1653565810383937
19.541388,6.154039522241248,0.1646089857310116
19.543784,6.275952238449534,0.1637540974984155
19.546172,6.377896856595502,0.1629534423835883
19.548552,6.455542414104357,0.1623936307365697
19.550948,6.51847820996973,0.1619601418703957
19.553336,6.570149367177017,0.1615944546582385
19.555732,6.616516861995091,0.1610693624419884
19.558128,6.653763484386223,0.1604132249198042
19.560512,6.667919855095872,0.1599959287787384
19.565296,6.65539918565391,0.1599797897294583
19.570064,6.653584076362596,0.1599675096516502
19.577232,6.638084814644066,0.1599274222317336
19.579632,6.645114830241713,0.159831414695794
19.582016,6.661828588489479,0.1595976230862039
19.584396,6.679380964498408,0.1593017450466873
19.5868,6.692184964909828,0.1590498671775934
19.608304,6.73482210991518,0.158997171154612
19.610688,6.7477639840955925,0.1588685096186769
19.615468,6.763497459097467,0.1588163751880473
19.617856,6.785097466711735,0.1586610951946322
19.620236,6.8178714610433415,0.1583275668720559
19.622632,6.843383122351826,0.158059246000837
19.62502,6.861864768062665,0.1578889560458693
19.6274,6.877785234519644,0.1577949556173271
19.6298,6.900828264372887,0.1576491225173329
19.632188,6.93546458982405,0.1573123752628849
19.634568,6.973780251543953,0.1568473788190738
19.636964,7.009117320987286,0.1563536350290978
19.639352,7.042080202631865,0.1558858592238829
19.641736,7.073924927261563,0.1554843466733676
19.644132,7.112380358608328,0.1550177566258241
19.646516,7.15656255294062,0.1544490209736465
19.648916,7.195856602048545,0.153922855746059
19.651312,7.229703427424659,0.1534821747659636
19.6537,7.268857706905723,0.1529882321629559
19.65608,7.312248505305098,0.1524607814753278
19.65848,7.353265115905719,0.1519432488560394
19.660864,7.393677322028525,0.1513831277979316
19.663248,7.433904432554096,0.1507628359903016
19.665644,7.463748952295246,0.1503039928613713
19.668032,7.488797874610645,0.1499252617081761
19.670416,7.519713329538431,0.1494506677809868
19.672812,7.546951344055349,0.148982850429915
19.6752,7.564133528869808,0.1486125355639124
19.67758,7.575915711780703,0.1482804187225505
19.67998,7.586859276930435,0.1479991345390926
19.682364,7.591609548385813,0.1478597470988565
19.684744,7.598873777266806,0.1476971411064892
19.687152,7.601761717602626,0.147582204040547
19.68954,7.605488275699608,0.1474241218623307
19.69192,7.609494373050312,0.1472528599919759
19.694316,7.619646542267126,0.1469824036325577
19.696704,7.635432926670853,0.1466023835700118
19.699084,7.649543971410127,0.146201783520713
19.70148,7.650246611260166,0.1459527907837397
19.703868,7.645362257751534,0.1457755924620523
19.706248,7.647927228721129,0.1455044487464669
19.708648,7.646487998197894,0.1452929694030307
19.711032,7.644397141368597,0.1450798631736638
19.713416,7.648452356405411,0.1447694432218987
19.715812,7.655021528867842,0.1444402748179642
19.7182,7.658749982822695,0.1441825976280465
19.720596,7.667785890882497,0.143868451165522
19.722992,7.683619497114467,0.1434578041017017
19.72538,7.694517736293823,0.1431195035273768
19.72776,7.698385959875535,0.142853791128147
19.73016,7.7065379242038015,0.1425117226401732
19.732548,7.716831758905344,0.1421341123144033
19.734928,7.728895376927827,0.1417012708112872
19.737324,7.735651540845361,0.1413231037438858
19.739712,7.735470236963867,0.1410463607949066
19.770756,7.57446183824997,0.1409485972722652
19.773156,7.564827213285963,0.1408985262763335
19.77554,7.558218402426767,0.140838974498297
19.77794,7.556777276045657,0.1407341908669021
19.780336,7.553054509664413,0.1406721709354799
19.782724,7.551705931081925,0.1405982870730489
19.785104,7.55659597216416,0.1404626249597619
19.787508,7.572240691083157,0.1402186035925823
19.789892,7.600409871159854,0.1398170108906974
19.792276,7.631652087169607,0.1393705295112181
19.794672,7.665827569485555,0.138888058294579
19.79706,7.702237469973396,0.138401499188146
19.79944,7.741301097513713,0.1378874314207935
19.80184,7.781016351360084,0.1373803295815017
19.804228,7.816075777407566,0.1369319729484741
19.806608,7.854208239388103,0.1364371701300861
19.809004,7.8945751195405345,0.1359322752559189
19.811396,7.941180619357694,0.1353658443380362
19.813776,7.984433543988078,0.1348668986918913
19.816172,8.028477864551379,0.1343723403713805
19.81856,8.070520084368265,0.1339050657160934
19.820944,8.107719484931154,0.1335324668305578
19.82334,8.144779115867184,0.1331664929596125
19.825728,8.181466659750877,0.1327947078030126
19.828112,8.220296074007846,0.1323924412953454
19.830508,8.255121286771981,0.1320436664035978
19.8329,8.28887556434948,0.131715598819427
19.835284,8.320395423755084,0.1313983671853937
19.837684,8.346887368309458,0.1311211726682558
19.840072,8.372867456184633,0.130837396459729
19.842452,8.396845443313392,0.130580338415749
19.844848,8.42026435193471,0.1303483165758436
19.84724,8.444614426115809,0.1301079502733041
19.84962,8.46887195249829,0.1298422088182546
19.852016,8.495411118880906,0.1295425745304189
19.854404,8.523113768248777,0.1292573072259925
19.856784,8.555472245415544,0.1289289259058922
19.85918,8.589460736276386,0.1285676177884316
19.861568,8.62456738415211,0.1281624682178303
19.863952,8.655018204228943,0.1278017112701842
19.866348,8.684770176171476,0.127467951486837
19.868736,8.717874723300785,0.1270826063290581
19.871116,8.754751154497448,0.1266338260995101
19.873512,8.782176160469469,0.1262773550857714
19.8759,8.806947439389015,0.1259420063012871
19.87828,8.833860588681839,0.125577147527513
19.880676,8.859051176481968,0.1252246422135567
19.883064,8.878794540550285,0.1249180114771175
19.88546,8.89267137200621,0.1246738369539117
19.887856,8.904266563462,0.1244644358512319
19.890244,8.913440345290793,0.1242944993971948
19.892628,8.924663449694245,0.1240700825293701
19.895024,8.934862840739305,0.1238276628869542
19.897412,8.941477339172106,0.123612505341167
19.899792,8.945018801671853,0.1234338557147527
19.902196,8.947536550813208,0.1232368146877772
19.904584,8.94851872991697,0.1230128027221939
19.906964,8.941399958236444,0.1228479500869186
19.90936,8.931068380996003,0.1227233564746368
19.911748,8.922459365248258,0.1225888270597875
19.914132,8.920555499874068,0.1223625339630508
19.916528,8.91734838188776,0.1221287895673319
19.918916,8.905341464982865,0.1219807119430463
19.921296,8.897990375876864,0.1217937550805063
19.9237,8.888357646770727,0.1216389495379412
19.926088,8.880727018411005,0.1214630613891718
19.928468,8.871653367812305,0.1212848994458263
19.930864,8.860857155720911,0.1211155754277526
19.933252,8.850852339562433,0.1209437365665153
19.935632,8.840987293030818,0.1207657750107818
19.938032,8.83275226019328,0.1205504513128298
19.940416,8.821723730676407,0.120358363829897
19.9428,8.807622165226482,0.1202006169877505
19.945196,8.796034557202168,0.1200308900595365
19.947584,8.786309280297411,0.1198455727153693
19.949964,8.776444233765794,0.1196658155135835
19.952364,8.763878238353461,0.1195356754994194
19.954752,8.756479927419216,0.1193770629218418
19.957132,8.748522537977529,0.1192414177560907
19.959532,8.740565148535843,0.1191057104686198
19.96192,8.72646168722805,0.1190381312334695
19.964304,8.715011952972723,0.1189533612606513
19.9667,8.711430852076209,0.118791514802563
19.969088,8.707709981552831,0.1186354312893672
19.971468,8.70813308214915,0.1184320819996633
19.973864,8.703620815692856,0.1182772459875865
19.976256,8.699480636288898,0.1181377001602902
19.978636,8.697714644683696,0.1179925414511
19.981032,8.695948653078494,0.1178468444702475
19.98342,8.696044992592848,0.1176861783119813
19.985804,8.699726224719454,0.1175020353464848
19.988204,8.702708608711761,0.1173466724497809
19.990592,8.713419856436012,0.117121369536473
19.992972,8.723991334533405,0.1169028162321
19.995372,8.727485575204911,0.1167576827569159
19.997756,8.729769111062915,0.1166315466420528
20.00014,8.735125682853976,0.1164721040094507
20.002536,8.735035030913227,0.1163507083684473
20.004924,8.73443252229328,0.1162188714262815
20.007304,8.732247221807498,0.1160899548677888
20.009704,8.733134957254768,0.1159271609457015
20.012088,8.734022692702043,0.1157652857025392
20.014472,8.7316976225894,0.115642930983297
20.016876,8.72737045173034,0.1155405425109468
20.019264,8.723834676804199,0.1154369245701218
20.021644,8.723092398557394,0.1153115755644621
20.024044,8.724352221057005,0.115166186497587
20.026432,8.731758115422728,0.114956329178862
20.028816,8.745170312027701,0.1146883370602455
20.031212,8.76072437900595,0.1143975376142756
20.0336,8.773764488558585,0.1141180917481504
20.035984,8.789505546991938,0.1137918516478298
20.03838,8.798448907253123,0.1135260183950311
20.040768,8.802736439715414,0.1132929976943131
20.043152,8.819036576656208,0.112945854433497
20.045548,8.835336713597,0.1125980516710344
20.047936,8.843488677925267,0.1123309263253797
20.05032,8.858019031545119,0.112021926452879
20.052716,8.878276148150503,0.1116685454766944
20.055104,8.901186991808363,0.1113010524107132
20.057488,8.922887130652724,0.1109528015342379
20.059884,8.93965190244447,0.1106492364694064
20.062272,8.958558544609495,0.1103228230125609
20.064656,8.981748927521075,0.1099485111497713
20.067056,9.00200604412646,0.1096005415717931
20.069444,9.024405031105122,0.1092302631082133
20.071824,9.048014722897282,0.1088449507466759
20.074224,9.065757882077053,0.1085119938930899
20.076612,9.080567774950625,0.1082065014865364
20.078996,9.089091826331227,0.1079656142430595
20.081392,9.097056799204394,0.1077467491193351
20.083784,9.105393859129894,0.1075446778522684
20.086164,9.11424277573459,0.1073520144749141
20.088564,9.127887289765038,0.1071227881123445
20.090952,9.136736206369736,0.1069319567049917
20.093332,9.147866762974576,0.1067135434196345
20.095736,9.167285261818796,0.1064138628035094
20.09812,9.183398407304484,0.1061235545164984
20.1005,9.192713854618008,0.1058862228519492
20.102904,9.203100237118168,0.1056390871544402
20.105288,9.21362638924519,0.105386931066292
20.107668,9.227737433984464,0.1051162109557036
20.110072,9.237844277230904,0.1048798584990604
20.11246,9.245809250104069,0.1046667564917148
20.11484,9.25270328779059,0.1044640215916357
20.117236,9.257455455103836,0.1042840980278028
20.119624,9.25834319055111,0.1041325001897882
20.122004,9.25988255230444,0.1039856827453257
20.124408,9.261002605177191,0.1038550817761052
20.126792,9.266266629169635,0.1036857211745851
20.129172,9.26766622129611,0.1035436708777599
20.131568,9.271999079728776,0.103380649637342
20.133956,9.27861357816158,0.1031906743384686
20.13634,9.285228076594382,0.1030014237852559
20.138736,9.289421165400189,0.1028443603946572
20.141124,9.29505727644497,0.1026929065423908
20.143504,9.301484783422673,0.1025425199373486
20.145908,9.308144607825849,0.1024125641449886
20.148292,9.316387224094862,0.1022814692652556
20.150676,9.321556804430823,0.1021773262122162
20.153072,9.32765755032656,0.102068140372654
20.15546,9.334037835476018,0.101949041581255
20.15784,9.34214068211817,0.1018241762202426
20.160236,9.350895155066382,0.1017045950194988
20.162624,9.3687289661869,0.1015134901332017
20.165004,9.39042720917339,0.1012980856308389
20.1674,9.41771244551855,0.101053073054856
20.169784,9.447139552236989,0.1007888433938055
20.172168,9.474844097462732,0.100529970585159
20.174564,9.50147770750183,0.1002821816934565
20.176952,9.53719065571324,0.0999645633788341
20.179348,9.56703707131226,0.0996894971426094
20.181744,9.599537213963757,0.0994072591674881
20.184128,9.633759918107945,0.0991225596877322
20.186508,9.673057758931604,0.0988002686959454
20.188904,9.709422333449073,0.0984991515907539
20.191292,9.74550736871282,0.0982114827294479
20.193672,9.784944979163342,0.0978919697675831
20.196076,9.829457726293336,0.0975361459578899
20.198464,9.87476186935625,0.0971802012421988
20.200844,9.920997177978942,0.0968223377934668
20.20324,9.969234587348048,0.096454046749772
20.205624,10.018682701530654,0.0960727047507618
20.208004,10.072554326086674,0.0956544059484592
20.210404,10.119348713216809,0.0952921705789399
20.212792,10.15962494142849,0.0949622004149933
20.215188,10.193103471468005,0.0946730368916684
20.217584,10.225790605574604,0.0943856918721247
20.219972,10.259548674867837,0.0940895456089999
20.222352,10.294517448974572,0.09378099462976
20.224748,10.325621791215331,0.093497774434405
20.227136,10.35956685196367,0.0931751644349761
20.229516,10.388623767487642,0.0928564039455781
20.231912,10.415306495212857,0.0925381429654658
20.2343,10.433748502526928,0.0922520326233328
20.23668,10.450887257228882,0.0919554782903107
20.23908,10.459925061146553,0.0916854473764837
20.241464,10.466588677265468,0.0914151380772374
20.243848,10.47036624890643,0.0911349110768976
20.246244,10.477124308681834,0.0908118880091941
20.248632,10.48323074215118,0.0904850448009319
20.251028,10.482819016702075,0.0901846573861884
20.253424,10.480964269013995,0.0898785631793534
20.255812,10.469378556847552,0.0896230775877359
20.258196,10.457700296882493,0.0893441552696433
20.260592,10.449234842477347,0.089040147123522
20.26298,10.445332668072476,0.0886942830172833
20.26536,10.43998747142863,0.08834250523647
20.267756,10.433339022172667,0.0879796434302597
20.270144,10.427249651424146,0.0875998261820264
20.272524,10.417715157690232,0.0872246806505463
20.274924,10.400823887276708,0.0868992340522927
20.277312,10.38751750947544,0.0865641515971775
20.279692,10.372209030927747,0.0862397591321251
20.282088,10.362115458686397,0.0858791028478814
20.284476,10.355886318311017,0.0855005721248899
20.286856,10.3581774376005,0.0850865535960964
20.289256,10.358326686516705,0.0846879781837252
20.29164,10.355774986552197,0.0843224509238688
20.294024,10.348380467333683,0.0840056941783301
20.29642,10.338192451435845,0.0836984522163549
20.298808,10.3297269970307,0.0833876897911598
20.301204,10.32191316893161,0.0830823829214485
20.3036,10.319965873444913,0.0827479557047025
20.305988,10.31517785945064,0.0824502145001605
20.308372,10.31104147176242,0.0821586122603762
20.310768,10.306485775193623,0.0818809792842676
20.313156,10.302162396050305,0.0816222533771351
20.31554,10.29993366545202,0.0813763240075067
20.317944,10.292862115599736,0.0811776315806245
20.320332,10.288024983919351,0.0809870354140811
20.322712,10.29170811190383,0.0807641879531189
20.325116,10.290827959888032,0.0805801917550819
20.327504,10.29181013899179,0.0803899814883879
20.329884,10.292745096267309,0.0802281124068112
20.33228,10.291398413542687,0.0800857824281558
20.334668,10.285907759698372,0.0799685106021994
20.337052,10.282791293652814,0.0798556271822741
20.339448,10.284190885779283,0.079732910546993
20.341836,10.289594679398588,0.0795900731630969
20.344216,10.294439394510452,0.0794643788670308
20.346612,10.30193783667479,0.0793345082589811
20.349,10.311158840331828,0.0792038948459862
20.351384,10.320100304735144,0.0790826203274944
20.35378,10.331043869884876,0.0789508939300662
20.356168,10.338774629474692,0.0788407094962484
20.358548,10.345294684251009,0.0787423343557376
20.360944,10.350743803840686,0.0786510309877754
20.363328,10.358334793803644,0.0785460966772512
20.365708,10.369929985259432,0.0784212530592464
20.368108,10.384598212648278,0.0782802840104313
20.370492,10.398614813731063,0.0781346499509414
20.372876,10.41505282444085,0.0779662409651865
20.37528,10.432422000710412,0.0777959295928969
20.377668,10.44820838511414,0.0776224536115203
20.380048,10.46692803582406,0.0774379304435282
20.382444,10.48671862172062,0.0772466270595136
20.384832,10.504367337243906,0.0770690697161711
20.387212,10.521504196087992,0.0768827475864013
20.389612,10.53798942862602,0.0766916226734083
20.392,10.560341193776436,0.0764776973943107
20.39438,10.583903663740356,0.0762540646180733
20.39678,10.606534968144494,0.0760341018628032
20.399168,10.630237207735272,0.0758088707028825
20.401548,10.659294123259242,0.0755526007187422
20.403944,10.690492909156488,0.0752829768621495
20.406332,10.722762630240371,0.0750076085098411
20.408716,10.755311890577978,0.0747236036819189
20.411112,10.784276258303333,0.0744464852306584
20.4135,10.811797603789708,0.0741622541658762
20.41588,10.835454517410112,0.0738925436760992
20.41828,10.857900726217016,0.0736348875314486
20.420668,10.88020716539706,0.0733819336163711
20.423048,10.901442669390466,0.073136114842408
20.425444,10.925751209316928,0.0728765555992307
20.427832,10.94433298625786,0.0726345544934001
20.430224,10.965848029504984,0.0723833837854778
20.43262,10.989132856073049,0.0721058968073205
20.435008,11.008273711521422,0.0718495383556913
20.437392,11.026343631783154,0.0716002637699818
20.439788,11.040316802753438,0.0713464350979961
20.442176,11.0547092826043,0.0710822930996475
20.444556,11.066308265775827,0.0708240985454204
20.44696,11.072971881894745,0.0705836654268284
20.449348,11.075351757267107,0.0703680305706001
20.451728,11.078942337452968,0.0701429814750465
20.454124,11.08188129133277,0.0699122924258894
20.456512,11.087753511518772,0.0696725727429828
20.458896,11.094137588383964,0.0694429485984449
20.461288,11.10224422674186,0.0692140612665802
20.463676,11.109559469166832,0.0689826715016931
20.466056,11.115152150099108,0.0687511278700871
20.468452,11.122095305471746,0.0685065880136774
20.47084,11.132111496777435,0.0682500744159579
20.473224,11.141987918456266,0.0679988429778072
20.47562,11.153726671254654,0.0677436481510716
20.478008,11.160949365881011,0.0674934821296799
20.480404,11.168823686813427,0.0672501543660645
20.4828,11.180981748492398,0.0669852925304308
20.485188,11.194210745358008,0.0667157566525677
20.487568,11.20781182927595,0.0664605489267871
20.489968,11.21792056838026,0.0662299419363221
20.492356,11.230031408230984,0.0659923865457759
20.494736,11.24428411845499,0.0657435318466387
20.497132,11.256394958305718,0.0655051230625409
20.499524,11.270368129275996,0.0652652243522065
20.501904,11.286203631365836,0.065023525623064
20.504308,11.30031657196298,0.0647818185174695
20.506696,11.314848821440703,0.0645290346889018
20.509076,11.329241301291566,0.0642809118300091
20.511472,11.35015194006088,0.0640245766823068
20.51386,11.371993744389968,0.0637672957627979
20.51624,11.391414139092062,0.0635283900854352
20.518636,11.406550793047598,0.0633105208498865
20.521024,11.416612310323664,0.0631103691040067
20.523404,11.430258720211985,0.0629094820747817
20.5258,11.44520838271242,0.0627211018485876
20.528188,11.458807570772496,0.0625456376105581
20.530568,11.467843478832297,0.0623978879968644
20.532964,11.477251473944436,0.0622645024078219
20.535352,11.487450864989492,0.0621339256936141
20.537736,11.498721191221184,0.0619984550047214
20.540132,11.513855949318856,0.0618554985967815
20.54252,11.5304337296555,0.061721610667047
20.544916,11.551155481111836,0.0615722309160502
20.547312,11.565870930328924,0.061441140592344
20.5497,11.577233804359237,0.0613285621641433
20.55208,11.591250405442024,0.0612170928749073
20.554484,11.60484769764423,0.0611169716824364
20.556872,11.620447090592856,0.0610117447983501
20.559252,11.629388554996169,0.0609179133625873
20.561648,11.637119314585986,0.0608324744224746
20.564036,11.649925210855272,0.0607315611762807
20.56642,11.66408158156492,0.0606188038084764
20.568816,11.681590527461346,0.0604884529905972
20.571204,11.696865055185874,0.0603472005495507
20.573584,11.713629826977623,0.0601908794301173
20.57598,11.73309554765009,0.0600117142886177
20.578368,11.753539655710576,0.0598069545881591
20.580752,11.767745144106335,0.0596009411099388
20.583152,11.78157854544976,0.0593819117142798
20.585536,11.791827054180928,0.0591623774864552
20.58792,11.793275763993512,0.0589616160252469
20.590316,11.798775897127172,0.0587269698161493
20.5927,11.802833008021857,0.0584839312371207
20.595084,11.810242694103316,0.0582238065356876
20.59748,11.821284494625273,0.0579403719035974
20.599868,11.831023042535112,0.0576457297827951
20.602252,11.840389503392617,0.0573376921143674
20.604648,11.845379675704953,0.0570267864116301
20.607032,11.85172032245764,0.0567041450185765
