Time,Force,Position
19.653224,6.349582910720757,0.1636731519827887
19.655624,6.358847344490297,0.1635577249397208
19.658012,6.373559001991648,0.1633556518048151
19.660392,6.400328589941874,0.1630027348750349
19.662788,6.4390635605423565,0.1624619999943623
19.665176,6.478776918530859,0.1618451216224447
19.667556,6.518025641668411,0.1611674821439542
19.66996,6.554807629208588,0.1604754291696027
19.672348,6.593591717495185,0.1597588142471079
19.674732,6.639126282125707,0.1589728020502794
19.677128,6.691271553473292,0.1580926048140349
19.679516,6.743836133701459,0.1571772493443816
19.681896,6.787880454264761,0.1564217710738334
19.684292,6.821447740387156,0.1559546717693448
19.68668,6.8612989721446525,0.1554935016520794
19.68906,6.903616939499519,0.1550432858957602
19.691456,6.948635855735104,0.154506828618455
19.693844,6.99146757562704,0.1539355654474402
19.696224,7.026710201413888,0.1535069839128976
19.698624,7.058088395334763,0.1531591634913922
19.701012,7.0871849492555015,0.1528663153608614
19.703392,7.122754336124313,0.152394417722051
19.705792,7.154134425903057,0.1519336376883264
19.70818,7.172897506725484,0.1516527382014095
19.71056,7.190170343480693,0.1514252232785722
19.712956,7.216195757326243,0.1510977467262458
19.715344,7.242780249679233,0.1507394968137629
19.717728,7.267781950166388,0.1503898310939283
19.720124,7.290362241026543,0.1501028408408747
19.722512,7.313035079685315,0.1498564124314745
19.724896,7.341946538008819,0.1495396832785056
19.727292,7.373931032265374,0.1491718583466098
19.729684,7.407313222790534,0.1487270503396067
19.73206,7.440650087345318,0.1482119761933678
19.734456,7.4661655403695395,0.1477878570256144
19.736844,7.49382286376704,0.1473251730811289
19.73924,7.520037164925561,0.146864299192606
19.741636,7.545879379031747,0.1463848014834333
19.74402,7.568044152727062,0.1459152564756213
19.746404,7.587275660116181,0.1454941701818685
19.7488,7.612233930490832,0.1449980075598492
19.751184,7.637936374970156,0.1445400703511526
19.753568,7.665361380942177,0.1440691749836475
19.755964,7.692786386914198,0.1435948832687097
19.758352,7.712762068407994,0.1432185488459321
19.760736,7.727243304341736,0.142945736011863
19.763132,7.742468714380156,0.1427063663238345
19.76552,7.761326238859068,0.1423899373837763
19.7679,7.77320096956858,0.1421066860423103
19.770296,7.773948935388994,0.1419259671856445
19.772684,7.770460382291096,0.1417830389059577
19.775064,7.764969728446782,0.1416700177709952
19.777464,7.759339304975603,0.1415637135874712
19.782236,7.735693766502416,0.1415148115024964
19.784628,7.723917271165129,0.1415052012753494
19.78702,7.718471943291189,0.1414601046292883
19.789416,7.71726313433556,0.141379368259999
19.791812,7.718847822059264,0.1412647099673178
19.801368,7.7017204425045245,0.1411310673205048
19.803748,7.693341848324388,0.1411252817507683
19.806148,7.689246994890807,0.1410476816832751
19.808536,7.688924025524582,0.1408889285436843
19.810916,7.689811760971853,0.1407056478053525
19.813312,7.689441569777384,0.1405846318153982
19.8157,7.69130579675481,0.1404573411915115
19.818084,7.699408643396962,0.1402652785329266
19.82048,7.706672872277955,0.1401149936445636
19.822864,7.713750109703846,0.1400088882516257
19.825248,7.725995031607826,0.1398585114602061
19.827644,7.744618342803392,0.1396378401586586
19.830032,7.766454459558876,0.1393610215427985
19.832412,7.785497079635023,0.1391193250698682
19.834816,7.800163411166,0.1389209233784767
19.837204,7.811105080457863,0.138767189015707
19.839584,7.82046395788389,0.1386218810662319
19.841984,7.823956302697526,0.1385552636519622
19.844372,7.8317323882577154,0.1384178862138999
19.846752,7.847237337549852,0.1381835232305453
19.849148,7.867537884267741,0.1378886676389447
19.851536,7.883414920612217,0.1376704504895215
19.85392,7.89207494990394,0.137560269305383
19.856316,7.9005479877405635,0.1374949760961887
19.858704,7.908601716696607,0.1374502711812331
19.861084,7.919356394533367,0.1373449307478953
19.86348,7.936117374609378,0.1371580128089947
19.865868,7.952086958752472,0.1369753751605627
19.868264,7.971409118082339,0.1367360748028694
19.870664,7.996505262225979,0.1363948874129796
19.873052,8.014431621145114,0.1361236748877741
19.875432,8.029052626705715,0.1358749918125942
19.877828,8.042882236333398,0.1356297973108298
19.880216,8.056432306707363,0.1353974427853262
19.8826,8.071565168947162,0.1351587167030538
19.885,8.086558261560102,0.1349258052293579
19.887384,8.100340649359541,0.1347154688249182
19.889768,8.119849800144513,0.1344381110681838
19.892164,8.140010577235543,0.134166673136522
19.894552,8.151231785781127,0.1340127998111417
19.896932,8.160870202460872,0.1338666139987812
19.899328,8.171859093580979,0.1336899189608051
19.901716,8.1877833517537,0.13344817472283
19.904096,8.207479493993773,0.1331356563317309
19.906496,8.230528211420621,0.1327711899133144
19.90888,8.247989935488802,0.132466091607159
19.91126,8.258002335078755,0.1322388176549767
19.91366,8.270948000974903,0.1319781529079948
19.916048,8.279889465378217,0.1317688878731353
19.918428,8.285897663475337,0.131596525421404
19.920824,8.29670145899821,0.1313718207010778
19.923216,8.30787734157342,0.1311631487915983
19.925596,8.322358577507162,0.1309374147862212
19.927992,8.342054719747235,0.1306434090783864
19.93038,8.360587379002055,0.1303376886702997
19.932776,8.383543548630287,0.1299672150391498
19.935176,8.409293214937856,0.1295696411637492
19.937564,8.433040780499006,0.1291990714099319
19.939944,8.452412057514985,0.1288611473624103
19.942344,8.472621952292126,0.1284842710431565
19.944732,8.493902782255907,0.1280944903246544
19.947112,8.519559900764856,0.1276745316305546
19.949512,8.548150285580004,0.1272246700922114
19.9519,8.567801101849703,0.1268799488994133
19.954284,8.580933759200954,0.1265967179710782
19.95668,8.5975115395376,0.1262909302906721
19.959068,8.623121436218307,0.1259135601209657
19.961448,8.647520628085518,0.1255604158119996
19.963848,8.675272395139501,0.1251591494696727
19.966236,8.700370435141012,0.1247789264463097
19.968616,8.723606144022966,0.1244179194422423
19.971016,8.74619022659886,0.1240530895442913
19.973404,8.768541991749279,0.1236705006915412
19.975788,8.78437559798125,0.1233470254090821
19.978188,8.799138269026582,0.1230377591926133
19.980576,8.807475328952082,0.1228122763472767
19.98296,8.815952158504441,0.1225818524975094
19.98536,8.823637592123882,0.1223539216766123
19.987748,8.83318535686288,0.1221096753586461
19.990128,8.845107309400635,0.121859384551933
19.992532,8.853397147497892,0.1216677990559061
19.99492,8.858613949662095,0.1215122841925686
19.9973,8.860106089587184,0.121388560413287
20.035552,8.750574273193996,0.1213326254723243
20.037936,8.749922646887939,0.1213287111490951
20.040316,8.755696631701712,0.1212455173549916
20.042712,8.761750155769205,0.1211508991663575
20.0451,8.76808321909042,0.1210447571070359
20.047484,8.778932340583664,0.1209073175806078
20.04988,8.790572858009826,0.1207684548420172
20.052264,8.801701518756794,0.1206204720200534
20.054644,8.813621575436677,0.1204706093571542
20.057048,8.837926323647402,0.1202127417665182
20.059436,8.860740827790906,0.1199858957654407
20.061816,8.889049777494462,0.1196888689936313
20.064212,8.916986640145678,0.1193759442444042
20.0666,8.949347013170314,0.119004691196794
20.06898,8.982266464702384,0.1186112069616206
20.071384,9.01588476436876,0.1181915373765035
20.073772,9.04927074660966,0.1177509753191476
20.076152,9.07641810918583,0.117352055949173
20.078564,9.095976377656912,0.1170186304603005
20.080952,9.117816286128134,0.1166548073476738
20.083332,9.139935733853072,0.1162842578040798
20.085728,9.160472389712176,0.1159185042923997
20.088116,9.178075779265086,0.115582837664036
20.090492,9.200102679191408,0.1151956391000787
20.092904,9.225854241356847,0.1147837503123528
20.095292,9.247369284603971,0.1143906694489443
20.097672,9.26972294561226,0.1139673490223102
20.100084,9.293007772180326,0.1135392058984604
20.102472,9.314989346136278,0.1131022172156836
20.104856,9.3307323004275,0.1127038483895779
20.107252,9.347313872479882,0.1122739895628699
20.109644,9.360962178226073,0.1118712281157907
20.112024,9.376892123972397,0.1114408966298803
20.11442,9.395383248972577,0.1109764739880173
20.116808,9.4120120428532,0.1105242604474694
20.119188,9.42663873598741,0.110090656729794
20.121588,9.443919156174092,0.1096456140947952
20.123976,9.464924238599892,0.1091761989191142
20.12636,9.488071191398964,0.108682444843991
20.128756,9.511078374571175,0.1081966028004242
20.131148,9.526216924384585,0.1077743014593052
20.133528,9.54135547419799,0.1073528776664383
20.135924,9.55342098807834,0.1069598384040111
20.138312,9.556267394159526,0.1066517080736347
20.140696,9.556180533934514,0.1063675973507809
20.143092,9.55767646557534,0.1060818852317419
20.14548,9.555260743521949,0.1058551194289299
20.147864,9.55163431665506,0.1056447972970507
20.15026,9.550521847213783,0.1054274137205636
20.152648,9.549781464824845,0.1052248861060348
20.155032,9.549413169488243,0.105037652772747
20.157428,9.546903003778366,0.1048719112022636
20.159816,9.542762824374408,0.1047378153137582
20.1622,9.532057264223765,0.1046734655547431
20.164596,9.521863560752315,0.1046187929720718
20.166988,9.513392418773565,0.1045578453642485
20.169368,9.505712672727729,0.1044963629679392
20.171764,9.495751286681754,0.1044610571257748
20.174156,9.48751246212848,0.1044196820187567
20.176536,9.476991997575066,0.1044043394829945
20.178932,9.472058526380325,0.1043562243711986
20.181324,9.46698528555872,0.1043131112936408
20.183704,9.465776476603091,0.1042431302550707
20.1861,9.47429863212582,0.1041037716722567
20.188492,9.483612183581476,0.1039644877550062
20.190872,9.494788066156689,0.1038151702394017
20.193288,9.512389559851725,0.103604244297535
20.195676,9.52826849205407,0.1033986664917133
20.198056,9.53907228757694,0.1032342664969925
20.200452,9.550295391980391,0.1030549085999187
20.20284,9.561798035637564,0.1028662634340081
20.205224,9.574371614481375,0.1026667843023408
20.20762,9.588155898138686,0.1024523754621441
20.210008,9.603011116982636,0.1022268449622131
20.212388,9.62308124213292,0.1019562156795178
20.214784,9.638355769857448,0.1017162852484659
20.217172,9.645761664223167,0.1015332337434785
20.219552,9.658382464895222,0.1013048177380841
20.221948,9.66942047370144,0.1010772981976526
20.224336,9.680738021761378,0.1008393077808126
20.226716,9.692195339448178,0.1005971524680568
20.229116,9.705514988254532,0.1003457322979609
20.2315,9.712968104448498,0.1001346853032539
20.233884,9.7106902561641,0.0999899282055494
20.23628,9.706829616013865,0.0998453466590511
20.238668,9.700315248811153,0.0997110152736491
20.241048,9.688074118622913,0.0996116469088529
20.243444,9.678766254740868,0.0994921348348085
20.245836,9.676954937165291,0.0993029687027878
20.248212,9.675143619589717,0.0991139107548472
20.250628,9.672121597200643,0.0989398852984438
20.253016,9.67617681223746,0.0987134759435278
20.255396,9.680511566527995,0.0984780635235976
20.257812,9.685125860072253,0.0982325808317745
20.260196,9.686667117683452,0.0980124471565497
20.26258,9.694074907907044,0.0977543200160614
20.264992,9.71177274111644,0.0974160835753799
20.26738,9.722812645780529,0.0971162385467998
20.269764,9.735295572683592,0.0968222683824992
20.27216,9.74978060033307,0.0965148879393984
20.274548,9.764824706489993,0.0961898726959103
20.276928,9.77628392003466,0.0958784874854812
20.279324,9.794028975072298,0.0955161311874553
20.281712,9.820061972349324,0.0950892797491271
20.284096,9.847165904812988,0.094653981949941
20.286492,9.87706333395599,0.0942072102783211
20.28888,9.910964964591823,0.0937351084673556
20.29126,9.947288004854656,0.0932400679514565
20.29366,9.981469174744213,0.0927677469010973
20.296044,10.015790114260623,0.0922923008624125
20.298424,10.050018505978422,0.0917939506642267
20.300824,10.076238494710552,0.0913509531801297
20.303212,10.102598253069544,0.0909059721307603
20.305608,10.132310586615308,0.0904329792116656
20.308012,10.161650833108736,0.0899475348914403
20.310396,10.191410388482746,0.0894523251925638
20.31278,10.215582950498083,0.0889841562420883
20.315176,10.243619944379398,0.0884967568116169
20.317564,10.2703536856486,0.0879996645328043
20.319948,10.296435800611738,0.0874991748534172
20.32234,10.321167441134516,0.0870180369698061
20.324728,10.348832347963494,0.0865223795275392
20.327108,10.371701657366716,0.0860500424037825
20.329508,10.390426995650248,0.0856075447333871
20.331896,10.409152333933775,0.0851661779362005
20.334276,10.424292779605052,0.0847349252183959
20.336672,10.434358088596856,0.0843343476332086
20.33906,10.43785801684197,0.0839856456978196
20.34144,10.438145139527167,0.0836602316629395
20.343836,10.437221557398868,0.0833469877325235
20.346224,10.434528191949624,0.0830632097495989
20.348608,10.431834826500385,0.0827785458132754
20.351004,10.421644914744672,0.0825471677551275
20.353392,10.408893823735102,0.0823448380440963
20.355776,10.394652488658318,0.0821631958519756
20.35818,10.375987643208116,0.0820162728098995
20.360568,10.35741534555653,0.0818924540984787
20.362948,10.339634443837864,0.0817696778669882
20.365348,10.324087960291092,0.0816550342848812
20.367732,10.308122167863736,0.0815532607802764
20.370116,10.293087540996162,0.0814481906623191
20.372512,10.277773374874863,0.0813516884336051
20.374896,10.268558058791438,0.0812474098371928
20.37728,10.264138340133766,0.0811242700073813
20.379684,10.260230478155288,0.0810113539072748
20.382068,10.257625868788924,0.0809098751317211
20.384448,10.257535216848176,0.0808082101427157
20.386848,10.26237993196004,0.0806833681499848
20.389232,10.272160014124516,0.0805358070285381
20.391616,10.283802427408547,0.0803828006122285
20.39402,10.299029733304836,0.0802228439422901
20.396408,10.316910766253596,0.0800587993988951
20.398788,10.342939971814884,0.0798494414989352
20.401184,10.37055196924201,0.0796439011883071
20.403572,10.398815592975192,0.0794442602008935
20.405952,10.42987271338771,0.0792361589287312
20.408348,10.461349142680808,0.0790154728687708
20.410732,10.489752536040852,0.0788127905947987
20.413112,10.518295699027751,0.0786072424933602
20.415516,10.54977212832085,0.0783906959832284
20.417904,10.580969018360229,0.0781839082049809
20.420288,10.610303577280048,0.0779831102318052
20.422692,10.637124178774258,0.0777835558914143
20.42508,10.655656838029074,0.0776308819014079
20.42746,10.675400202097393,0.0774680418639049
20.429856,10.699567076539122,0.0772751063141038
20.432244,10.728157461354266,0.0770525595189661
20.434628,10.756235989490218,0.076821725653813
20.437024,10.78152102094683,0.0765998744419315
20.439412,10.803872786097248,0.0763896472118639
20.441792,10.826132003449048,0.0761583437178804
20.444188,10.850812630427846,0.0759074924725436
20.446576,10.877495358153062,0.075650383379037
20.448956,10.903014602893023,0.0753786803343372
20.451352,10.9312347965137,0.075079396649317
20.45374,10.960945234201596,0.0747634679272175
20.45612,10.991726607076137,0.074442664237951
20.458516,11.023718684764166,0.0741118699920563
20.460904,11.055198905773002,0.073773305729331
20.463304,11.08481679566228,0.0734413001198731
20.4657,11.111920728125943,0.0731078868790401
20.468088,11.139955826149391,0.0727726021610265
20.470468,11.16654790193386,0.0724307696653781
20.472864,11.200776293651655,0.0720428333020743
20.475256,11.23235095831698,0.0716586005621075
20.477636,11.258059090369915,0.0712962941327211
20.480032,11.278831855370235,0.0709537568835729
20.48242,11.299325081116836,0.0706206369557182
20.4848,11.319818306863434,0.0702881947576028
20.487204,11.344595273356587,0.069933265874156
20.489592,11.366950830222745,0.0695987072626042
20.491972,11.388375221529124,0.0692686827369422
20.494368,11.407145885783027,0.0689425908547473
20.49676,11.42442630596971,0.0686339677354821
20.49914,11.439425086156255,0.0683416649205369
20.501544,11.452281995969528,0.0680615367316982
20.503932,11.46299703540952,0.067792784796777
20.506312,11.475853945222788,0.067514222975296
20.508712,11.48750015022256,0.0672456791461972
20.511096,11.49327982260994,0.0669935393865215
20.51348,11.50306369649016,0.0667280152728014
20.515876,11.51727108074379,0.0664390686109947
20.518264,11.533712883169311,0.0661616195278829
20.520644,11.543077448168948,0.0659098787019545
20.52304,11.55216247391486,0.0656655915000626
20.525428,11.562038895593693,0.0654233031008552
20.527812,11.571915317272524,0.0651809685098151
20.530208,11.5787187030183,0.0649504292731284
20.532596,11.585522088764076,0.0647201912693885
20.534976,11.594048036002548,0.0644925956298283
20.537376,11.6035051488008,0.0642636890382739
20.53976,11.603463614546165,0.0640759456467674
20.542144,11.599138339544972,0.0639083121084834
20.54454,11.59723447417078,0.0637231473916278
20.546928,11.59304896879645,0.0635515657113741
20.549308,11.586721593048845,0.0633898177591547
20.551708,11.580114678047517,0.0632353215406659
20.554096,11.568153087112997,0.0631058095169931
20.556476,11.556331265805335,0.0629723916495337
20.558872,11.552378077856485,0.0628175192409221
20.56126,11.54400137953422,0.0626862748402965
20.563644,11.5301302356519,0.0625835371018021
20.56604,11.511463494343827,0.0624902810825321
20.568428,11.501596551954345,0.0623751473177936
20.570812,11.49172960956486,0.0622597760906344
20.573208,11.48479593348157,0.0621372845683554
20.575596,11.478793422958056,0.0620135380865526
20.577976,11.474793013180964,0.0618836540404996
20.580376,11.471583999336788,0.0617564930269284
20.582764,11.458364481760526,0.0616585747942189
20.58516,11.446215899370902,0.0615557995472445
20.58756,11.444357359967084,0.0614159764767079
20.589948,11.444640690936543,0.0612661689901491
20.592328,11.441431677092366,0.0611380988381505
20.594728,11.440364533621468,0.0610002831169537
20.597116,11.4433015916434,0.0608509139212748
20.599496,11.449591224852108,0.0606838420251194
20.601896,11.458953893993874,0.0605059014692479
20.604284,11.46575538388178,0.0603484767796091
20.606668,11.467481737090216,0.0602075596927197
20.609064,11.470418795112147,0.0600578901207796
20.611452,11.471353752387667,0.0599134951749927
20.613832,11.47321987522296,0.0597675390687243
20.616228,11.46679805581887,0.0596522796149093
20.618616,11.461167632347694,0.0595396687398241
20.620996,11.45432650406302,0.0594357182963103
20.623396,11.448276771711264,0.059334571015028
20.625784,11.44222703935951,0.0592333945208362
20.628164,11.437248242194396,0.0591277978521295
20.63056,11.441348783201583,0.0589952131463765
20.632948,11.443307453835494,0.0588719521241131
20.635332,11.44326402372299,0.0587546720245171
20.637728,11.447876421409374,0.0586335202972322
20.640116,11.454770459095904,0.0584995450233735
20.642496,11.460873100849508,0.0583628024901279
20.644892,11.465113411483554,0.0582281190958076
20.64728,11.467491390998044,0.0580954552058313
20.64966,11.4687984353259,0.0579671743953118
20.652056,11.471455954094116,0.0578268556248375
20.654444,11.478257443982024,0.0576726730047299
20.656824,11.488131969802986,0.0575093511944012
20.659224,11.50415256749006,0.0573272929039092
20.661612,11.526319237043245,0.0571271917346515
20.664008,11.551838481783204,0.0569100669421411
20.666404,11.576706100217104,0.0566865986943593
20.668792,11.598268365292473,0.056455090489439
20.671172,11.616897364061646,0.0562293434913918
20.673572,11.633664031711264,0.0560048881406569
20.67596,11.64563510193513,0.0557875402354292
20.678344,11.6558836106663,0.055569108322961
20.68074,11.668553529024466,0.0553353615949768
20.683128,11.67642784995688,0.0551079361354635
20.685512,11.680717278277044,0.0548802694787934
20.687908,11.68807974253026,0.0546446953974536
20.690296,11.69558197641034,0.054405508808252
20.69268,11.704015375850195,0.0541663255857398
20.695076,11.708304804170355,0.0539393457719574
20.697464,11.716226346931016,0.0536900273541015
20.699844,11.724427428945392,0.0534334775008058
20.702244,11.729695244653575,0.0531823768143361
20.704632,11.73403189480198,0.0529326507489007
20.707012,11.733712717151496,0.052685355438787
20.709408,11.72645607170198,0.052451539347233
20.7118,11.719478965506184,0.0522107198321751
20.71418,11.714503960056808,0.051965810407875
