Time,Force,Position
19.747648,6.4334890653558245,0.166201077868987
19.750032,6.449736292894767,0.1660113861092698
19.752428,6.457975117448043,0.1659951075221307
19.754816,6.470962317598828,0.1659319925375002
19.757196,6.492190238160759,0.165731170087806
19.759596,6.515327711670485,0.1654537540982825
19.761984,6.533484492157229,0.1651957056461193
19.764364,6.549267084845218,0.1649622048890939
19.76676,6.56956573570524,0.1646628574812691
19.769148,6.596055784401745,0.1643147942226955
19.771532,6.631625171270556,0.1637786584408219
19.773928,6.659885003288001,0.1633556952032656
19.776316,6.686189956387271,0.162930055728997
19.778712,6.704486506500874,0.1626722845677096
19.781112,6.726600266652209,0.1623866535897962
19.7835,6.756163351281769,0.1619704470988104
19.78588,6.791220881471381,0.1614297070978495
19.788276,6.817945143451232,0.1609895973393647
19.790664,6.841364052072551,0.1605920527327658
19.793048,6.8692990188659016,0.1601365608814276
19.795444,6.897745842338447,0.1596930718865124
19.797832,6.926984061743913,0.1592435953110066
19.800212,6.956549042231341,0.1587335219824008
19.802612,6.985230078987235,0.1582055862313203
19.804996,7.008975748690517,0.1577759034383041
19.80738,7.032394657311838,0.1574058483010606
19.809776,7.058187753731911,0.1570149470896945
19.812164,7.084028071980228,0.1565839084629345
19.814544,7.100696504257621,0.1562920912758754
19.81694,7.113268187243562,0.1560424612848841
19.819328,7.124349626162284,0.1558420547697121
19.821708,7.146000647320532,0.1554317776140098
19.824108,7.16956122142658,0.1549555324521141
19.826492,7.1955904269878666,0.1543803754871176
19.828876,7.215381012884427,0.1538844389348706
19.831272,7.2362425339676255,0.1533737169744921
19.83366,7.248304256132238,0.153010103216688
19.836044,7.269165777215439,0.1525038868043676
19.83844,7.286302636059524,0.1520493990669732
19.840832,7.293988069678966,0.1517406282866361
19.843212,7.303815373671686,0.1513924569244005
19.845608,7.3125717424777665,0.1510650850555539
19.848,7.319977636843489,0.1507730029586446
19.850384,7.32300724266404,0.1505331193087792
19.85278,7.322312186245477,0.1503455886205799
19.855168,7.322595517214936,0.1501052595888853
19.857552,7.324229322624753,0.1498295996022725
19.859948,7.324652423221072,0.1495822308491749
19.862336,7.327357163817528,0.1492842989587315
19.86472,7.329270508481067,0.1489916244109204
19.867116,7.329321522025049,0.1487262148087932
19.874284,7.300836956013605,0.1485838527559594
19.876672,7.294367914781268,0.1485222210877623
19.879056,7.285617233548796,0.1485083540687543
19.88384,7.273376103360556,0.148457636417247
19.886224,7.267139379553698,0.1484200410231753
19.891012,7.250289643394809,0.1483947604535328
19.893392,7.241399192535475,0.1483882223093266
19.895792,7.234371072795699,0.1483559894191222
19.89818,7.228506436041178,0.1483357991469335
19.90056,7.229579267085685,0.148202532491936
19.90296,7.23088441555567,0.1480948319965844
19.905348,7.232282111824272,0.1480199659637655
19.907732,7.23512283033185,0.1479423377524146
19.910128,7.239546340705265,0.1478545579404233
19.912516,7.245832182198236,0.1477417512522606
19.9149,7.250907318877708,0.1476562701183959
19.917296,7.256261994810901,0.1475558192913901
19.919684,7.266412268169845,0.1473845756296386
19.922068,7.281637678208263,0.1471272617700955
19.924464,7.291555634141731,0.1469320108550969
19.926848,7.302544525261837,0.1467182504052581
19.929232,7.313812955635663,0.146490573957163
19.931628,7.326524408248464,0.1462615180237384
19.934016,7.342680983846659,0.1459999615356304
19.936396,7.366147114296222,0.1456498397251964
19.938796,7.392546511051979,0.1452552553592417
19.941184,7.418666368554015,0.1448778281865047
19.943564,7.449302284228081,0.1444526238251795
19.94596,7.482219839902285,0.1439842917608723
19.948352,7.50941063259096,0.1435974067966946
19.950732,7.532085367107603,0.1432612065911025
19.953132,7.552385913825492,0.1429392834269826
19.955516,7.575107870170379,0.1425687576585532
19.9579,7.599180300955624,0.1421685768934902
19.960296,7.621390400621314,0.1417920532775798
19.962684,7.647604701779835,0.1413570292706896
19.96508,7.676472729990833,0.1408979682136469
19.967476,7.703198887828553,0.1404776309369734
19.969864,7.730856211226051,0.1400518903361275
19.972248,7.762098427235802,0.1395895645961403
19.974644,7.786263405819665,0.1392300789097571
19.977032,7.810148845149806,0.1388861200342249
19.979416,7.831380557427473,0.1385690943664281
19.981812,7.849818773025805,0.1382877147147433
19.9842,7.860016268212992,0.1380990974726926
19.98658,7.869282597840402,0.1379220296118316
19.988976,7.877477992281173,0.1377629936129537
19.991364,7.880365932616995,0.137656403707542
19.993748,7.881251772206399,0.137578501095883
19.996144,7.885070878101999,0.1374616426331993
19.998532,7.894756516609989,0.1372671682904923
20.000912,7.907887278103372,0.1370444608363968
20.003308,7.918736399596618,0.1368652259917857
20.005696,7.92544154997017,0.1367484846044332
20.00808,7.936011132209695,0.1365841291540949
20.01048,7.941785117023468,0.1364787306175231
20.012868,7.944765605157906,0.1364047828034858
20.015248,7.948956798105843,0.136307372369068
20.020036,7.942952391724462,0.1362861889893486
20.02242,7.949844533553117,0.1361293245877333
20.024816,7.956085049075713,0.1359696229244121
20.027208,7.963396499784949,0.135792957628688
20.029592,7.972198194561404,0.1355806424321682
20.031992,7.988588983442945,0.1352816580353231
20.03438,8.006562564190324,0.1349769201713395
20.036764,8.027469411243896,0.1346372792839627
20.03916,8.050890215723083,0.1342820786020755
20.041548,8.077244286508465,0.1338936982465264
20.043932,8.103318818040128,0.1335203814015685
20.046328,8.127111709571652,0.1331889693791363
20.04872,8.15039274442398,0.1328513937957215
20.0511,8.175024253716666,0.1324878997459738
20.0535,8.203659964502187,0.1320743809461707
20.055888,8.227220538608234,0.1317280972249843
20.058272,8.257439041259591,0.1313122717394408
20.060668,8.287517774284087,0.130902481704305
20.06306,8.31973837768186,0.130465966989238
20.06544,8.358896448878662,0.1299478883918955
20.06784,8.401359873433996,0.1294142822677308
20.070228,8.436606290936583,0.1289815461165384
20.072612,8.473854809185584,0.1285273692052796
20.075012,8.514827989673698,0.1280419018423971
20.0774,8.557895818706848,0.127567346600643
20.07978,8.597238985500884,0.1271326967816166
20.08218,8.637001461175501,0.1266837391848304
20.084568,8.677462784984419,0.1262118479212831
20.086952,8.717552021741,0.1257285826408853
20.089348,8.752985430698688,0.1252889724088882
20.091736,8.78590488223076,0.124862115844387
20.09412,8.819523181897136,0.1244081174622506
20.09652,8.849556588951257,0.1239823784765338
20.098908,8.877727664885823,0.1235758684387143
20.101288,8.90482780563375,0.1231860135862877
20.103688,8.940215888621067,0.1227015763333154
20.10608,8.973229783809625,0.1222304403225565
20.10846,9.008944627878904,0.1217122083049855
20.11086,9.043588536761543,0.1212129855319441
20.113252,9.071294977845154,0.1207853235553275
20.115628,9.09704654001059,0.1203492078680548
20.118024,9.12321741105661,0.1198950489833459
20.120408,9.149388282102626,0.1194445386559746
20.122788,9.16638726717772,0.1190618049106051
20.125184,9.173934827028171,0.1187577655836499
20.127568,9.180411451691986,0.1184666837579509
20.170564,8.91228316692256,0.1182783793774286
20.172944,8.906790617220373,0.1182569937631624
20.175348,8.905162499384161,0.1182018448131716
20.177736,8.904186007854012,0.1181506419856817
20.180116,8.904932077816554,0.1180906202795936
20.18252,8.913407011511046,0.1179620738892303
20.184904,8.92188194520554,0.117833126292503
20.187284,8.933569684459945,0.1176675834992766
20.189684,8.944326258154572,0.117509540682415
20.192068,8.958435407035976,0.1173086309024297
20.194448,8.971892929611323,0.117102440049601
20.196844,8.984931143306087,0.1169139238779362
20.199232,9.00555845110594,0.1166629369843677
20.201612,9.02776855077163,0.1164081266248384
20.204008,9.047464693011705,0.1161632960131168
20.206396,9.069674792677391,0.1159070840933413
20.208792,9.09281605790286,0.1156445654334669
20.211188,9.112884287195271,0.115414172682543
20.213572,9.128017149435074,0.1152313639384655
20.215956,9.144360716488372,0.1150302195554316
20.21836,9.159121491675831,0.1148343989757711
20.220748,9.17243924462432,0.1146390143098475
20.223128,9.181892565706832,0.1144769971561014
20.225524,9.1944189227224,0.1142843047728501
20.227908,9.211368790111385,0.1140385855237253
20.230292,9.226735865634527,0.1137972597692891
20.232688,9.245455516344451,0.1135155214983952
20.235072,9.26017096556154,0.1132729344110852
20.237452,9.277959450711684,0.1130019734053826
20.239848,9.29467700067519,0.1127445349167637
20.242236,9.318611557691442,0.1124185343915996
20.244632,9.342965423588277,0.1120782305004395
20.247028,9.364665562432636,0.1117532501198643
20.249416,9.38478290941116,0.1114292268702466
20.251796,9.409835623442296,0.1110653586190448
20.254192,9.43772905598101,0.1106546978047299
20.25658,9.465250401467385,0.1102311136804452
20.25896,9.495332926207617,0.1097687541770577
20.261356,9.53049058762732,0.1092624051433567
20.26374,9.566858953860526,0.1087419864482862
20.266124,9.602715463414532,0.1082166364014234
20.268528,9.632565670729292,0.1077437828676181
20.270912,9.664697518044184,0.107244994774042
20.273292,9.694455177560323,0.1067505411033176
20.275696,9.720488174837348,0.1062820404129294
20.278084,9.746800711368092,0.1058062316556101
20.280464,9.77111114715242,0.1053492751794553
20.282872,9.794769956630692,0.1048883367507311
20.285256,9.811910607190518,0.1044665645634651
20.28764,9.827468465884502,0.1040465705558381
20.290032,9.836508165660044,0.1036671369354587
20.29242,9.841962972823328,0.1033040254001307
20.2948,9.84504359218786,0.1029413637008562
20.297196,9.85082516043311,0.1025378047581149
20.299584,9.85302183606611,0.1021519083827341
20.301964,9.851865936512333,0.1018023957692497
20.304364,9.848568166585274,0.1014728644176947
20.306748,9.845130627031358,0.1011485035745985
20.309132,9.833824454118632,0.1008795903692378
20.311528,9.816791518220375,0.1006454697005434
20.313916,9.792541575269372,0.1004712015697035
20.354552,9.221297273045092,0.1003646962685347
20.356936,9.21063703886482,0.1003486437451652
20.35932,9.20779821621511,0.1003079907292569
20.361716,9.213200113976548,0.1002274112992834
20.3641,9.234059739201877,0.1000478503817301
20.366484,9.264882646331047,0.0998238181046453
20.36888,9.303015108311584,0.0995667081458193
20.371264,9.346035715516493,0.0993054027215534
20.373648,9.3866349130944,0.0990718428590858
20.376044,9.428677132911284,0.0988451494575324
20.378432,9.466854920862197,0.0986414428452767
20.380812,9.507174579186383,0.0984176325305879
20.383208,9.545631906391014,0.0982050890481404
20.385596,9.58823320471534,0.097957820696262
20.38798,9.628320545614052,0.0977148657971807
20.390376,9.662960662780955,0.097497182803945
20.39276,9.702675916627326,0.097242159262597
20.39516,9.7423911704737,0.0969866442783612
20.397556,9.780895719506574,0.096747363051575
20.39994,9.814464901486838,0.0965435491706134
20.402324,9.84626430014616,0.0963754327943738
20.40472,9.873779958058927,0.0962479551633019
20.407108,9.901714924852277,0.0961080082049779
20.409488,9.930720826832268,0.0959606137932923
20.411884,9.948365750639812,0.0959035575083917
20.414272,9.96307740814116,0.0958655613057662
20.416652,9.97192253303012,0.0958641607034729
20.419048,9.978393470120324,0.0958619075781109
20.421436,9.994223284636558,0.0957871303760467
20.42382,10.006468206540536,0.0957252974478361
20.426216,10.02765269698996,0.0956054419639338
20.428604,10.052981158559078,0.0954560855507911
20.431,10.07630751938178,0.0953197083189009
20.433396,10.098702714644702,0.0951887845231471
20.43578,10.12389140658696,0.0950450600590402
20.43816,10.151361738529356,0.0948786757031612
20.440556,10.172453681180162,0.0947387940851562
20.442944,10.195035867898188,0.0945765552405399
20.445324,10.218596442004236,0.0943829950151291
20.447728,10.24578913055078,0.0941500486575277
20.450116,10.273308580179284,0.0938804775161042
20.452496,10.29836129421042,0.0935859218438106
20.454892,10.317454927830548,0.0933030709714262
20.45728,10.33044971141281,0.0930356789328486
20.45966,10.34712383126381,0.092700397355889
20.462056,10.360400049957663,0.0923443140646045
20.464444,10.37665675678595,0.0919442639040702
20.46684,10.396545578054736,0.0915073719546824
20.46924,10.410475318912514,0.0910833122315747
20.471624,10.430830670890124,0.0906113412912756
20.474008,10.44774089988234,0.0901494350623444
20.476404,10.456550178090271,0.0897133070924454
20.478788,10.470202275552198,0.0892279717543605
20.481172,10.483622055588649,0.0887256633039557
20.483568,10.498951388572898,0.0881916022691564
20.485956,10.516841900811006,0.0876312387590205
20.488336,10.537945218609028,0.0870482418295849
20.490732,10.558676449354712,0.0864534046370887
20.49312,10.576614183421064,0.0858699473446682
20.495504,10.589896089688516,0.0853038988003234
20.4979,10.603177995955978,0.0847393908619529
20.500288,10.620975960395466,0.0841643535787149
20.502668,10.643289983006987,0.0835788939186778
20.505064,10.668397502297848,0.082983596319564
20.507452,10.69359756938732,0.0824137347561255
20.509848,10.719961119462049,0.08185890193278
20.512248,10.74390325990978,0.0813290698670535
20.514632,10.763841198864675,0.0808226539738491
20.517016,10.781869584871774,0.0803488782650831
20.519412,10.790818632706568,0.0799232404984507
20.521796,10.796834414235162,0.0795108690351433
20.524176,10.804013678749016,0.0791124121049944
20.52658,10.806629663262594,0.0787516000952823
20.528968,10.80840703001501,0.0784167492695853
20.531348,10.807483447886709,0.0781138499155071
20.533744,10.802648212064195,0.0778533254763712
20.536132,10.798045293667151,0.0776118817010532
20.538512,10.794745627882229,0.0773824724686928
20.540908,10.793540610642337,0.0771661215917166
20.543296,10.79550117713412,0.0769559761023375
20.54568,10.796762895491597,0.0767669216447984
20.548076,10.79439249940858,0.0766107020475938
20.550464,10.788529758511928,0.0764828806535374
20.552844,10.783318643921335,0.0763609380178604
20.55524,10.775174263024544,0.0762503562820216
20.557628,10.770475005113148,0.0761384250565314
20.560012,10.769500409440864,0.0760170793000847
20.562408,10.770760231940477,0.0759052194465272
20.5648,10.7769554214927,0.0757736143624323
20.56718,10.79046016589629,0.0756272213589662
20.569576,10.808480968471912,0.0754739765143825
20.571964,10.831297368473289,0.0753055665144242
20.574348,10.859840531460188,0.075120329183352
20.576744,10.887312759260452,0.0749413583278396
20.579128,10.915576382993637,0.0747647734500756
20.581528,10.945981877100094,0.074575797194976
20.583924,10.970800377847882,0.0744001897528309
20.586312,10.99040397228934,0.074252147457348
20.588696,11.0082850052381,0.0741047883613235
20.591092,11.026305807813724,0.0739539499465452
20.59348,11.044466380016203,0.0737993152564934
20.59586,11.061835556285768,0.0736424151490162
20.598256,11.078413336622411,0.073483242100576
20.600644,11.095130886585917,0.0733207546989632
20.603024,11.114502163601896,0.0731558373328204
20.60542,11.133501353565538,0.0729783621137554
20.607808,11.1503586731559,0.0728142747035635
20.610192,11.166564366440207,0.0726451117116632
20.612588,11.179697023791462,0.0724909638990879
20.614976,11.192178054836656,0.0723319482924705
20.617356,11.199723718829237,0.0721913493464398
20.619756,11.205546821329126,0.0720515241944288
20.622144,11.20550339121662,0.0719317440759934
20.624524,11.210023241104391,0.0717810137747759
20.626928,11.214031234312966,0.0716207849536576
20.629316,11.21631666602884,0.07146062222438
20.631696,11.222746068864408,0.0712807411032984
20.634092,11.234809686886893,0.0710641423915736
20.63648,11.247944240096013,0.070841909516803
20.638864,11.260427166999076,0.0706143668551181
20.64126,11.272258467596082,0.0703810784944194
20.643648,11.290235840059198,0.0701222694009946
20.646028,11.313567888455507,0.0698360784844945
20.648424,11.33517737535912,0.069550337095841
20.650812,11.357485710397032,0.0692466099317722
20.653208,11.37578984394211,0.0689582820588255
20.655608,11.391068163382377,0.0686575933577181
20.657996,11.40276159021039,0.0683597849031604
20.660376,11.411429202933595,0.0680487846584668
20.662772,11.418793563044682,0.0677268600497304
20.66516,11.428858872036486,0.0673787121676565
20.66754,11.439483259535733,0.0670166441297944
20.669936,11.451458121475335,0.066641025867205
20.672324,11.460499717108746,0.0662756157955286
20.674708,11.470891787182516,0.0658985023312297
20.677104,11.482634331696644,0.0655089999991564
20.679488,11.49866061695732,0.0651012511964242
20.681872,11.51068270072517,0.064707444018237
20.684268,11.524334798187096,0.064294901400993
20.686656,11.537614808596684,0.0638694861212359
20.689036,11.551965754192912,0.0634395798236323
20.691436,11.563802742363524,0.0630088601019892
20.69382,11.571635529041306,0.0625917969932491
20.696204,11.58161018609236,0.0621658500161504
20.6986,11.590653677583637,0.0617423395167311
20.700988,11.604912075381248,0.0613000061795051
20.703384,11.626619797657089,0.060851293285119
20.70578,11.652052182172037,0.0603987297909522
20.708168,11.68078992004552,0.0599527720256338
20.710552,11.706175082732228,0.0595245924094174
20.712948,11.729930231724856,0.0591163535442636
20.715336,11.74833070478429,0.0587309711191422
20.71772,11.767802113030363,0.0583416727576503
20.720116,11.785131650903162,0.0579615851315348
20.722504,11.798037678402546,0.0576032817256655
20.724884,11.810524397021346,0.0572565865884501
20.727284,11.813372698960402,0.05694986137821
20.729672,11.818874727951933,0.0566445057017771
20.732052,11.819254398435744,0.0563781439536788
20.734456,11.81823637265096,0.0561477026668622
20.73684,11.81665926835873,0.0559318461283707
20.73922,11.80930817925273,0.0557480368934451
20.741616,11.80060661570637,0.0555753428754657
20.744004,11.788272937719512,0.0554262016822748
20.746384,11.775380181225213,0.0552913326711012
20.748788,11.754851108797586,0.0551895264968878
20.751176,11.724031993384155,0.0551188980724833
20.753556,11.690000072410808,0.0550604270794009
20.755952,11.660763748863207,0.0549949256154422
20.758336,11.63697464904742,0.054929185932854
20.760716,11.61704998109761,0.0548574307201727
20.763108,11.603923011319964,0.0547744384419868
20.765496,11.59023696303488,0.0547055015063964
20.767892,11.581206742548687,0.0546339100373914
20.770284,11.575901184301609,0.0545601725548104
20.772672,11.571666561241164,0.0544824258337732
20.775064,11.573717779673691,0.0543838710725518
20.777468,11.572695962173167,0.054293778542172
20.779856,11.578239525419333,0.0541761797836708
20.782236,11.589417303852414,0.0540319986833158
20.78464,11.60087462153921,0.0538809480100282
20.787024,11.620759651092255,0.0537021243063901
20.789404,11.64464888213814,0.0535149478484865
20.791808,11.670819753184157,0.0533163437992944
20.794192,11.696199228297257,0.0531149368570084
20.796572,11.726793609716688,0.0528971580927194
20.798968,11.761811501509532,0.0526593408863165
20.801352,11.801113134048933,0.0524066688626246
20.803732,11.834548233975942,0.0521648749243911
20.806124,11.860394239797866,0.0519292790930307
20.808512,11.879582317074483,0.051699780210862
20.810892,11.893835027298485,0.0514795214547729
