Time,Force,Position
19.55328,6.492558654581828,0.1641588257654915
19.555668,6.50908542137449,0.1639714536192288
19.558052,6.535762461526096,0.1635676541610195
19.560448,6.565839298692721,0.1630253832650204
19.562836,6.585067014366101,0.1627444036375952
19.56522,6.604759364890438,0.1625235964719956
19.567616,6.629479630266003,0.1622447901892924
19.570004,6.6613243548957,0.161772378423273
19.572388,6.689678630569633,0.1612586241818589
19.574784,6.708861020272638,0.160905292606369
19.577172,6.722501742587348,0.1607339190168341
19.579556,6.736467330126155,0.1606268855828934
19.581956,6.7617938958374015,0.160289757947777
19.584344,6.79489654710884,0.1597659972122795
19.586724,6.826276636887582,0.1592639025043153
19.58912,6.855467634464804,0.158860592650174
19.591508,6.888708159505236,0.1584664190064284
19.593888,6.936847333502119,0.1578338223721886
19.596284,6.9838230245137485,0.1571856688645732
19.598672,7.022744986569337,0.1566133436527804
19.601052,7.049981105228386,0.1562199775671187
19.603456,7.07945164205933,0.1558296559119799
19.605844,7.108922178890271,0.1554454530573563
19.608224,7.136437836803038,0.1550530502473474
19.61062,7.169123075051768,0.1544811829664472
19.613008,7.2006448303152375,0.1539067816182231
19.615388,7.232259133377329,0.1533742415395429
19.617784,7.262475740170817,0.1529217940151026
19.620172,7.2982793403229715,0.1523868869298711
19.622556,7.331988291930096,0.1518478229612463
19.624952,7.362950968686128,0.151313091001389
19.62734,7.394425502121356,0.1507944489044522
19.629724,7.423151864847626,0.1503987511075189
19.63212,7.446523551640703,0.1501048389605134
19.634508,7.467940359515604,0.1498027081267831
19.636887999999995,7.487681827726055,0.149481842325865
19.639288,7.5023953810852735,0.1492120790821967
19.641676,7.512033797765022,0.1490325150399825
19.644056,7.526095724818182,0.1487674318426522
19.646452,7.546862802244895,0.1483702287307444
19.64884,7.565395461499714,0.1479777633667661
19.651236,7.575687400343388,0.1476944724364343
19.653632,7.58593211735882,0.1474515859318048
19.656024,7.603067080345037,0.1471411979887085
19.658404,7.620993439264171,0.1468298850085901
19.660803999999995,7.637988632623529,0.1465337189179913
19.663188,7.657405235609882,0.1461920101869188
19.665572,7.681477666395128,0.1457958257035733
19.667968,7.703268457180237,0.145444822788816
19.670355999999995,7.727201118338622,0.1450543169199105
19.672736,7.749690757258032,0.1446661857231632
19.675136,7.770924365393568,0.1442406749363572
19.67752,7.787130058677875,0.1438555695230459
19.679904,7.810412989388072,0.1433635168526477
19.682307999999995,7.837280812710522,0.1428325828484388
19.684696,7.860563743420719,0.14233918674632
19.687076,7.886919710063972,0.1418014659869524
19.689472,7.912344511147444,0.1412766571953152
19.691859999999995,7.933997428163563,0.1408365557699601
19.69424,7.948945194806129,0.1405192210833746
19.696636,7.967105767008608,0.1401467624027567
19.753976,7.683164730443773,0.139893510890369
19.756364,7.677532411114728,0.1398912048476886
19.758744,7.677487085144354,0.1398227430655272
19.76114,7.678185933278653,0.1397875211498263
19.763528,7.678465472532376,0.1397735221871861
19.765908,7.679396638092155,0.1397625411632807
19.768308,7.681119199584852,0.1397476440850348
19.770696,7.684052465891047,0.1397076893222744
19.773076,7.6869857321972415,0.1396678469941605
19.775476,7.6928522648096305,0.1395877779051364
19.77786,7.698206940742825,0.1394986377287279
19.780259999999995,7.7094281492884065,0.1393306606612276
19.782656,7.722092380072966,0.1391612847426243
19.785044,7.73741033791,0.1389663722175688
19.787424,7.747141302388363,0.1388371749300917
19.789824,7.760364611680363,0.1386418184945396
19.792208,7.76986325873325,0.1384909615231384
19.794592,7.778802827278695,0.1383663706230617
19.796987999999995,7.792677762876753,0.1381738489254908
19.799376,7.807623633661451,0.137965744000157
19.80176,7.823780209259646,0.1377341377152478
19.804155999999995,7.84100772004448,0.1374886448801161
19.806544,7.85981802269515,0.1372357051789541
19.808928,7.888126972398706,0.1368378168558107
19.811328,7.915784295796205,0.1364393785525164
19.813716,7.941719057701007,0.1360594404053731
19.816099999999995,7.963137761433778,0.1357229398088579
19.818496,7.987629501099604,0.1353438259193874
19.820888,8.011050305578792,0.1349814590485647
19.823267999999995,8.03582158449834,0.1345915843014336
19.825664,8.05887030192519,0.1342170527132185
19.828052,8.07498155155301,0.1339323626911
19.830432,8.094957233046804,0.1336038157013001
19.832828,8.117074784913875,0.133246442448059
19.83522,8.14561794790078,0.1327943187641723
19.8376,8.172159010141264,0.1323716564212879
19.839996,8.199351698687808,0.1319526280352607
19.842388,8.231759293540687,0.1314608044464426
19.844768,8.263934570968084,0.1309521472834924
19.847168,8.294946365410228,0.130435826995421
19.849556,8.325446303173173,0.1299129784335538
19.851936,8.353152744256784,0.1294221389007964
19.854336,8.380347328661198,0.1289227264981401
19.856724,8.402886085266719,0.1284767948773455
19.859108,8.424773215566184,0.1280290150149896
19.861504,8.442516374745953,0.1276341691800284
19.863892,8.463425117657394,0.1272265779269787
19.866276,8.48312315575534,0.1268425444766799
19.868672,8.504730746801082,0.1264079624946817
19.87106,8.520751344488154,0.1260253374142644
19.87344,8.538214964414205,0.1256446638125286
19.87584,8.562616052139283,0.1251846180188048
19.878228,8.578357110572636,0.1248145742961606
19.880612,8.586648844527764,0.1245143621348228
19.883012,8.58893427624364,0.1242855914785891
19.8854,8.589869233519156,0.1240836422156419
19.88778,8.59266652191423,0.1238651979942441
19.89018,8.593601479189747,0.123664867555022
19.892568,8.590392465345568,0.1235163671047166
19.906904,8.533230654293968,0.1234314707302371
19.909284,8.525875773472226,0.1234295740919287
19.916448,8.500413229849853,0.1234099318970823
19.918856,8.501858147946699,0.1233167845290273
19.92124,8.503023526789823,0.123235737737399
19.923624,8.504049136006088,0.1231612612986934
19.92602,8.515876644887355,0.1229773130277862
19.928404,8.534222312687069,0.122738414362971
19.930788,8.55480239865868,0.1224990571640326
19.933184,8.57510294537657,0.1222702643999952
19.935572,8.59433255690782,0.1220566623318119
19.937952,8.611280528438932,0.1218765361251517
19.940348,8.631813392582298,0.1216710982898862
19.942736,8.659563263778413,0.121383751062158
19.94512,8.68880337904175,0.1210658146182453
19.947516,8.720185364678363,0.1207206547252834
19.949904,8.75342968143453,0.1203632120214045
19.952283999999995,8.793331926736004,0.1199471817797067
19.954684,8.830580444985008,0.1195515346092551
19.957072,8.869970833607288,0.1191328701610393
19.959451999999995,8.910292387789346,0.118709683763793
19.961848,8.957643957569049,0.1182467202737964
19.964236,9.003645052908395,0.1178095296052593
19.966619999999995,9.038984018209597,0.11747481546109
19.969016,9.072600422018104,0.1171487549709537
19.9714,9.101001919520275,0.1168822239882406
19.973784,9.122465949223422,0.1166857911621499
19.97618,9.142207417433866,0.1164999120488969
19.978568,9.16078540265906,0.1163005019597771
19.980952,9.187791099750502,0.1160092040851402
19.983348,9.214424709789604,0.1157041361136791
19.985736,9.24161739833615,0.1153763811495929
19.98812,9.269229395763272,0.1150349502858929
19.990516,9.290695321324288,0.1147591315304644
19.992904,9.31309241244508,0.1144785663360533
19.995284,9.336700208379373,0.1141825634164392
19.997684,9.357374738007463,0.1139133330565063
20.000067999999995,9.376606245396584,0.1136443536430454
20.002468,9.39770008390526,0.1133638769002279
20.004864,9.415209029801684,0.113105297342058
20.007252,9.433928680511606,0.1128323028011727
20.009632,9.4464097115568,0.1125940339548422
20.012028,9.460520756296075,0.1123240604940973
20.01442,9.477704836968403,0.1120240447081846
20.0168,9.498241492827509,0.111685447047764
20.019196,9.521618867194189,0.1112973090547578
20.021584,9.549559521561145,0.110855370337901
20.023964,9.57777971518182,0.1104055584794896
20.02636,9.609584801414751,0.1099389973104896
20.028748,9.633800793542596,0.1095310801006445
20.031128,9.658528642349635,0.1091340902675473
20.033528,9.689774650075128,0.108700233117647
20.035916,9.71915832668106,0.1082804253904719
20.038296,9.752034348100633,0.1078198760934105
20.040692,9.78518990877392,0.1073532075639146
20.04308,9.816622907954514,0.1068956093860594
20.045464,9.848242898590213,0.1064048310945189
20.04786,9.873204960680598,0.1059574745225081
20.050248,9.897794935718643,0.1054989124034785
20.052632,9.921733284450635,0.1050356567978197
20.055028,9.943437215010734,0.1045722657294155
20.057416,9.969564655944248,0.1040645664187103
20.0598,9.99476093131798,0.1035643497699819
20.062196,10.024101177811406,0.1030325023358448
20.064584,10.052929567625638,0.1024955242934109
20.066968,10.083620288559429,0.1019519032110831
20.069364,10.10830470725396,0.1014546223551626
20.071752,10.132337499642444,0.1009551150050947
20.074136,10.150271441993052,0.1004761480811926
20.076532,10.165551657291186,0.1000057347652834
20.07892,10.175943727364954,0.0995394482071023
20.081299999999995,10.17651228516174,0.0991132493088923
20.0837,10.17456688553291,0.0986911422918175
20.086088,10.168896823664967,0.0982884937906947
20.088467999999995,10.15978163881163,0.0978953484383663
20.090868,10.146010626159404,0.0975241221596438
20.093256,10.133542866119296,0.0971625485479901
20.09564,10.126941638691571,0.0967624994966551
20.098036,10.114194339397743,0.0964081199180127
20.100424,10.101027731223333,0.0960669652502961
20.102808,10.080644115996172,0.095780353100422
20.105204,10.053974659276042,0.0955445532331557
20.107592,10.026374036996136,0.0953124469737223
20.109976,9.98904245023786,0.09513936976134
20.112372,9.947287353106177,0.0950070730419513
20.11476,9.901528054481656,0.0949008509229544
20.11714,9.855349446976552,0.0948091725698393
20.11954,9.80768059540423,0.0947397345850968
20.121928,9.765319197936858,0.0946516906667702
20.124312,9.72984804644027,0.0945463302316775
20.126708,9.699265040168054,0.0944377018236785
20.1291,9.674501344679983,0.0943215192542704
20.13148,9.653694628856506,0.0942070004752294
20.133887999999995,9.634191165645143,0.0941025104216562
20.13628,9.6135695454189,0.0940364492369802
20.13866,9.597556531163304,0.0939779655055319
20.14106,9.580193042467346,0.0939380691188028
20.143444,9.560268374517534,0.093930751798935
20.145824,9.54551139104581,0.0939119263828309
20.148228,9.53527046574612,0.0938758647660417
20.150616,9.534992822350269,0.093801298949834
20.152996,9.540953798619146,0.093705773668907
20.155388,9.550080358619692,0.0936127258748531
20.157775999999995,9.569589509404665,0.0934673800893932
20.160156,9.594406114294582,0.0933060576251234
20.162552,9.622248533289316,0.0931518973120109
20.16494,9.657959585642852,0.0929498965685787
20.16732,9.694042725048734,0.0927626513893872
20.16972,9.731848425947309,0.0925747993247594
20.172108,9.767931565353184,0.0923931606113872
20.174488,9.807739366998176,0.0921974120806164
20.176884,9.846476233456528,0.0920117353429108
20.179272,9.887494739915018,0.0918065269713164
20.181652,9.929304642306423,0.0916025753245417
20.184052,9.975258515817528,0.0913682387229358
20.18644,10.022982172649566,0.0911030148494029
20.188836,10.073639095787804,0.0908232966777986
20.191232,10.128160450792013,0.0905242930474407
20.19362,10.18496344579636,0.0902057681331011
20.196,10.243116915241064,0.089874649226495
20.198396,10.300618758379713,0.0895424290016279
20.200783999999995,10.358539910398942,0.0892005647309724
20.203164,10.415018040179191,0.0888555331129161
20.205559999999995,10.466700572533696,0.0885371782411144
20.207948,10.514798212275943,0.0882300278924556
20.210332,10.562011908286657,0.0879005109873789
20.212727999999995,10.605500942058256,0.0875892586756281
20.215112,10.649968363217877,0.0872477816252505
20.217496,10.687777855832188,0.086936286339606
20.219892,10.721862686207386,0.0866394579743542
20.22228,10.749708896917856,0.0863597064898895
20.224676,10.776251855016213,0.0860698890584747
20.227068,10.79613688456926,0.0858091547350351
20.229455999999995,10.816441223002888,0.0855363043220872
20.231839999999995,10.837444409570814,0.0852438658970595
20.234236,10.856445495392329,0.0849635222068824
20.236624,10.872792854161364,0.0846900334346952
20.239,10.888768125878064,0.0844046872469522
20.241408,10.903300375355784,0.0841147317675164
20.243796,10.912897257780896,0.083850057153034
20.246175999999995,10.919049017220614,0.0835900842195547
20.248572,10.919474013674805,0.0833527345572092
20.25096,10.916965743822796,0.0831285593532317
20.25334,10.915668178784284,0.0828933304571559
20.255735999999995,10.9146501529995,0.0826494260884997
20.258124,10.91428375352077,0.0824113658905022
20.260508,10.912055022922482,0.0821793037141244
20.262903999999995,10.911129544936314,0.0819586241448522
20.265292,10.915139434002754,0.0817151976242866
20.267672,10.925015855681586,0.0814471624736363
20.270071999999995,10.938616939599532,0.0811682842830524
20.272455999999995,10.954731980943093,0.0808900778787407
20.274836,10.972429814152486,0.0806136337627067
20.277244,10.99012764736188,0.0803383558797614
20.279632,11.00298266131728,0.080107490035407
20.282012,11.015837675272683,0.0798769334763566
20.284408,11.032137812213476,0.0796449683786719
20.286796,11.046668165833331,0.0794412462275635
20.28918,11.06329316799822,0.0792513401202633
20.291576,11.080569796469169,0.0790668982682199
20.293964,11.100080843112009,0.0788913759326478
20.296344,11.124107947926875,0.0787069601016287
20.298748,11.15158017572714,0.0785204690422533
20.301136,11.177422389833325,0.0783573939198754
20.303519999999995,11.206709726924904,0.078192987297399
20.305912,11.235717524762764,0.0780375414997791
20.308304,11.265237179279818,0.0778918188212759
20.310684,11.298900804916569,0.0777262857981742
20.31308,11.329351624993402,0.0775807434800272
20.315468,11.356589639510318,0.0774559197703171
20.317848,11.381266474773378,0.0773561271460081
20.320248,11.40580354040958,0.07726109642913
20.322631999999995,11.432482476419054,0.0771536255069278
20.325028,11.456740002801537,0.077066845381338
20.327424,11.485560809184287,0.0769471943623934
20.329812,11.517454651500096,0.0768138478317116
20.332192,11.54310987415118,0.0766895877737809
20.334588,11.566530678630365,0.0765566854640276
20.336976,11.585063337885185,0.0764188177264623
20.33936,11.60122180934125,0.0762758972898024
20.341756,11.61514586262542,0.0761246397015916
20.344144,11.628697828857252,0.0759609382345378
20.346528,11.640155146544052,0.075785015174839
20.348924,11.654453182738427,0.0755782967062402
20.351312,11.668798440761048,0.0753484820200057
20.353696,11.68263184210447,0.0751098946024631
20.356092,11.697303861209052,0.0748488127274883
20.358484,11.702803994342712,0.0746058201373418
20.360864,11.71221578117059,0.0743269053794395
20.36326,11.716320113893518,0.0740519254668046
20.365652,11.719028646205714,0.0737445284616971
20.368032,11.721924169973011,0.0734099894953143
20.370428,11.727800181874748,0.0730431009126032
20.372816,11.736284594858589,0.0726294758590299
20.3752,11.744396920790088,0.0722046750611728
20.377596,11.749343662989917,0.0717738501943789
20.379988,11.754849483697182,0.0713266651911371
20.382372,11.765058354031584,0.0708472656632511
20.384768,11.774615598059928,0.0703612489828662
20.387156,11.789667287648328,0.0698450063894162
20.389536,11.805278055744168,0.0693143336385533
20.391936,11.820237197533949,0.0687796712069785
20.394324,11.837198440070148,0.0682393103304539
20.396708,11.848293149993957,0.0677160775188738
20.399104,11.85431272323829,0.0672124047501436
20.401488,11.858749504616789,0.0667043609571377
20.403868,11.863186285995289,0.0661972013215752
20.406272,11.868554232933564,0.0656864839301955
20.40866,11.866705172819094,0.0652037906396598
20.41104,11.866066817518124,0.0647092518767593
20.413443999999995,11.870735916322095,0.0642146131784343
20.415828,11.867908468819603,0.063754157052307
20.418208,11.857584475010642,0.0633289413715847
20.420608,11.843069288253742,0.0629436635794469
20.422992,11.823059655936786,0.0625858994521988
20.425372,11.800209305112258,0.0622551970888455
20.427772,11.77824289801926,0.0619467497234715
20.43016,11.746358534992796,0.0616884422818029
20.43254,11.715218346071008,0.0614563407613754
20.434944,11.682028834574556,0.0612547069817718
20.437332,11.649583497182782,0.0610796756272245
20.439712,11.61550814609693,0.0609233234430623
20.442108,11.577009284637665,0.0607889298151229
20.444496,11.543026481350427,0.0606519116576115
20.446876,11.510067391421588,0.060534256122106
20.449272,11.477200849291364,0.0604370072322298
20.45166,11.442564523840204,0.0603623757050285
20.454044,11.412024947680491,0.060296781930326
20.456448,11.390005631185645,0.0602178300879783
20.458836,11.37701843103486,0.0601361001545728
20.46122,11.357465850137386,0.0600856788805685
20.463616,11.34829586002433,0.0600208822495105
20.466,11.34243122326981,0.0599631147069564
20.468384,11.3415019535679,0.0598932369229016
20.47078,11.344157576478246,0.0598231255064296
20.473168,11.3517485664412,0.0597410494524853
20.475548,11.359619095657877,0.0596515084546709
20.477944,11.378431294166418,0.0595332967128311
20.480332,11.3965918663689,0.0594082464256148
20.482712,11.410888006705404,0.0592904239122987
20.485108,11.424812059989572,0.0591590169357177
20.487496,11.44152960995308,0.0590253033393174
20.48988,11.463182526969195,0.0588799460133284
20.492276,11.485626839918234,0.0587382573484953
20.494664,11.509701166561348,0.0585774011313495
20.497044,11.53698829876438,0.0584033976664906
20.49944,11.565486135780906,0.0582212374034974
20.501828,11.596125843170713,0.0580315616096849
20.504207999999995,11.622761349067684,0.0578537783621441
20.506624,11.642878696046209,0.0576828149452363
20.509008,11.665557222278592,0.0574917927017167
20.511388,11.679575719219248,0.0573153382175493
20.513792,11.698157496160178,0.0571152886267338
20.516179999999995,11.713666237168054,0.0569250929383677
20.518564,11.732807092616426,0.0567123373836226
20.52096,11.752227487318518,0.0564938244361504
20.523352,11.775931622767162,0.0562595638985458
20.525732,11.795771326349834,0.0560327807239295
20.528128,11.823247345865838,0.055775124067764
20.530515999999995,11.855286645382115,0.0554942565338585
20.5329,11.887186175271534,0.0552178057625947
20.535296,11.91456964698892,0.0549409383311263
20.537683999999995,11.940370326840473,0.0546594481856705
20.540068,11.964867754079906,0.0543662891327196
20.542464,11.98922541169248,0.0540773588535581
20.544851999999995,12.01092934225258,0.0537872650466
20.547232,12.030770941693122,0.053497971297826
20.549627999999995,12.043023447028578,0.053216004364636
20.552016,12.052482455684697,0.0529348792021406
20.5544,12.059799593967538,0.052660890344445
20.556795999999995,12.068839293743078,0.052389990976687
20.559184,12.08295413019809,0.052106409129489
20.561568,12.089851959600352,0.0518434403590318
20.563963999999995,12.100893760122307,0.0515693807275385
20.566352,12.103507848778015,0.0513221683205407
