Time,Force,Position
19.742948,5.904285724498965,0.1751198400566146
19.745336,5.925745962486371,0.1749133171073402
19.74772,5.949162975249819,0.1745692296064307
19.750116,5.97667673730472,0.1741768265498455
19.752504,6.012244228315662,0.1737124272932609
19.754888,6.060196410857441,0.1730165513018131
19.757284,6.120954489668509,0.171890355384492
19.759672,6.179712363591031,0.170669208901507
19.762052,6.223431818930238,0.16976729820172
19.764448,6.266824513187482,0.1689455458739036
19.766836,6.325440721625272,0.1679221257033084
19.769216,6.397652326407401,0.1666096861850998
19.771616,6.466046721151802,0.1653041274350207
19.774,6.521404798059302,0.1642721896794004
19.776384,6.580672632803152,0.1632837230584125
19.77878,6.653301650607992,0.1621503939902505
19.781168,6.734683245503174,0.1608742310359192
19.783564,6.805776693270422,0.1596943127709484
19.78596,6.865371289096236,0.1586556582223019
19.788348,6.916585394884046,0.1577804105122175
19.790728,6.971756480336445,0.1569027248560722
19.793128,7.025577091348486,0.1560769965074824
19.795516,7.078793297882711,0.1552129493058986
19.797896,7.123863227662278,0.1543987640600269
19.800292,7.155757069978088,0.1538151900344267
19.80268,7.180107144159188,0.1534410384777428
19.805064,7.2051541706167175,0.1531504273521471
19.80746,7.228431413753306,0.1529175252373412
19.809848,7.251895648345,0.1526295422054397
19.812228,7.276850127003913,0.1523016649690428
19.814632,7.295239224916134,0.152117953705484
19.81702,7.313720870626973,0.151973399050133
19.8194,7.342911868204196,0.1516245765318669
19.8218,7.370707065370685,0.1512339049041993
19.824188,7.387934576155518,0.1509364729846511
19.826568,7.3937085609692925,0.15081292930103
19.828968,7.3996223154099265,0.1506834326832112
19.831356,7.412286546194485,0.1504876143947902
19.83374,7.429653826606178,0.1501870738379857
19.836132,7.447999494405893,0.1498340530196415
19.83852,7.460199090339498,0.1495933113122158
19.840904,7.476076126683973,0.1493441391381056
19.8433,7.486970574147593,0.1492088584137388
19.845688,7.498097339036691,0.149096710555522
19.848068,7.506849916127033,0.1489981583475088
19.850472,7.518443211724954,0.1488233069291922
19.85286,7.528825802509376,0.1486775007818612
19.85524,7.544003990719549,0.148460361413209
19.857636,7.557459617437027,0.1482578314067265
19.860024,7.562442206317883,0.1481396481095756
19.862408,7.568542952213618,0.1479634007557801
19.864804,7.574224389228775,0.1478120469950339
19.867192,7.574923237363077,0.147776193124086
19.869572,7.580138143669408,0.14768688345907
19.871972,7.58493374109516,0.1476184317371616
19.87436,7.592150748147908,0.1474960066802801
19.87674,7.599460302999275,0.1474059087771174
19.879136,7.61272893826165,0.1472624240129314
19.881528,7.628371761322778,0.1471072911159874
19.883908,7.644154354010764,0.1469461392715383
19.886312,7.654909031847524,0.1468262895325421
19.8887,7.6623583563257505,0.1467333942662473
19.891084,7.681400976401898,0.1464814361312821
19.89348,7.708871308344292,0.1460936667278639
19.895868,7.744117725846877,0.1455644509432486
19.898252,7.773777149990793,0.1451056309565012
19.900648,7.803855883015289,0.1446297308094799
19.90304,7.836867882345979,0.1441204067596387
19.90542,7.880402242087952,0.1434796056484732
19.90782,7.928592429628817,0.1427812268702171
19.910208,7.975991221236764,0.1420959940726522
19.912588,8.015289062060425,0.1414958811129011
19.914984,8.053236428443729,0.1409276614998129
19.917372,8.087691450013399,0.1404250476423235
19.919752,8.122985089344226,0.1398782946752327
19.922148,8.161910843115551,0.1392659246192187
19.924536,8.201023588341979,0.1386178172102812
19.92692,8.230312821291427,0.1380702790336246
19.929316,8.25638924868096,0.1375778713441571
19.9317,8.282093589018153,0.1370722060870528
19.934084,8.3120816701019,0.1364973825924026
19.93648,8.34262882969309,0.1358997450804485
19.938868,8.366797599992692,0.1353754554553267
19.941248,8.382119349545464,0.1349997779522221
19.943644,8.393808984657738,0.134695078095313
19.946032,8.406849094210374,0.1343603065568262
19.948412,8.421239678203369,0.1340001990889199
19.950812,8.431206751822948,0.1337124617319373
19.9532,8.434887983949558,0.1335155429596937
19.955592,8.435775719396833,0.1333468585930573
19.957992,8.430424835179377,0.1332312531372777
19.960376,8.4254932598425,0.13309605597241
19.96276,8.42112076301307,0.1329355460382733
19.965156,8.42317387730347,0.1326803748310162
19.967544,8.430813984952536,0.1323698473216613
19.969924,8.429794063309881,0.132156497692231
19.97232,8.424210861666948,0.1320180715509837
19.974708,8.424586740435025,0.1318392365504617
19.977088,8.423751914389603,0.1316820671268983
19.979488,8.42235800983674,0.1315500773094574
20.022492,8.219590722275418,0.1314872607209611
20.02488,8.211538889177247,0.131424348441643
20.027276,8.20018170272054,0.131379349551452
20.029672,8.187474041823478,0.131362520976479
20.03206,8.181703848725443,0.1312615887462297
20.03444,8.177423899694627,0.1311260090346383
20.036836,8.176216986596867,0.1309501415428015
20.039228,8.179526131671137,0.1307339322469749
20.041608,8.186652486783139,0.1305087223813324
20.044004,8.197643273761111,0.1302389600166702
20.046392,8.203978232940196,0.1300164432807544
20.048776,8.207379925813084,0.1298287613412692
20.051172,8.212224640924946,0.1296414689344869
20.05356,8.222796119022345,0.1293916833432741
20.05594,8.2329955100674,0.129127742160093
20.058336,8.242962583686978,0.1288438376778778
20.060724,8.249856621373505,0.1285996550274519
20.063108,8.264479522791975,0.1282702466711607
20.065504,8.274818683463891,0.1280024233147853
20.067892,8.28422667857603,0.1277442425216692
20.070276,8.298709810367642,0.1274236370362547
20.072676,8.308629662158976,0.1271769606375117
20.07506,8.325299990294239,0.1268910383880749
20.077444,8.345694980668615,0.1265701075940933
20.07984,8.363576013617376,0.126265549299058
20.082228,8.383319377685693,0.1259465356629958
20.084608,8.399710166567235,0.1256791892555236
20.087008,8.417963286568332,0.1253973849799503
20.089392,8.43891735545015,0.1250647117824271
20.091776,8.45828863246613,0.1247370635174215
20.094172,8.481803880601804,0.1243588654821489
20.09656,8.507460999110755,0.1239533614708605
20.098956,8.536330923179625,0.1235084952795706
20.101352,8.562407350569156,0.1230894629627152
20.10374,8.586761216465991,0.1226832968189119
20.106124,8.606831341616273,0.1223341622336956
20.10852,8.629415424192167,0.1219721875492183
20.110908,8.649717866767926,0.1216470229615774
20.113292,8.671091244530324,0.1213060445689872
20.115688,8.691533456732941,0.1209729443342575
20.118076,8.709554259308561,0.1206823860809481
20.12046,8.730368558563516,0.1203674875843913
20.122856,8.748157043713661,0.1200572501584833
20.125244,8.76236063625155,0.1197729791353
20.127628,8.774282588789303,0.1195216446689541
20.130024,8.783271275020862,0.1193009695510676
20.132412,8.794541601252558,0.1190475082494764
20.134796,8.803018430804917,0.1188186130911129
20.137192,8.807211519610721,0.1186443563580837
20.13958,8.814058335469,0.118453604013793
20.141964,8.817552576140505,0.1183090821117095
20.144364,8.820347968677707,0.1181938672258685
20.146752,8.82258428270747,0.1181025041462613
20.149136,8.828545258976346,0.1179822584326198
20.151532,8.832224595245087,0.1178935415659257
20.15392,8.843120938566576,0.1177264684836497
20.156304,8.853784964462589,0.1175388317313474
20.1587,8.861003867373208,0.117368297616528
20.161088,8.870644179910824,0.1171610517264602
20.163472,8.881355427635077,0.1169409573071187
20.165868,8.89062365312035,0.1167184897873524
20.16826,8.90073049636679,0.1164633816574734
20.170636,8.910557800359507,0.1162201436945158
20.173032,8.925040932151116,0.115942652117527
20.17542,8.943528265435562,0.1156262594783662
20.177796,8.960432806854167,0.1153123293180496
20.1802,8.97505570827264,0.1150296309923302
20.182588,8.988467904877613,0.1147649890037053
20.184968,9.002299410363166,0.1144830974726469
20.187364,9.014687893609745,0.1141996804648119
20.189752,9.027355916110045,0.1139045067662186
20.192132,9.03685835487867,0.1136140478714373
20.194536,9.042264044355845,0.1133364309560971
20.19692,9.048368581967315,0.113033561250638
20.1993,9.057825694765564,0.1126882217717012
20.201696,9.057272303831729,0.1124382632297931
20.204084,9.055508208084396,0.1122060188761104
20.206464,9.060541810509232,0.1119167144207396
20.208868,9.064364708120568,0.1116457817382272
20.211252,9.068187605731906,0.1113751092534723
20.213636,9.071870733716386,0.1111096519856765
20.216032,9.074855013566562,0.1108726214979741
20.21842,9.078770458976518,0.1106296439102157
20.220804,9.081242882147496,0.1103845737030907
20.2232,9.080130412706222,0.1101595343471146
20.225584,9.084604936623617,0.109897703706277
20.227968,9.091500870168009,0.1096021618756324
20.230364,9.099235421473562,0.1092740869639007
20.232752,9.109763469458452,0.108928519485793
20.235148,9.12001197818962,0.108594370380452
20.23754,9.1351958539734,0.1082212172563785
20.239928,9.153824852742575,0.1078342036337474
20.242308,9.173757104123862,0.1074561507091698
20.244712,9.18833467957196,0.1071364264395163
20.2471,9.2015617805797,0.1068396770402753
20.24948,9.21958447901319,0.1065057952001921
20.251876,9.239329738939375,0.1061657674770311
20.254264,9.255210566999589,0.1058576265330147
20.256644,9.27216233024644,0.1055394481704737
20.259048,9.291907590172627,0.1052057708090728
20.261436,9.315657051591646,0.1048405614829244
20.263816,9.33768395151797,0.1044820955997409
20.266212,9.3555668803246,0.1041614818610498
20.2686,9.37275096099693,0.1038686377393294
20.27098,9.392309229468012,0.1035745410900644
20.273388,9.402927929393648,0.1033521946432203
20.275772,9.414198255625344,0.1031360930376705
20.278156,9.426352525588577,0.1029457665827776
20.280552,9.435433759618752,0.1027830085377246
20.282936,9.446237555141622,0.1026151217567355
20.285316,9.45275760991794,0.1024906811291891
20.287716,9.459557203947975,0.1023565274860614
20.290104,9.468498668351293,0.1022019474100025
20.292484,9.484237830926771,0.1020011256699016
20.29488,9.503050029435316,0.1017757856665606
20.297268,9.525866429436686,0.1015215025953654
20.299648,9.549753764624697,0.1012586489059864
20.302052,9.573221790932129,0.101011320372624
20.30444,9.597341443545618,0.1007706287471308
20.30682,9.620529930599329,0.100537331188651
20.309216,9.639946533585682,0.1003546211624395
20.311604,9.658943827691456,0.1001863287291529
20.313984,9.684087193663338,0.0999687887237809
20.31638,9.707368228515666,0.0997611564452578
20.318768,9.733862068927907,0.0995261205021305
20.321148,9.765431046019623,0.0992499448851461
20.323548,9.79499792236492,0.0989899489499455
20.325932,9.826706669083496,0.0987119835333188
20.328332,9.863350782854685,0.098402177095208
20.330728,9.897341169573396,0.0981030429157117
20.333116,9.933613196292248,0.0977813127948313
20.335496,9.971607784503792,0.0974580197290379
20.337892,10.00787981122264,0.0971413491940698
20.34028,10.035212269396046,0.0968865542108368
20.34266,10.061613562009672,0.0966391287550007
20.345056,10.084150422757324,0.0964166246333153
20.347444,10.106966822758698,0.0961867261380386
20.349824,10.13099392757357,0.0959435829962351
20.352228,10.152507074962829,0.0957051131836112
20.354616,10.170575099366692,0.0954754810063668
20.356996,10.191903151158714,0.0951914927642603
20.359392,10.217003087018092,0.0948630067644488
20.361784,10.238518130265218,0.094548777096945
20.364164,10.263525518325984,0.0941998122527762
20.36656,10.284296387468434,0.0938604521732468
20.368948,10.3082800621708,0.0934972003572666
20.371332,10.333474441686668,0.0931217719802604
20.373728,10.35429253265736,0.0927584980481005
20.376116,10.370594565456022,0.0924127961865602
20.378496,10.388107303068184,0.0920543884430188
20.380892,10.40296631362787,0.0917044765331781
20.38328,10.415451136388802,0.0913545330605434
20.38566,10.427004793589957,0.0910086803453075
20.388064,10.4451238315378,0.0906080424372409
20.390452,10.457236567246396,0.090243512921776
20.392836,10.46655580627566,0.0898897856982045
20.39524,10.472802009371865,0.0895573523884347
20.397624,10.476394485415597,0.0892318014750315
20.400008,10.480778357392245,0.0889069788821731
20.402404,10.487676186794504,0.0885799854909316
20.404792,10.49015050582335,0.0882909219212611
20.407172,10.491134580784982,0.0880245630595075
20.409568,10.495563778732002,0.0877533889629556
20.411956,10.494778070372693,0.0875180149157849
20.41434,10.48849791645333,0.087326197764521
20.416736,10.476351229921576,0.0871646944837705
20.41912,10.46061965077757,0.0870125013777995
20.421504,10.444096675700644,0.0868586347065694
20.4239,10.4260834565565,0.086725808320652
20.426288,10.406579993345137,0.0866141607977218
20.428668,10.38386372457386,0.086526143752787
20.431064,10.35965721173536,0.0864591277291936
20.433452,10.340246296322611,0.0863695116968263
20.435852,10.319205367215789,0.0863051458035934
20.438248,10.303239574788437,0.0862100144395206
20.440636,10.291929610159976,0.0860975260836355
20.443016,10.282481976651072,0.0859780990658528
20.445412,10.278481566873976,0.0858429366470001
20.4478,10.27341022191024,0.0857154747930621
20.450184,10.265405610640313,0.0856024077695928
20.45258,10.25898379123622,0.0854913407763267
20.454968,10.252422202205263,0.0853848333413726
20.457348,10.239062915002144,0.0853104077649487
20.459744,10.228636894105216,0.085221316928389
20.462132,10.228453694365852,0.0850954425715823
20.464516,10.234369344664358,0.0849598192220014
20.46692,10.245312909814087,0.0848223099933561
20.469308,10.262075785747967,0.0846843183240112
20.471692,10.284844963921095,0.0845140816855314
20.474088,10.3114785739602,0.0843269852781052
20.476476,10.343559407731112,0.0841243726931151
20.478856,10.374289767061663,0.0839373514268887
20.481252,10.397803119339468,0.0837960594663457
20.48364,10.418243435684218,0.0836732304091471
20.486024,10.440406313521663,0.0835495815190635
20.48842,10.46177779542619,0.0834258063005479
20.490808,10.483149277330725,0.0833028042359274
20.493188,10.500935866622994,0.0831890948648679
20.495592,10.522726657408104,0.0830550416963126
20.49798,10.550523750432465,0.0828905972060638
20.500364,10.577808986777624,0.0827163915898118
20.50276,10.605373762376503,0.0825345531698355
20.505148,10.639084609841497,0.0823174086776616
20.507528,10.673866392493128,0.0820940768244808
20.509932,10.70348049066667,0.0818772929957427
20.51232,10.72964946585482,0.0816650453850278
20.5147,10.751302382870936,0.0814634924317088
20.517096,10.7688585505956,0.0812603087609285
20.519484,10.782690056081154,0.0810699606261128
20.521864,10.794426913021674,0.0808681280803079
20.52426,10.805651913282995,0.080657319985344
20.526648,10.821719732798314,0.080402262636559
20.529028,10.840208961940624,0.0801240010773468
20.531432,10.861259370336798,0.0798189097753066
20.533824,10.877933490187798,0.0795201831219015
20.536204,10.893676444479018,0.0792250869592227
20.5386,10.904623801344488,0.0789471644944202
20.540988,10.910775560784206,0.0786860714394574
20.543372,10.91534452835809,0.0784233596609158
20.545768,10.916188833692855,0.0781724492581229
20.548156,10.919966405333822,0.0779101198870275
20.550536,10.920159084362536,0.0776537565529008
20.552936,10.918489432271688,0.0774031413114543
20.55532,10.91910142018098,0.0771363417452189
20.5577,10.923997148836824,0.0768443143306889
20.560104,10.927310085626836,0.0765487441379123
20.562488,10.937188403163535,0.0762114130463051
20.564868,10.950559065513874,0.0758479855567264
20.567272,10.962067396744654,0.0754890871289608
20.56966,10.970362922415518,0.0751490516427195
20.57204,10.979077756966962,0.0747981541329751
20.574436,10.986721656331769,0.0744552491352733
20.576828,10.995576260510074,0.0741024032224197
20.579208,11.006572735061656,0.0737386895504694
20.581604,11.021433641479211,0.0733633600531083
20.583992,11.035503151963852,0.0729864804262897
20.586372,11.054927338381685,0.0725789745531229
20.588776,11.08208038853146,0.072147011078434
20.591164,11.107091568307965,0.0717282966086533
20.593544,11.12809854659163,0.0713249100718203
20.59594,11.14631202819596,0.0709288579979793
20.598328,11.169181337599184,0.0705235749928001
20.600708,11.189117380696214,0.0701278942729295
20.603112,11.201696647113632,0.0697698970948146
20.6055,11.210923338344276,0.0694352085249488
20.60788,11.222012360694476,0.0690968300815807
20.61028,11.226675771924844,0.0687943438114654
20.612668,11.227567299087855,0.0685253979751946
20.615048,11.229389991810647,0.0682542391121286
20.617444,11.236008281959188,0.0679705280012399
20.619832,11.241555636921095,0.0676933184493063
20.622212,11.247102991882995,0.0674171254501338
20.624612,11.25237080759118,0.0671491402833485
20.627,11.254565587366304,0.0668944205248508
20.62938,11.253687331208376,0.0666526327117787
20.631776,11.25374024061023,0.0664093285516101
20.634164,11.250720114079025,0.0661783409473127
20.636544,11.247048361241765,0.0659422660026766
20.638952,11.244587313218,0.0656970569548134
20.64134,11.247201401873708,0.0654328423678747
20.64372,11.249024094596498,0.065165904144325
20.64612,11.249124225826591,0.0648986664455186
20.648508,11.25308878892266,0.0646220442048395
20.650888,11.26254779757878,0.0643154506309079
20.653284,11.269073539928709,0.0640161998592267
20.655672,11.275739051905491,0.0637136663726449
20.658056,11.283615268695778,0.0634018053265405
20.660452,11.291910794366643,0.0630782741749479
20.66284,11.303558895224285,0.0627367723826024
20.66522,11.312413499402584,0.0623998252185116
20.667616,11.320848794700307,0.0620747508793933
20.670004,11.32621105406498,0.061760983208729
20.672384,11.332784018243148,0.0614392539165228
20.674784,11.33721511204804,0.0611266023081279
20.677172,11.340435501039432,0.0608220610810775
20.679552,11.341653789284408,0.0605233095092357
20.681952,11.345665574208718,0.060221456413119
20.684336,11.344602222453556,0.0599363104537942
20.68672,11.342328165884895,0.0596597413695621
20.68912,11.339914339689376,0.0593876231116073
20.691508,11.338803766105974,0.0591283405732978
20.693892,11.334340617335792,0.058886480876824
20.696296,11.33201933893889,0.0586362552049438
20.698684,11.3322120179676,0.058392107742215
20.701064,11.339621704049062,0.0581240224602902
20.703472,11.3467518508768,0.0578637916458684
20.70586,11.35360245845082,0.0576108575767289
20.70824,11.362315397144396,0.0573567981125143
20.710636,11.369538091770757,0.0571194060190939
20.713024,11.379554283076445,0.0568804817115697
20.715404,11.38770814326258,0.0566428119940369
20.7178,11.39851573050119,0.0564068125931254
20.720188,11.407181447366522,0.0561799705836522
20.722568,11.420642761657607,0.0559462929727705
20.724964,11.438387816695244,0.0556958837461544
20.727352,11.45999730359886,0.0554399659750594
20.729732,11.48146702087561,0.0551888150159473
20.732132,11.5045195300182,0.0549433161849191
20.73452,11.527432269533929,0.0547015573368225
20.7369,11.54806336904952,0.0544723482414396
20.739304,11.570976108565247,0.0542320194966455
20.741692,11.595890948827392,0.0539864604781452
20.744072,11.616522048342985,0.0537587381714201
20.746468,11.629424284126626,0.053542729427939
20.748856,11.63469020397694,0.0533594733286534
20.75124,11.639816354200397,0.0531800177473596
20.753636,11.646804835543406,0.0529998321434792
20.756024,11.653793316886418,0.0528202889038624
20.758408,11.655846431176816,0.0526496970988294
20.760804,11.65375557434752,0.0524915732577941
20.763192,11.65445821419756,0.0523322387833694
20.765572,11.65530062367446,0.0521696866441889
20.767972,11.659867695390474,0.0520061505213223
20.77036,11.66164127042715,0.0518439284601251
20.772744,11.660341809530772,0.051690047336524
20.77514,11.653827442328064,0.0515517613328871
20.777528,11.645031435125215,0.0514246757404606
20.779912,11.637306363109008,0.051293633406509
20.782308,11.631443622212355,0.0511620360207967
20.7847,11.625860420569424,0.0510231257900237
20.78708,11.62106861485941,0.0508880590406307
