Time,Force,Position
22.05608,5.584698269366641,0.1750203168594026
22.058464,5.856409550890452,0.171581247343718
22.060844,6.093813163902934,0.1690688228722913
22.06324,6.303612362919766,0.1671521442161003
22.065628,6.497585539136106,0.1653753351412581
22.068008,6.672939195872619,0.1638925128477296
22.070412,6.83442360458468,0.1623614514803421
22.0728,6.976079684861285,0.1608785615328839
22.07518,7.084357366328469,0.1598857854405259
22.120588,7.298742421021529,0.15963054767646
22.122976,7.31675753602354,0.1595288632701684
22.125356,7.326905913524616,0.1594531246254089
22.127752,7.333748937667158,0.1594115084566445
22.130136,7.3457596462877905,0.1593109490250827
22.13252,7.360004773080314,0.1591994587821769
22.134916,7.372806877633864,0.1590909907696102
22.137304,7.3864003781203325,0.1589759605803335
22.139684,7.408886225324003,0.1587521174124869
22.142088,7.437144161483578,0.1585130435267484
22.144476,7.473223509173717,0.1581862257287384
22.146856,7.5139586846627475,0.1577946970660064
22.149252,7.553018520487324,0.1573838302418961
22.15164,7.593336282953643,0.1569174150721818
22.154024,7.633281958367625,0.1564427180574966
22.156428,7.676859748222102,0.1558905874639824
22.158812,7.718482659158406,0.1553315349817963
22.161192,7.756195812258363,0.1547662735040089
22.163588,7.8007538853587315,0.1540645550067065
22.165972,7.849316159951933,0.153312314905237
22.168352,7.895037716037557,0.1526409842431769
22.170748,7.94127112880238,0.1519786428240556
22.173136,7.989459420485375,0.151321130155156
22.175532,8.032852114742619,0.1507272633963013
22.177928,8.07116967232039,0.1502210132875232
22.180316,8.112140956950638,0.149690153851257
22.182692,8.158559465312694,0.1490931505117883
22.185092,8.204373569196937,0.1484600455969802
22.187476,8.234125541139468,0.1480137760640407
22.18986,8.261178460059153,0.147538626457252
22.192256,8.27999065856769,0.1471632468661614
22.19464,8.290701906291947,0.1468779479661398
22.197036,8.299970131777224,0.1465950186061418
22.199432,8.303791133530693,0.1463771832069708
22.20182,8.305749804164606,0.146183429621426
22.2042,8.30365705147744,0.1460841788479543
22.206596,8.306312674387785,0.1459573306617396
22.208984,8.311342485096883,0.1458172321585468
22.211364,8.31292717282059,0.1457098449846871
22.21376,8.310507659051462,0.1456597204613237
22.216148,8.311021411588527,0.1455711182999056
22.21854,8.31297818636457,0.1454806335154306
22.220932,8.313771478155358,0.1453791839821072
22.22332,8.323411790692974,0.1451288812831355
22.225696,8.335892821738168,0.1448134466720032
22.2281,8.34385779461133,0.144545020727187
22.230488,8.351822767484494,0.1442785763420377
22.232864,8.359508201103935,0.1440254500678747
22.23526,8.375202037709045,0.1436627318194134
22.237644,8.388194925433439,0.1433609008617338
22.24004,8.408497368009197,0.1429837856588463
22.242436,8.442627524354767,0.1424634214270707
22.24482,8.482065134805291,0.1418982034364431
22.247204,8.518849018203337,0.1413550672054319
22.249608,8.555772671228244,0.1408087648602146
22.251992,8.60019287055962,0.140154219628439
22.254372,8.643170047652022,0.1395061166575562
22.256768,8.686985842505585,0.1388289778281051
22.259156,8.725773722507919,0.138186464960606
22.261536,8.760325083591942,0.1375740192145311
22.26394,8.79115178243685,0.1370028970137491
22.266324,8.825191286841678,0.1363905761896184
22.268704,8.857228690500085,0.1358010730905539
22.271108,8.882980252665522,0.1353044651872814
22.273496,8.903516908524628,0.1348792504419589
22.275876,8.927079378488543,0.1344466305752287
22.278272,8.949291374012102,0.1340438099962846
22.28066,8.974576405468715,0.1336045931776658
22.283052,8.996928170619134,0.133201189078611
22.285448,9.016486439090215,0.1328233894354622
22.287836,9.033763067561162,0.132485027066334
22.345172,8.859391589928414,0.1323961178786477
22.347552,8.861765777727168,0.1323874074268009
22.349948,8.864559274406503,0.1323611657427041
22.352336,8.86563020959314,0.1323463782753853
22.354732,8.868703245526195,0.1323079262082364
22.357136,8.874197691086248,0.1322284533070691
22.359524,8.878808192914766,0.1321258478681737
22.361904,8.887842205116696,0.1319598995490588
22.364308,8.901532045117522,0.131752464760408
22.366692,8.918387468850018,0.1315343929559098
22.369076,8.934451496649597,0.1313207675719979
22.371472,8.951446690008952,0.1311004035827609
22.37386,8.97295794154034,0.130844290714333
22.37624,8.997774546430263,0.1305705311519248
22.378632,9.024313712812878,0.13028441291588
22.38102,9.047687295463822,0.1300099492256323
22.3834,9.072039265502788,0.1296970952339493
22.385796,9.091595638116,0.1294309178255566
22.388184,9.112130398117234,0.1291258371912398
22.390564,9.130430739946574,0.1288241391843121
22.39296,9.157066245843549,0.1283939693945691
22.395344,9.181607103195487,0.1279616119261075
22.39774,9.202935154987513,0.1275710603674786
22.400136,9.228779264951564,0.1271438694619049
22.402524,9.255694310102257,0.1267051122850551
22.404904,9.281026563387114,0.1262747290081561
22.407308,9.304077176671834,0.1258782903545986
22.409696,9.320702178836722,0.1255640139452274
22.412076,9.332903670628196,0.1253111093402474
22.41448,9.344453536113612,0.1250559340856978
22.416868,9.353489444173412,0.1248135275848221
22.419248,9.3588006899941,0.1246024664834432
22.421644,9.363320539881869,0.1243946219174566
22.424032,9.3679801593965,0.1241813106851255
22.426412,9.376271893351628,0.123913232529272
22.428808,9.383772231373836,0.1236466870178389
22.431196,9.389782325328824,0.1234106299906728
22.433576,9.401519182269343,0.1231234543305301
22.435972,9.411486255888924,0.122877526089632
22.43836,9.42252426469514,0.1226194670605082
22.44074,9.423132460888697,0.1224801788457052
22.443148,9.425323448948085,0.1223373118262904
22.445532,9.431099329619729,0.1221706617823232
22.447916,9.441158951037924,0.1219551337343885
22.450312,9.451917420590425,0.1217146162304054
22.4527,9.462815659769776,0.1214700647663668
22.45508,9.477857870068831,0.1211827938439625
22.457476,9.496112885927795,0.1208574543721139
22.459864,9.51348395805523,0.1205083822977558
22.462244,9.529412007943687,0.1201580650144557
22.464652,9.543337957085726,0.1198257365977929
22.467036,9.561779964399795,0.1194645541434723
22.46942,9.578871497273507,0.1191272656745602
22.471816,9.597033965333855,0.1187786132088331
22.474204,9.610912692647654,0.1184804482897515
22.476584,9.625163507013788,0.1181956822602277
22.478976,9.638203616566424,0.117928290101205
22.481364,9.65031256055928,0.1176692286157637
22.483744,9.66111825194002,0.1174022162467208
22.486136,9.670853008134122,0.1171481082037057
22.488524,9.684452196194195,0.1168601360644927
22.490916,9.696840679440776,0.1165903988801441
22.49332,9.704061478209264,0.1163452846500023
22.495708,9.701411542872528,0.1161894893555574
22.498088,9.694338097162376,0.1160871054935252
22.500492,9.68498301145209,0.1160138348731044
22.502876,9.670692558689192,0.1159841468127641
22.505256,9.659754681113064,0.1159130352511026
22.507652,9.64904912096242,0.1158612934337463
22.51004,9.636853316744554,0.1158370081485937
22.51242,9.632665915512357,0.1157390365699587
22.514824,9.625312930548484,0.1156462211158517
22.517212,9.620521124838472,0.1155145875922346
22.519592,9.61307559207598,0.1153968468787004
22.521988,9.606840764126993,0.1152621915218568
22.524376,9.605448755431995,0.1150609984630364
22.526756,9.6047555948713,0.1148337057369482
22.52916,9.603550577631411,0.1145976483388019
22.531544,9.605418596324576,0.1143325840803389
22.533928,9.6074263846446,0.114062621455574
22.536332,9.609573942591483,0.1137876731019069
22.538716,9.612001039792093,0.1135026718638426
22.541096,9.620946295911146,0.1131746546481301
22.543492,9.63603762389631,0.1127878721931569
22.54588,9.652060117441252,0.1123937470113099
22.54826,9.667151445426414,0.1120046885757963
22.550656,9.683173938971358,0.111608513400717
22.55304,9.696775022889303,0.1112483168683536
22.555436,9.713868451620884,0.1108451614322272
22.557832,9.733523059606323,0.1104038313966407
22.560216,9.744377868673176,0.1100340593240755
22.5626,9.75374243367281,0.1096902571686296
22.564996,9.759894193112528,0.109380856080104
22.56738,9.76977061479136,0.1090480924451169
22.56976,9.778715870910412,0.1087214825362992
22.572168,9.78295807740233,0.1084553117586573
22.574552,9.790505637252782,0.1081820774694605
22.576932,9.795492017849377,0.107945544728592
22.579336,9.796986053632333,0.1077517093344097
22.581724,9.798480089415287,0.1075580870834411
22.584104,9.800113894825106,0.1073595958711244
22.5865,9.80281863542156,0.1071508622396987
22.588888,9.802729879338685,0.1069598362090383
22.591268,9.80063902250939,0.1067851168602432
22.593672,9.797896539374037,0.1066055516648958
22.596056,9.79729592661196,0.1064045586568229
22.59844,9.796695313849876,0.1062032922653695
22.600836,9.791019564408328,0.1060445588056438
22.603224,9.78385357089956,0.1059116997292419
22.605608,9.779992930749325,0.1057721876210129
22.608,9.78092788802484,0.1056000902618642
22.610388,9.784656341979687,0.1054115192957017
22.612772,9.788384795934538,0.1052227318541423
22.615168,9.789040213956335,0.105060552248965
22.617556,9.789416092724409,0.1049081357314116
22.619936,9.789791971492486,0.1047554247161645
22.622332,9.78537225283481,0.1046349786138959
22.62472,9.78244277824435,0.1044888262931166
22.627104,9.781655174027168,0.104321565707936
22.629508,9.783661066489325,0.104138788058873
22.631892,9.781662757458644,0.1039869522827637
22.634276,9.77510116842769,0.1038864844771257
22.63668,9.769330975329654,0.103785617706432
22.639064,9.765283343724311,0.1036790049221091
22.641444,9.76789364066428,0.1035308089174133
22.64384,9.77036416797739,0.1033877374047403
22.646228,9.775628191969837,0.1032293367591415
22.648608,9.783173855962415,0.103044472919369
22.651012,9.787926023275665,0.1028752940389585
22.6534,9.78802236279002,0.1027328867616029
22.65578,9.789049867864154,0.102585868521199
22.658184,9.79063645144573,0.1024196550444196
22.660568,9.791943495773582,0.1022630093431283
22.662952,9.795532180101572,0.1020816303558093
22.665348,9.800983195549122,0.101890213929646
22.667732,9.809926555810309,0.1016597122867694
22.670112,9.821942952004548,0.101404408337323
22.672516,9.83633353599754,0.101149587355697
22.6749,9.855519717416287,0.10086742957411
22.677284,9.86991030140928,0.1006155277081433
22.679688,9.891098583574443,0.1003199871955457
22.682072,9.917501772045936,0.0999802595822123
22.684456,9.94511566533093,0.0996284433706693
22.686852,9.97394026342942,0.0992647201069908
22.68924,9.995827393728884,0.0989507134812945
22.691624,10.01999616402849,0.0986149209970121
22.69402,10.041650976902476,0.0982848884026271
22.696404,10.069312092015714,0.0979150657905682
22.698784,10.101117178248646,0.0975137554611798
22.701184,10.1302685374291,0.0971198756950345
22.703568,10.155275925489864,0.0967589953041536
22.705952,10.18079517022982,0.0964102528372949
22.708348,10.207804659037,0.0960384163623317
22.710736,10.232392738217182,0.0956950337134403
22.713132,10.256468960718164,0.0953432225644636
22.715528,10.27933447840565,0.0950076587960703
22.717912,10.300058125719858,0.0946907053857341
22.720292,10.321061312287789,0.0943665269944027
22.722688,10.335406570310408,0.0940784747455156
22.725076,10.351474389825723,0.0937862391214408
22.727456,10.365819647848344,0.0934998564063456
22.729856,10.378721883631988,0.0932093441393773
22.73224,10.387200609042218,0.0929584163225643
22.734636,10.39339769445231,0.0927301672386985
22.73704,10.402528046168596,0.0924851189354631
22.739428,10.409097218631024,0.0922717022802672
22.741808,10.418040578892208,0.0920603978029283
22.744212,10.423631363966615,0.0918803999244789
22.7466,10.427871674600668,0.0917185118155217
22.74898,10.437279669712808,0.0915465576880701
22.751376,10.448969304825082,0.0913531627245158
22.753764,10.454932176951829,0.0911873951134398
22.756144,10.460615509824851,0.0910308937182228
22.75854,10.469651417884656,0.0908453022964571
22.760928,10.481341052996934,0.0906538459931062
22.763308,10.49181998329571,0.0904755626703602
22.765704,10.505371949527545,0.090277650144382
22.768092,10.514128318333624,0.090102980591516
22.770472,10.523815852699483,0.0899242717622036
22.772868,10.535785027065478,0.0897255923959783
22.775256,10.546263957364255,0.0895487979247017
22.77764,10.558046140275149,0.0893831727099453
22.780036,10.573460437626538,0.0891803480284149
22.782424,10.589805900537703,0.0889743343336172
22.784808,10.606291133075732,0.0887648787093084
22.787204,10.619982868934423,0.0885654612735874
22.789592,10.632091812927284,0.0883651540545969
22.791972,10.643409360987222,0.0881644481597686
22.794372,10.653283886808184,0.0879580148215163
22.796756,10.664648656696365,0.0877320563526156
22.799136,10.678946692890742,0.0874927373045082
22.80154,10.699902657630426,0.0872251895647751
22.803928,10.72407142793003,0.0869363216467725
22.806308,10.744096227109935,0.0866744423075444
22.808712,10.759185659237229,0.0864385240377168
22.8111,10.773763234685328,0.0861932419665495
22.81348,10.787549414200509,0.0859483441975616
22.815876,10.80613119114144,0.0856831060080494
22.818264,10.826994608082506,0.0853993825347335
22.820644,10.842643118717245,0.0851489389960109
22.82304,10.85871093823256,0.0848859990351045
22.825428,10.8733357355089,0.0846176849261569
22.827808,10.882605856852049,0.0843860722235693
22.830204,10.89029318632936,0.0841525153759161
22.832592,10.89704935024689,0.0839226543737868
22.834984,10.910091355657396,0.083653356625463
22.83738,10.92178288662754,0.0833998321212377
22.839768,10.933614187224546,0.0831424718824669
22.842148,10.946888510060528,0.0828920760968647
22.844552,10.95429630028412,0.0826687460975562
22.84694,10.960493385694212,0.0824581585102205
22.84932,10.964036744051832,0.082253046939564
22.851716,10.964227527222672,0.0820740194070049
22.8541,10.966699950393654,0.0818765677766759
22.856484,10.972385179124547,0.0816580353593407
22.858888,10.982586466027472,0.0814304146659962
22.861272,10.99064588255712,0.0812170742358052
22.863652,10.99670319834035,0.0810140962606555
22.866048,11.00313260117592,0.0808256103726676
22.868436,11.01491667994468,0.0806030521589586
22.870816,11.027771693900084,0.0803744221575108
22.873212,11.040486938228629,0.0801504028559139
22.8756,11.061350355169695,0.0798851185778331
22.877996,11.082074002483903,0.0796239172502533
22.880392,11.102797649798111,0.0793633684850668
22.88278,11.121239657112184,0.0791219533499259
22.88516,11.14117190849347,0.0788619141131092
22.887556,11.160172994314983,0.0786047967720585
22.88994,11.175868726777962,0.0783457021002659
22.892324,11.196639595920413,0.0780622266062571
22.894716,11.210892306144416,0.0777959926143987
22.897104,11.226355721181918,0.0775201275030023
22.8995,11.24302984103292,0.0772343553976524
22.901896,11.2594244216302,0.0769572115661562
22.904284,11.276610398160395,0.076683117696289
22.906664,11.29114264763812,0.0764141092606243
22.90906,11.306466293048762,0.076146730310318
22.911448,11.32286087364604,0.0758737299646668
22.913828,11.333668460884653,0.0756143980238179
22.916224,11.342054638496265,0.0753764318347303
22.918612,11.34936988092124,0.075145319643623
22.920992,11.353612087413156,0.0749285427612435
22.923388,11.35464148834516,0.0747314778797837
22.925776,11.35781275965044,0.0745223075545703
22.92816,11.358702390955584,0.0743291018057857
22.930556,11.358940395954669,0.0741305398695234
22.932944,11.360900962446449,0.0739321038454873
22.93534,11.363652924871149,0.0737354379035978
22.937732,11.372643506960577,0.0735321881384741
22.94012,11.380143844982786,0.0733474428603816
22.942504,11.39630421229672,0.0731364942377258
22.9449,11.40790129961038,0.0729570189569735
22.947288,11.41763605580448,0.0727819794437289
22.949668,11.428162207931502,0.0726091186104672
22.952064,11.43389276263277,0.0724502852770903
22.954452,11.436410511774122,0.0723090974522568
22.956832,11.439347569796055,0.0721564346182508
22.959228,11.440562066325292,0.0720040097474561
22.961616,11.44792263472064,0.0718244003851281
22.964012,11.456633677556344,0.07163170095522
22.966408,11.465344720392052,0.0714393179656286
22.968796,11.476849259907096,0.0712408256146341
22.971176,11.4867710075563,0.0710387685095173
22.973576,11.495621820018869,0.0708429925010464
22.975964,11.511038013228127,0.0706101778894708
22.978344,11.526593976064246,0.070374257539343
22.98074,11.542569247780945,0.070128511681897
22.983128,11.5611056987515,0.0698615743132926
22.985512,11.5784786667368,0.0695814716700932
22.987916,11.593477446923352,0.069295291128345
22.9903,11.604611795243924,0.0690209369120965
22.992684,11.624453394684464,0.0687011705432096
22.99508,11.647507799684924,0.068366717255631
22.997468,11.67354269281982,0.0680019305842972
22.999848,11.70279039151463,0.067621379731657
23.002244,11.732736938343743,0.0672219087101817
23.004632,11.7608211540533,0.0668258541166477
23.007012,11.789836535322635,0.0664290618187951
23.009408,11.819922851778609,0.0660304195801337
23.011796,11.85014893786144,0.0656300755486268
23.01418,11.882656663944411,0.06521801467221
23.016576,11.917865338908095,0.0647833599623367
23.018964,11.953074013871788,0.064349215081768
23.021344,11.990564328835616,0.0639037971163222
23.02374,12.021908571933327,0.0634827696846333
23.026128,12.05111094465777,0.06307184754481
23.028512,12.074167245516096,0.0626829895040959
23.030908,12.09172910081437,0.0623222378771478
23.033296,12.10407604980631,0.0619822747449671
23.03568,12.119216495477586,0.0616392548058197
23.038072,12.131703214096389,0.0612957476053924
23.04046,12.13576222084894,0.0609872032964699
23.042856,12.13432678204144,0.0607054736567344
23.045252,12.129119459166583,0.0604526808900062
23.04764,12.126565863344204,0.0602011378235467
23.050024,12.12917995199991,0.059954940553939
23.05242,12.134447767708096,0.0597094731384377
23.054808,12.1392962745357,0.0594747854071972
23.057188,12.133854738377496,0.0592735367163245
23.059584,12.12506062703252,0.0590890141785606
23.061972,12.113845106060545,0.0589205506890464
23.064352,12.099277009901796,0.0587686532139816
23.066748,12.08722287116866,0.0586211919122534
23.069136,12.06888289094255,0.0584957928014278
23.07152,12.053336407395776,0.058367664262161
23.073916,12.039372715714842,0.0582446354698396
23.076304,12.030204621459657,0.0581137853895548
23.0787,12.02783422537664,0.0579705707554884
23.081096,12.02797778671924,0.0578317588358573
23.083484,12.028121348061838,0.0576932919379569
23.085864,12.032641197949609,0.057558138954898
23.08826,12.040234083770432,0.0574136346602792
23.090648,12.054252580711088,0.0572442115581432
23.093032,12.069342012838383,0.0570710544778743
23.095428,12.080427243472844,0.0569081906083289
23.097816,12.087787811868193,0.0567487599259054
23.100196,12.095148380263542,0.0565898141470948
23.102592,12.103859423099252,0.0564202619038046
23.104984,12.124583070413458,0.0562226363349129
23.107364,12.147448588100945,0.0560169181493409
23.109764,12.171245271348209,0.0558111245620396
23.112152,12.197835451274807,0.0556043051483379
23.114532,12.22098050821601,0.0553934757025979
23.116928,12.24812976665005,0.0551732328573673
23.119316,12.273416693964531,0.0549546776802924
23.121696,12.302847592398708,0.0547249743546023
23.1241,12.330276390086471,0.0545002414241244
23.126488,12.351047259228922,0.0542830676965671
23.128868,12.37302883318487,0.0540591202390941
23.131264,12.392728767140683,0.0538467177588386
23.133648,12.40963520441716,0.053636170323438
23.136032,12.426541641693635,0.0534260442231194
23.138428,12.435811763036789,0.0532460906092523
23.140812,12.4410776828871,0.0530744863028754
23.143212,12.446064063483696,0.0529094566993098
23.145608,12.447697868893512,0.0527589129553862
23.147992,12.446398407997131,0.0526129496340247
23.150372,12.443888242287256,0.0524743221485064
23.152772,12.43537177433813,0.0523484410213382
23.155156,12.426855306389,0.0522225061552905
23.15754,12.413822780267845,0.0520945510388311
23.159936,12.396786052653852,0.0519745302145861
23.16232,12.380121412092198,0.0518672771443057
23.1647,12.364248167463462,0.0517629951678374
23.167108,12.348886779513926,0.0516683360867837
23.169492,12.32579652783244,0.0515824313306619
