Time,Force,Position
22.009236,6.85943372529034,0.1609044522174506
22.011632,6.869115572082592,0.1608982290390834
22.01402,6.893928385256774,0.1607004541166626
22.016404,6.92875170216304,0.1603196121059075
22.0188,6.975774615002912,0.1596671304417241
22.021184,7.0368594548959456,0.1587334592272087
22.023564,7.099434538856196,0.1577780712386812
22.02596,7.149485161658748,0.1570302148737056
22.028348,7.192039238154829,0.1564281073260464
22.030728,7.23990076875586,0.1557495873490677
22.033124,7.288134386409228,0.1550789345560121
22.035512,7.3321768111146595,0.1545309359292091
22.037908,7.393352302948439,0.1537571290008945
22.040304,7.465654559671317,0.1528451487200888
22.042688,7.537537507513615,0.1519569376422208
22.045068,7.6018313612508255,0.1511990325056916
22.047464,7.665473588681978,0.1504539599158887
22.049852,7.722225570142343,0.1497930352934328
22.052236,7.769713117833169,0.1492319089970902
22.054628,7.803280403955565,0.1488359173539481
22.078524,7.872779684709761,0.1485668968152628
22.080904,7.881809905195958,0.1485652736679974
22.088072,7.901081050981847,0.1485367964651879
22.090468,7.903222921355124,0.148500175901301
22.092856,7.904900156877447,0.1484180070240062
22.09524,7.9029924997875165,0.1483752520804715
22.097636,7.909465332735591,0.1482308124988196
22.10002,7.925901447587507,0.1479780605038763
22.10242,7.945503146171094,0.1477043388866117
22.104816,7.966128558113078,0.1474497914846187
22.107204,7.994063524906427,0.1471139427946515
22.109584,8.027725254685308,0.1467098879323844
22.111984,8.068324452263218,0.1462201637759765
22.114368,8.108923649841126,0.145729896893267
22.116748,8.152223796299754,0.1451726284155717
22.119144,8.196222790892683,0.1445789257503187
22.121536,8.237615280261378,0.14398421075099
22.123916,8.281289409630212,0.1433518782685232
22.12632,8.323288199334593,0.1426982341673441
22.128708,8.360119304560884,0.1420940546830856
22.131088,8.39280643866748,0.1415560842275055
22.133484,8.430009630946106,0.1409707175411732
22.135872,8.465443039903796,0.1404445186668792
22.138252,8.503762493339437,0.139918306791568
22.140652,8.543105660133472,0.1394093672399869
22.143036,8.58696488509954,0.138859452763434
22.14542,8.626400599692195,0.1383914582601094
22.147816,8.658247220179762,0.1380158760591723
22.150204,8.69107222805535,0.1375964112368896
22.152584,8.71821769477365,0.1372064838568507
22.154984,8.741126642573638,0.1368518113220102
22.157372,8.760171158507656,0.1365470993265538
22.159752,8.767901918097472,0.1363656003850912
22.162148,8.776191756194729,0.1361598125675354
22.16454,8.788485795784819,0.1359055963837525
22.16692,8.803713101681105,0.1356184642355581
22.169316,8.821314595376144,0.1353251814177118
22.171704,8.837845153884546,0.1350492257485178
22.174088,8.85246615944515,0.1348223109729981
22.176484,8.868250647991008,0.1346067533294543
22.178872,8.885106071723504,0.1343759775585289
22.181256,8.901729178030523,0.1341263396072915
22.183652,8.913603908740033,0.1338960498055413
22.18604,8.918588393478759,0.1337135692074759
22.188436,8.921990086351647,0.1335368023085953
22.190832,8.919153159559807,0.1334120131251218
22.19322,8.915711828290151,0.1332520786730252
22.1956,8.914971445901212,0.133038776089772
22.198,8.907945222019306,0.1329078427750493
22.200384,8.904736208175128,0.1327671736638755
22.202764,8.899897180636872,0.1326657898667551
22.20516,8.895477461979198,0.1325466547323652
22.219504,8.822117541074768,0.1324736169921544
22.221888,8.806663605326614,0.1324544408333899
22.224268,8.79013873439182,0.1324506288364734
22.226672,8.77775783457672,0.1323926602466308
22.22906,8.765004847709282,0.1323190365972721
22.23144,8.749690681587985,0.1322926008158666
22.233844,8.739124891064199,0.1322491609733171
22.236232,8.733726785018503,0.1321704971685646
22.238612,8.7300512404655,0.1320800042367408
22.243396,8.714784296172448,0.1320199468274597
22.245776,8.71865062389629,0.1318861160837825
22.248176,8.726940461993548,0.1316885450565633
22.250564,8.73914195378502,0.1314186651541312
22.252944,8.745616682590965,0.1312063511620929
22.25534,8.75088070658341,0.1310129746655755
22.257728,8.754794256135497,0.1308460387596014
22.260108,8.765412956061132,0.1305779103567991
22.262508,8.776730504121073,0.1302802397931795
22.264896,8.786697577740652,0.1300081175551705
22.267276000000003,8.799271156584462,0.1297487028659411
22.269672,8.811145887293971,0.1295218436131471
22.27206,8.827583898003757,0.1292258069193688
22.27444,8.838434915354872,0.1289834167124363
22.276836,8.846724753452127,0.1287881507682295
22.279224,8.862324146400752,0.1285303343203808
22.281608,8.882347049722792,0.1282116626240937
22.284004,8.898692512633959,0.1278959188576293
22.286388,8.91601636293315,0.1275401636144554
22.288788,8.930267177299282,0.1272191901480817
22.291184,8.945169617971473,0.126900151773577
22.293572,8.953553899725218,0.1266429463136262
22.295952,8.95756189293379,0.1264164509794548
22.298348,8.955843123156832,0.1262446354969799
22.30074,8.959711346738544,0.1260240446999574
22.30312,8.97209982998512,0.1257256637459477
22.305516,8.98984298916489,0.1253602801016098
22.307904,9.00758614834466,0.1249980329616618
22.310288,9.024909998643848,0.1246536968611829
22.312684,9.048752007861484,0.1242558483014054
22.315068,9.07408426114634,0.1238298719221519
22.317452,9.093597203647052,0.1234298515155864
22.319848,9.108454318348867,0.1230701944367672
22.322236,9.123451202677549,0.1227046495415226
22.32462,9.138587856633087,0.1223329041342092
22.327016,9.15749639465598,0.1219052362741183
22.329404,9.170398630439625,0.1215408202898482
22.331784,9.182602018088966,0.1212039011541155
22.33418,9.195968888723566,0.1208817046560963
22.336568,9.214922752716834,0.1205147651950498
22.338952,9.23643779596396,0.120105960574599
22.341352,9.256462595143866,0.1197264644080875
22.34374,9.279932517309163,0.1193310466618741
22.34612,9.306707792833,0.1189224852150448
22.348516,9.332551902797052,0.1185238918639068
22.350904,9.354159493842795,0.1181488935624825
22.3533,9.36990055227615,0.1178290725165664
22.355696,9.383499740336228,0.117535430269194
22.358084,9.400171964329356,0.1172119800402543
22.360464,9.41018625977718,0.1169428290923468
22.362872,9.417127519291949,0.1167055874185605
22.365256,9.430307398471442,0.1164316349491127
22.36764,9.446652861382608,0.1161524417924983
22.370036,9.464441346532752,0.115876172450164
22.372424,9.483021227615811,0.115598522004361
22.374804,9.493173396832628,0.1154139270778663
22.3772,9.505979293101918,0.1152145037474857
22.379588,9.52185822530426,0.1149850476490183
22.381968,9.538016696760325,0.1147468624957009
22.384372,9.551661210790773,0.1145185571307859
22.38676,9.565165955194365,0.1142968796115008
22.38914,9.581883505157869,0.1140406026707338
22.391536,9.593665688068764,0.1138274504437251
22.393924,9.60372530948696,0.1136219768292581
22.396308,9.611503290905018,0.1134450395072433
22.398704,9.61737171937528,0.1133110206027781
22.401092,9.626685270830931,0.1131620358893027
22.403472,9.634136491167029,0.1130255613733843
22.405868,9.63544163963701,0.1129483578126878
22.408256,9.642054242211945,0.1128433493853886
22.410636,9.65346244221263,0.112702116239246
22.41304,9.663799707026678,0.112573592470529
22.415424,9.668410208855194,0.1124874328106066
22.417808,9.671437918817878,0.1124035130175332
22.4202,9.676467729526976,0.1123022805207006
22.422588,9.680706144303157,0.1122015206752471
22.424972,9.68536386795992,0.1120856035039719
22.427368,9.685086224564069,0.1120111338582002
22.429756,9.683737645981576,0.1119482358557038
22.432136,9.68583419038448,0.1118712417743697
22.434536,9.686580260347023,0.1118158586612291
22.436924,9.685463999190013,0.1117727239049267
22.439304,9.686349838779414,0.1117122849195836
22.441704,9.688166843928595,0.1116457486962504
22.444092,9.692265489077917,0.1115517710613086
22.446472,9.695852277548042,0.1114480989278486
22.448872,9.69692510859255,0.1113525804891595
22.451256,9.703724702622589,0.1112160104522489
22.45364,9.715878972585818,0.1110237208417436
22.456036,9.72314509732468,0.11084223772424
22.45842,9.723613523891371,0.1107132077592243
22.46082,9.723011015271426,0.1105956025490289
22.463216,9.728554578517594,0.1104217049496655
22.465608,9.736100242510174,0.1102311324743031
22.467988,9.742435201689258,0.110057384214877
22.470384,9.754357154227012,0.1098484963095416
22.472772,9.764137236391488,0.1096617908987857
22.475156,9.780854786354992,0.1094196219148808
22.477552,9.795430465945222,0.1091994161068829
22.479944,9.81028568478917,0.1089713837966168
22.482324,9.82420973807334,0.1087487902264813
22.48472,9.835060755424454,0.1085528508381395
22.487108,9.84418921128287,0.1083631622985193
22.489492,9.856670242328065,0.1081375011100416
22.491892,9.871153374119675,0.1078972123392826
22.49428,9.891223499269955,0.1076241410237065
22.49666,9.913016185912936,0.1073452675872211
22.499056,9.928150944010603,0.1071110861192479
22.501448,9.944868493974107,0.106878244845618
22.503828,9.968755829162118,0.1066131665612887
22.506224,9.99785807065646,0.106301713152017
22.508612,10.024446354725193,0.1059966279737469
22.510992,10.049032538047506,0.105708852935351
22.513388,10.075341282862514,0.1054177078132117
22.515776,10.102348875811824,0.1051040431816394
22.518156,10.123909245029324,0.1048174762237257
22.520552,10.14775125424696,0.1045067448029927
22.52294,10.1698707019719,0.104204976084075
22.52532,10.196413660070252,0.1038605856918915
22.527724,10.220023351862409,0.1035381844272844
22.530111999999995,10.247125388468204,0.103178330661662
22.532492,10.282375597686526,0.1027570388192276
22.534896,10.325634209890517,0.1022817806647899
22.53728,10.367682117281008,0.1018258579418049
22.53966,10.405074196872608,0.1013958845850796
22.542064,10.4394404623594,0.1009653949684083
22.544452,10.471432540047433,0.100535616590503
22.546832,10.5074288192283,0.1000776238578959
22.549228,10.536255313184665,0.0996489321509693
22.551616,10.557912021916517,0.0992499523997994
22.553996,10.577846169155674,0.0988576923960834
22.556392,10.600993121954746,0.0984387426103806
22.55878,10.626561484380815,0.0979948620273813
22.56116,10.645611687888438,0.0975822993649545
22.563564,10.662520021022784,0.0971887151416286
22.565952,10.683432555649963,0.096768383269734
22.568332,10.705276255836925,0.0963462401136934
22.570736,10.72325552415791,0.0959468678633599
22.57312,10.735368259866505,0.0955831087492631
22.575504,10.743896102962848,0.0952309388981669
22.5779,10.748279974939496,0.0949097784387727
22.580288,10.744934983184194,0.094632099768785
22.582668,10.729577386950394,0.0944311790877603
22.585064,10.709424193290843,0.0942550885434036
22.587452,10.693275201124123,0.0940531930219969
22.589832,10.675775734517046,0.093868241862954
22.592236,10.66386326126864,0.0936589962857373
22.59462,10.651299161714174,0.0934448410939322
22.597004,10.643111350704878,0.0932191339910664
22.5994,10.638368662680977,0.0929860978258611
22.601788,10.632275500216712,0.0927701660359007
22.604168,10.62324907144626,0.0925702190496656
22.606564,10.610730297862167,0.0924039675414372
22.608952,10.602215725770913,0.0922128410782914
22.611348,10.591559283306378,0.0920377383358692
22.613744,10.580763071214983,0.0918671307119016
22.616132,10.56703359281739,0.0917122574835756
22.618512,10.55437504960644,0.0915486797189958
22.620912,10.547443269381018,0.0913579762508395
22.623296,10.547169417700903,0.0911366046820039
22.62568,10.54996860195385,0.0908952874246256
22.628084,10.556492448445905,0.0906389881145244
22.630468,10.571164467550489,0.090330303983807
22.632852,10.588909522588128,0.0900013183946639
22.635248,10.60358154169271,0.0896934120030145
22.637632,10.619184726357071,0.0893821500010103
22.640016,10.62920091766276,0.0890939458853461
22.642412,10.640148274528231,0.0888032711306744
22.6448,10.649373069901008,0.0885156964720927
22.64718,10.659017174154364,0.0882161834199176
22.649576,10.670523609527276,0.0879100554904508
22.651964,10.685754707139298,0.0875908915200264
22.654344,10.701265344005042,0.0872628222118366
22.656744,10.718498542363484,0.0869336977892408
22.659127999999995,10.73880477665498,0.0865851787822552
22.661512,10.760042176506255,0.0862351678300927
22.663908,10.779789332290312,0.0859049333948148
22.666296,10.800048344753566,0.0855845662889362
22.668692,10.814440824604429,0.0852934437150701
22.671088,10.824549563708738,0.0850336045275721
22.673476,10.836380864305742,0.0847731060968326
22.675856,10.84607029452947,0.0845278882972609
22.678252,10.855340415872618,0.0842968349126582
22.68064,10.865262163521823,0.0840717279680334
22.68302,10.874764602290451,0.0838590856906696
22.68542,10.885989602551772,0.0836452013018363
22.687808,10.897586689865433,0.083444771419804
22.690184,10.905411893111737,0.0832832407057617
22.692584,10.915099427477594,0.0831158788442839
22.694972,10.923436487403093,0.0829647715401552
22.697352,10.930842381768814,0.0828170371330587
22.699748,10.93461616169404,0.0827037272059212
22.702136,10.94197483423152,0.0825830771859598
22.70452,10.94719163639572,0.0824770782844581
22.706916,10.953060064865978,0.0823767191322388
22.709304,10.953061960723849,0.0823021383514767
22.7117,10.95734759732827,0.082199279189154
22.714096,10.960702068372916,0.0820992872843328
22.716484,10.96456839609676,0.0820084765372514
22.718864,10.967783097514545,0.0819120004042192
22.721264,10.968064532626132,0.0818287979996031
22.723648,10.97034806848414,0.0817356799274044
22.726032,10.972631604342144,0.0816429840256379
22.728428,10.973844205013512,0.0815574179055633
22.730816,10.975336344938604,0.0814634253884347
22.733196,10.973755448930635,0.081386322766809
22.735592,10.975247588855725,0.081292567479906
22.73798,10.983025570273783,0.0811615293664673
22.740364,10.991315408371044,0.0810405963538282
22.74276,10.99946547684144,0.0809239167074394
22.745148,11.007755314938697,0.0808033527645402
22.747532,11.018885871543532,0.0806487109463928
22.749928,11.026291765909257,0.080505467609814
22.752316,11.034908365088477,0.0803516796248747
22.754696,11.045946373894692,0.0801772277613354
22.757096,11.064713246432856,0.0799737961440444
22.759484,11.082548953411244,0.0797741690851692
22.761876,11.104528631509323,0.0795529888458545
22.764272,11.131723215913736,0.0793032935107082
22.76666,11.1637133977439,0.0790377385173179
22.769044,11.194772414014288,0.0787750217972703
22.77144,11.224108868791976,0.0785140501842921
22.773828,11.250931366144052,0.0782536518883594
22.776208,11.280035503496263,0.0779775176286564
22.778611999999995,11.312352446408394,0.0776833535218542
22.780996,11.350163834880576,0.0773551437853187
22.78338,11.38653220111378,0.0770217303259411
22.785776,11.418384509174956,0.0766983039839526
22.788164,11.4469314638776,0.0763728453619538
22.790548,11.47668912339374,0.0760380969481421
22.792944,11.50523607809638,0.0757137424131572
22.795332,11.530290687985383,0.0754162338330034
22.797712,11.555205528247528,0.0751224348481211
22.800112,11.57718710220348,0.0748396822304495
22.8025,11.59302260429332,0.0745867279658919
22.80488,11.603922739330546,0.0743537104986005
22.80728,11.6109584425018,0.0741333209256845
22.809668,11.61492110974,0.0739281050808227
22.812052,11.61823215067214,0.0737184572968463
22.814448,11.61595619824561,0.0735216576009813
22.816832,11.61461141137886,0.073322673978874
22.819216,11.615268725258526,0.0731158337286612
22.821612,11.61429602544411,0.0729299370447416
22.824,11.6103900593235,0.0727543033806955
22.82638,11.60606478432231,0.0725907526890786
22.828784,11.593591336708592,0.0724622187203647
22.831172,11.578556709841015,0.0723564630601487
22.833556,11.561380212600165,0.0722618435573197
22.835952,11.546205816105733,0.0721590807870847
22.83834,11.52902931886488,0.0720638206278153
22.84072,11.513203296064386,0.0719548852136608
22.84312,11.50059007882381,0.0718285538475976
22.845504,11.49025850158337,0.0716868321184018
22.847888,11.482999960275984,0.0715316354467268
22.850284,11.48081655564807,0.0713555154657706
22.852672,11.482265265460656,0.0711512842405857
22.855052,11.486647241579432,0.0709373949317938
22.857452,11.491168987325072,0.0707198977278025
22.85984,11.489544661204604,0.0705283210955747
22.86222,11.49271593250988,0.0703240147523647
22.864624,11.495095807882246,0.0701176748609539
22.867011999999995,11.49519404325447,0.0699264012380995
22.869392,11.495991126760998,0.0697155211630393
22.871788,11.500373102879776,0.069502008705292
22.874176,11.499028316013025,0.0693024104684919
22.87656,11.500756565079328,0.0690892841915649
22.878956,11.5087706556386,0.0688474090806239
22.881344,11.52064917806385,0.0685948079455645
22.883724,11.533179326795157,0.0683487735038383
22.88612,11.545989014780185,0.0680951301983949
22.888508,11.56080080351163,0.0678355502501643
22.890892,11.575892131496792,0.0675695217579592
22.893288,11.590983459481954,0.0673046097499835
22.895676,11.607005953026896,0.0670395055242351
22.898056,11.622888676944982,0.0667796329081042
22.900452,11.634347890489646,0.0665449518079902
22.90284,11.649951075154007,0.0662948311994217
22.905236,11.665694029445232,0.0660415727980755
22.907632,11.687163746721984,0.0657759673695434
22.910024,11.704769032132765,0.0655202923685414
22.912404,11.723445252730182,0.0652599421250483
22.9148,11.744263343700874,0.0649898765586358
22.917188,11.77066842803024,0.0647130848044784
22.919572,11.792697223814432,0.0644364555085758
22.921976,11.821011861091597,0.0641339914170519
22.924364,11.854261865421371,0.0638196980861763
22.926744,11.879643236392342,0.0635272472889679
22.92914,11.909168578483008,0.0632216711905321
22.931528,11.940323934267749,0.0628988602098943
22.933912,11.97040835486585,0.0625808839940527
22.936308,12.000492775463956,0.0622652814044595
22.938696,12.030297656808338,0.0619583670707743
22.94108,12.059031602966083,0.0616572155502805
22.943476,12.08310972132494,0.061362016922045
22.945864,12.10239224225804,0.0610758258136976
22.948243999999995,12.122745698377775,0.0607847899927299
22.95064,12.137884248191185,0.0605143747667083
22.953028,12.149949762071534,0.060253784612624
22.955408,12.159641088153132,0.0599861397851539
22.957804,12.174128011660482,0.0597109024302758
22.960192,12.187683769608054,0.0594369534275422
22.962576,12.200587901249568,0.0591576614027634
22.964976,12.209907140278828,0.058879845156912
22.967364,12.218015674494588,0.0586091413054566
22.969744,12.22384256871021,0.0583514743383918
22.97214,12.22287176475367,0.0581069337034465
22.974532,12.226836327849735,0.0578510869554209
22.976912,12.22186132240036,0.0576165225039845
22.979312,12.211531641017787,0.0574029315254767
22.9817,12.205206161128052,0.0571795155265295
22.984084,12.194596940491758,0.0569727755748149
22.98648,12.179331892056576,0.056768958858248
22.988868,12.163415217315332,0.0565585776564878
22.991252,12.151083435186344,0.0563486210846489
22.993648,12.144106328990553,0.0561180226562123
22.996036,12.140202258727811,0.0558789547005853
22.99842,12.13350469178574,0.0556408307919383
23.000816,12.132813427082915,0.0553889536957679
23.003208,12.134124263126507,0.0551328350657763
23.005588,12.132501832863904,0.054882544089527
23.007988,12.128737532228024,0.0546395299350918
23.010376,12.122971130845729,0.0544007147359126
23.01276,12.117064959836574,0.0541654255682663
23.01516,12.118236026253308,0.0539136195979188
23.017548,12.120617797483536,0.053655022717042
23.019928,12.124861899833324,0.0533950286498751
23.022324,12.126172735876915,0.0531397158902621
23.024712,12.131487773413344,0.0528754660753939
23.027092,12.139736077255964,0.0526063019390637
23.029496,12.14584251072531,0.0523454999232189
23.031884,12.151157548261734,0.0520807504714837
23.034264,12.162199348783693,0.0518105441781703
23.03666,12.171890674865288,0.0515507201698816
23.039048,12.178648734640692,0.0512952847971805
23.041428,12.179772579229184,0.0510652933869413
23.043832,12.17568151751134,0.050850253896917
23.04622,12.175594657286329,0.050626819818665
23.0486,12.168570329262293,0.0504152173809705
23.050996,12.159915987544172,0.0502210677455345
23.053384,12.151401415452916,0.0500234989881637
23.055764,12.146891044854494,0.0498181278724155
23.058164,12.140890430188849,0.0496258366858171
23.060552,12.13167700996329,0.0494438333410433
