Time,Force,Position
21.575816,6.105630810929229,0.1659264306706644
21.578199999999995,6.3333015636054775,0.1643113230071554
21.580596,6.5266174259421526,0.1632845727816798
21.58298,6.699591207306303,0.1624833725038297
21.58536,6.854225008444345,0.1617881543406256
21.58776,6.996060496744575,0.1609726202414413
21.590148,7.119278361422846,0.1601420213178584
21.592528,7.212238085052997,0.159586221258342
21.594924,7.27898919509823,0.1592890478254345
21.597308,7.340157103500535,0.1588629987785673
21.599692,7.397371823953987,0.1582509105697355
21.602088,7.432476575971846,0.1576823783440484
21.604476,7.442723188845145,0.1572872576850122
21.606856,7.436443034925782,0.1570771458252259
21.61164,7.408842412645876,0.1569864134649299
21.614024,7.395530347270996,0.1569677766268632
21.616428,7.38361597816472,0.1568775744758941
21.618815999999995,7.372772544245081,0.1567669844854191
21.621196,7.359320709243343,0.1567582444385072
21.623592,7.354806546929178,0.15670820030371
21.62598,7.359789135810034,0.1565889652125296
21.628364,7.370870574728757,0.156396703828274
21.63076,7.3859089933120705,0.1561755129481926
21.633148,7.411562320105282,0.1558287900164499
21.635528,7.441172626563087,0.1554596407169493
21.637924,7.470782933020891,0.1550914028971917
21.640312,7.510683282464498,0.1545396178882037
21.642692,7.551422249669269,0.1539366706439998
21.645095999999995,7.579776525343199,0.1535231432086833
21.647484,7.599331002098544,0.1532533444478271
21.649868,7.628848760757729,0.1528550779861059
21.652263999999995,7.6618116424023075,0.1524124119853086
21.654652,7.690398235501716,0.1520255900271345
21.657036,7.712838756735013,0.1517525880571748
21.659431999999995,7.735092286513205,0.1515266662710551
21.66182,7.754085788903242,0.151395414555524
21.6642,7.779597450211725,0.1511726473565252
21.666599999999995,7.804317715587291,0.1509547306857227
21.668984,7.8278744979776,0.1507268781956396
21.67136,7.841700315889546,0.1506499199369771
21.673767999999995,7.855014277122294,0.150565362239946
21.676152,7.870098021675982,0.150425782819949
21.678532,7.88248271320682,0.1502501924122461
21.680928,7.885882510221839,0.1501485137611909
21.683312,7.884626479437967,0.1501077523426583
21.688108,7.878901612310305,0.1500823335749463
21.690496,7.874060688914179,0.1500819957452273
21.692876,7.876157233317083,0.1499774902372831
21.695272,7.885423562944492,0.1497926081587396
21.69766,7.896924310743794,0.1496039532126698
21.700044,7.916945318207963,0.1493081109253352
21.70244,7.935103994552575,0.1490343587891759
21.704828,7.948886382352016,0.1488031566992767
21.707208,7.963367618285758,0.1485394383618564
21.709612,7.988558206085885,0.1480957372621508
21.712,8.017101369072789,0.1475982289013863
21.71438,8.047554085007492,0.1470447026200022
21.716784,8.077774483516718,0.1464710019558368
21.719172,8.109205586839442,0.1458658279722841
21.721552,8.133931539788614,0.1453777853215327
21.723948,8.159169349416983,0.1449028293218753
21.726336,8.179564339791359,0.1445246426910336
21.728716,8.197258381285016,0.1442074678099566
21.731112,8.214393344271233,0.1439166382312235
21.733495999999995,8.232272481362125,0.1436591353054552
21.735876,8.256390238117744,0.1433376175175987
21.738276,8.28264986524664,0.1429832947103262
21.740663999999995,8.30295041196453,0.1426800446853804
21.76694,8.249001406472843,0.1426520574823107
21.769332,8.248489549793646,0.1426430843916888
21.771728,8.249188397927947,0.1426109733566984
21.774124,8.256592396435797,0.1424654807170335
21.776512,8.270422006063484,0.142219765111399
21.778892,8.287232103825605,0.1419031003622959
21.781288,8.303158257856193,0.1415638209326254
21.783676,8.316849993714886,0.1412332041019455
21.786056,8.32495473621491,0.1409628322571682
21.788452,8.341160429499215,0.1406163229318474
21.79084,8.358669375395639,0.1402763031796412
21.793224,8.378692278717677,0.1399197448376095
21.795628,8.404581714652105,0.1394912009563831
21.798016,8.428561597638733,0.139117141579851
21.800396,8.457429625849729,0.1387134266147835
21.802796,8.490022316299841,0.1382704052491594
21.80518,8.524245020444033,0.1377883320720537
21.807564,8.5613084430958,0.1372435196667542
21.80996,8.59879117462815,0.1366774830539839
21.812348,8.64055764690705,0.1360432578318901
21.814727999999995,8.681952032133616,0.1354059895049243
21.817124,8.715385236202756,0.134849645640084
21.819512,8.742719590234032,0.1343428328824453
21.821895999999995,8.764839037958971,0.1339087074769096
21.824292,8.782395205683638,0.1335502419396579
21.82668,8.799392294900864,0.1332190153639066
21.82906,8.816529153744948,0.1328836632888585
21.83146,8.831524142215757,0.1325797930614125
21.833848,8.849684714418238,0.1322624669447694
21.836228,8.863189458821827,0.1319929456174034
21.838624,8.876461885799939,0.1317038496286951
21.841012,8.886196641994044,0.1314117204393332
21.843396,8.892486275202751,0.1311439737795881
21.845792,8.900685461359261,0.1308258919462861
21.84818,8.910422113411233,0.1304449856344305
21.85056,8.915829698746277,0.1300633420599977
21.85296,8.918351239603368,0.1296815496523956
21.855348,8.917799744527404,0.1293371914492239
21.857744,8.919622437250196,0.1289849054251605
21.86014,8.922516065159625,0.1286197262948327
21.862528,8.918472225270024,0.1283312578376022
21.864908,8.913729537246123,0.1280719895173067
21.867308,8.91387499444659,0.1277917393670755
21.869696,8.918676279445949,0.1274700225075349
21.87208,8.926178513326029,0.1270970691070525
21.874483999999995,8.930375393847573,0.1267399618244259
21.876868,8.930056216197086,0.1264175547646814
21.879252,8.930668204106379,0.1260868996136576
21.881648,8.934632767202446,0.125709999208997
21.884032,8.94101873992551,0.1252953142925254
21.886412,8.9447509855961,0.1248991829623803
21.888816,8.95230044130442,0.1244978817548835
21.891204,8.960454301490556,0.1241317694701521
21.893584,8.965767443169115,0.1238216026879703
21.89598,8.96996242783279,0.1235593048033483
21.898368,8.978114392161057,0.1232867795307218
21.900748,8.986730991340277,0.1230556356531328
21.903144,8.998001317571973,0.12280698237252
21.905532,9.010622118244026,0.1225351832224125
21.907916,9.020868731117329,0.1222705498924882
21.910312,9.034188379923682,0.1219709240628025
21.9127,9.04578546723734,0.1216805009088792
21.91508,9.0568706978718,0.1213824750234892
21.917476,9.06343987033423,0.1211168049823344
21.919864,9.068658568356302,0.120876297262661
21.922248,9.075739597497927,0.1206206206810731
21.924652,9.087988311117645,0.1203366484745923
21.92704,9.096884449550586,0.1200969942573516
21.92942,9.101636616863834,0.119905228398873
21.931816,9.09996317305725,0.1197918994435049
21.934204,9.101455312982338,0.1196714125578684
21.936584,9.100014186601232,0.1195789641757641
21.93898,9.100482613167925,0.1194398540459561
21.941368,9.105234780481172,0.119248797529542
21.943752,9.106402055182166,0.119081673136608
21.946156,9.103565128390326,0.1189552720917782
21.948544,9.102497984919426,0.1187880322319589
21.950924,9.098497575142332,0.1186482590920555
21.95332,9.0922155253651,0.1185399567974026
21.955712,9.088028124132896,0.1184378169649889
21.958092,9.086354680326314,0.1183255166274818
21.960488,9.088126359505123,0.1181958017164279
21.962872,9.088268024989851,0.118101042257241
21.965252,9.093297835698952,0.1179914067169214
21.967648,9.09818787678119,0.1178873405419237
21.970036,9.102658608982845,0.1177999619906089
21.97242,9.106058405997864,0.1177254959525456
21.974816,9.114533339692356,0.1175993705726359
21.977204,9.12086640301357,0.1174976770424004
21.979584,9.13120366782762,0.1173557258642211
21.981984,9.138887205589192,0.1172298774987534
21.984368,9.14964377928382,0.1170720199308062
21.986768,9.157047777791671,0.1169576385690658
21.989163999999995,9.160028265926112,0.116899244345088
21.991548,9.16366038036661,0.1168446029905113
21.993932,9.172088092232856,0.1167491003292939
21.996336,9.181539517457502,0.1166734394960388
21.998724,9.195507000854176,0.1165685220995998
22.001104,9.213199146489965,0.1164369321044346
22.003499999999995,9.23089129212575,0.1163064002613852
22.005888,9.244719005895568,0.1162093119790689
22.008272,9.256032762239766,0.1161221904270591
22.010667999999995,9.268557223397464,0.1160176000462364
22.013056,9.282991237502966,0.1158703450777312
22.01544,9.296913394929264,0.1157137143970472
22.017836,9.31376881866176,0.1155326895405611
22.020224,9.331834947207756,0.1153355523528272
22.022604,9.350972010940389,0.115128876066159
22.025,9.373042340979218,0.1148961248246915
22.027388,9.39669546288388,0.1146617125872225
22.029768,9.42500441258744,0.1143964705583923
22.032164,9.452242427104355,0.1141448423478454
22.034552,9.48627813979344,0.1138398137916214
22.036932,9.52566852841572,0.1134775593778614
22.039328,9.570273823344332,0.1130651923734477
22.041716,9.614367261593744,0.1126484574467217
22.044112,9.65529511611149,0.1122372536130115
22.046508,9.695850883576895,0.111816013094204
22.048896,9.72881755693721,0.1114490777107625
22.05128,9.758199337685271,0.111101634000279
22.053676,9.788931592873698,0.1107328184035779
22.056064,9.822317575114596,0.1103521144323824
22.058444,9.854632622168856,0.1099833709021143
22.06084,9.88317578515576,0.109671473808386
22.063227999999995,9.915024301501193,0.1093525580901006
22.065612,9.944219090794151,0.1090483401741648
22.068008,9.97048061378092,0.1087677253790841
22.070392,9.994460496767548,0.1085158650093441
22.072776,10.024726221247146,0.1082080634564986
22.075172,10.053688693114628,0.1078931017162805
22.07756,10.075481379757608,0.1076141115285675
22.079944,10.098484771214082,0.1073214298218044
22.082348,10.11469046449839,0.1070788122797398
22.084736,10.128102661103364,0.1068542184045563
22.087116,10.133506454722667,0.1066929542569675
22.089516,10.139701644274892,0.1065323752184221
22.091904,10.148969869760167,0.1063466554150139
22.094284,10.156887620805088,0.1061816066538111
22.09668,10.170671904462402,0.1059749696772777
22.099067999999995,10.188600159239405,0.105733343238349
22.101452,10.207319809949324,0.1054921766266086
22.103848,10.22524806472633,0.1052527290930492
22.106232,10.242804232450997,0.1049995288879492
22.108612,10.259476456444126,0.1047236282242927
22.11102,10.272843327078728,0.1044549828855431
22.113408,10.2883520680866,0.104167921690073
22.115788,10.305351053161694,0.1038571980883191
22.118188,10.321838181557588,0.1035380615444106
22.120576,10.333250173274015,0.1032610225358517
22.122956,10.343870769057522,0.1029845340811295
22.125352,10.357936487826422,0.1026968733539636
22.12774,10.367998005102487,0.1024386105422778
22.130124,10.38062070163241,0.1021469534472877
22.13252,10.390030592602418,0.1018834420578982
22.134908,10.406797260252034,0.1015574662011179
22.137292,10.4187683304759,0.1012614924167419
22.139688,10.427806134393569,0.1009856396142307
22.142076,10.43046554901965,0.1007378067271538
22.144456,10.430750775846978,0.1004908990394048
22.146852,10.426100635621692,0.1002772333983981
22.14924,10.417865602784156,0.1000776742500995
22.151624,10.406185446961222,0.0998874426421955
22.15402,10.394645060765152,0.0996920485169526
22.156408,10.380823034568945,0.0995195151845412
22.158792,10.364998907626315,0.0993606005104543
22.161196,10.345170579190858,0.0992296282226075
22.163584,10.32385200668818,0.0991216638135674
22.165968,10.301602268625722,0.0990178736412567
22.168364,10.274836472391236,0.0989323336083813
22.170752,10.250724403209226,0.0988367662926978
22.173136,10.229964909213988,0.0987081660917905
22.175536,10.210695659285973,0.0985557752702341
22.177924,10.192217805290872,0.0984029733976633
22.180304,10.18109672797538,0.0981906302322269
22.182696,10.167182153980557,0.0979917352935378
22.185084,10.153407349612593,0.0977875554317895
22.187464,10.138561610057993,0.0975918805832807
22.18986,10.129163094235194,0.0973733533279858
22.192248,10.12013666546474,0.0971687908722998
22.194628,10.11390373337362,0.0969504240018871
22.197024,10.114328729827806,0.0966968126505086
22.199411999999995,10.12206328113336,0.0964137584669514
22.201808,10.128959214677757,0.0961582621512416
22.204204,10.13864864490148,0.0958891865298965
22.206588,10.156066938857157,0.0955774020968111
22.208968,10.17441639837261,0.0952607126465663
22.211372,10.193836793074702,0.0949350777300753
22.213756,10.213117418149936,0.0946139987495425
22.21614,10.23705387102406,0.0942710747832696
22.218544,10.25712589203221,0.0939506966169121
22.220928,10.274124877107306,0.0936544086071241
22.223308,10.291775488488458,0.0933637745125165
22.225704,10.307935855802391,0.093096542089202
22.228092,10.319532943116052,0.0928750493174146
22.230472,10.32963978636249,0.0926761842605954
22.232868,10.343051982967465,0.0924750322795757
22.235256,10.357255575505354,0.0922739561285366
22.23764,10.374671973603158,0.0920482806993036
22.240036,10.389155105394767,0.0918385914396285
22.242424,10.405919877186518,0.0916083763626484
22.244804,10.416818116365876,0.0914121105898944
22.247208,10.424131462932984,0.0912286392505615
22.249592,10.43214365763439,0.0910223945941391
22.251976,10.441506326776151,0.0907994696119603
22.254372,10.447144333678803,0.0905935187169125
22.256756,10.452922110208316,0.0903829537229339
22.25914,10.459910591551324,0.0901602911399394
22.261536,10.46997210882739,0.0899182765732904
22.26392,10.47803152535704,0.0896883909600174
22.26632,10.489955373752665,0.0894398446834618
22.268716,10.499737351775009,0.0892072463224014
22.271104,10.510310725730273,0.0889760672413334
22.273484,10.521443178192976,0.0887275085587417
22.27588,10.533274478789982,0.0884572766557382
22.278268,10.546316484200489,0.0881747230900329
22.280652,10.55726384106596,0.0878814870083508
22.283052,10.571563773118203,0.0875609907294653
22.28544,10.582930438864254,0.0872569048710398
22.28782,10.601653881289916,0.0869035470837232
22.290224,10.618095683715437,0.0865715792953232
22.292612,10.64040401875335,0.0862122370927681
22.294992,10.659639317858208,0.0858719663506377
22.297388,10.68245950957532,0.0855244373509603
22.299776,10.705791557971628,0.0851886124011342
22.302156,10.72819244080816,0.0848574391614571
22.30456,10.755249151443582,0.0845123077038335
22.306948,10.779232826145948,0.0841856484785253
22.309328,10.80014346491526,0.0838779783391448
22.311732,10.824918535550546,0.0835550163840277
22.314116,10.84890221025291,0.0832328777134102
22.316496,10.875958920888332,0.0828934280960076
22.3189,10.904086566710394,0.0825486203110434
22.321288,10.930863738092096,0.082219766993109
22.323668,10.956010895779718,0.0819152143089552
22.326068,10.98101828384048,0.0816155271460086
22.328452,11.004395658207162,0.0813394472644243
22.330836,11.025491392573707,0.0810831611116187
22.333231999999995,11.048449458059808,0.0808223777213576
22.33562,11.064050746866302,0.0806073312078338
22.338004,11.080443431605712,0.0803940987117173
22.340399999999995,11.090690044479013,0.0802149130797506
22.342788,11.10158828365837,0.0800408088116306
22.345168,11.109553256531536,0.0798799403581477
22.347564,11.11551612865828,0.0797291186213432
22.349952,11.117986655971391,0.0796068160987809
22.352332,11.115521816231889,0.0795066889099517
22.354728,11.11785257391814,0.0793891411535583
22.357116,11.121114497164166,0.0792689090192937
22.359496,11.117578722238024,0.0791755077245299
22.361892,11.112412933617804,0.0791052666916244
22.36428,11.1080385409305,0.0790365738281866
22.36666,11.1024534434297,0.0789786952641692
22.36906,11.09779951148868,0.0789181718761792
22.371448,11.093704658055096,0.0788412795119073
22.373828,11.091611905367934,0.078755320454049
22.376224,11.09566522454688,0.0786381892327355
22.378612,11.10251204040516,0.0785139919272903
22.381008,11.10456325883769,0.0784063312868326
22.383404,11.11262077950947,0.0782718200864977
22.385788,11.12016644350205,0.0781280862011328
22.388168,11.127851877121492,0.0779798274663289
22.390572,11.136748015554437,0.077821003615499
22.39296,11.145504384360514,0.0776663590379883
22.39534,11.156542393166736,0.0774953742911796
22.397736,11.16879110678645,0.0773130478198519
22.400124,11.181179590033029,0.0771265301092709
22.402508,11.19142620290633,0.0769538720638662
22.404904,11.203535146899188,0.0767769938254274
22.407292,11.22151062350443,0.0765776952797535
22.409672,11.239393552311064,0.0763568781681506
22.412068,11.254622754065217,0.0761398055221007
22.414456,11.268269163953535,0.0759197479779545
22.41684,11.283126278655354,0.0756899076912349
22.419236,11.300497350782786,0.0754618394710925
22.421624,11.312793286230743,0.0752572004647511
22.424004,11.322295724999371,0.0750607971140085
22.426404,11.327142335969103,0.0748759121363503
22.428788,11.339578041043923,0.0746700352358269
22.431172,11.35029118462605,0.0744658102109623
22.433568,11.360864558581312,0.0742659232426622
22.435956,11.37665283884291,0.0740404338210185
22.438336,11.394722759104644,0.0738001191087264
22.440736,11.415214088993372,0.0735411991648968
22.443124,11.43277215257591,0.073293181448894
22.44552,11.455684892091638,0.0730167347478817
22.447916,11.479808336420865,0.0727309952453982
22.450304,11.503699463324612,0.0724290922405176
22.452684,11.522283136123413,0.0721313264852432
22.455079999999995,11.541146348175934,0.0718277824138934
22.457472,11.561732121721152,0.0715251810577976
22.459852,11.581386729706589,0.071224244179104
22.462247999999995,11.604114373625082,0.0709112559310904
22.464636,11.621394793811769,0.0706050614356008
22.467016,11.640165458065672,0.0702840344505615
22.46942,11.663359632692991,0.0699368651163162
22.471808,11.684691476200753,0.0695941417228832
22.474188,11.706302858962232,0.0692432709679887
22.476588,11.719673521312568,0.0689051744760946
22.478976,11.733183953289767,0.0685646479724224
22.481356,11.746042758960913,0.0682186397078977
22.483756,11.753966197579436,0.0678892287585021
22.486144,11.760167074705269,0.0675605133169444
22.488524,11.766647491084818,0.0672261561228727
22.49092,11.772196741904589,0.0668928653213392
22.493308,11.776675057537725,0.0665667220681401
22.495692,11.781293142797717,0.0662373703885807
22.498088,11.783769357684438,0.0659182301082628
22.500476,11.78903906925049,0.0655939423850869
22.502856,11.791515284137205,0.0652746020467581
22.50526,11.795062434210562,0.0649514304502995
22.507648,11.800751454657195,0.0646181690969679
22.510031999999995,11.797500906558383,0.0643104132329769
22.512428,11.80183945256466,0.0639884147677475
22.514816,11.8021737970781,0.0636797849352085
22.517196,11.80250814159154,0.0633720160356431
22.519592,11.8048445868514,0.0630585607362302
22.52198,11.809183132857674,0.0627390291441497
22.52436,11.81817750666284,0.0624133519756706
22.526756,11.822236513415394,0.0621003654089765
22.529143999999995,11.826807376847142,0.0617972428042176
22.531524,11.83459104583881,0.0614801709322358
22.533924,11.8378114348302,0.0611885544762125
22.536311999999995,11.8356771478884,0.0609205114736772
22.538692,11.834613796133238,0.0606473474679471
22.541096,11.828335538071745,0.0603937570770293
22.543484,11.820846575196752,0.0601483009807866
22.545864,11.818013440120652,0.0598982137925409
22.54826,11.818904967283665,0.0596448906007627
22.550647999999995,11.82002881187215,0.0594085891643687
22.553032,11.81500658459453,0.0591920193650495
22.555428,11.812638084369382,0.0589769582093609
22.557815999999995,11.819209152689682,0.0587388774483668
22.560196,11.824709285823342,0.0585066040557871
22.562596,11.828998714143506,0.0582820183955509
22.56498,11.830215106530613,0.0580671442801558
22.56736,11.827147758171163,0.0578695715236553
22.569759999999995,11.826594367237332,0.0576773749143209
22.572148,11.824178645183943,0.0574868372652588
22.574544,11.828420851675862,0.0572876199040415
22.57694,11.83373399335442,0.0570844885006614
22.579328,11.83676549503284,0.0568936830907367
22.581708,11.84729354301773,0.0566735583296699
22.584104,11.858752756562398,0.0564521058219147
22.586492,11.872214070853484,0.0562263824646452
22.588876,11.891030061077762,0.0559801790197051
22.591272,11.914781418354648,0.0557252310930857
22.59366,11.932806012646006,0.0554779636800663
22.59604,11.948037110258031,0.0552336068278601
22.59844,11.96196495525794,0.0549762449850913
22.600824,11.98217864175082,0.0546983269074165
22.603208,11.996665565258168,0.0544275784956213
