Time,Force,Position
20.486276,4.865328136207587,0.1888858677904309
20.48866,5.146245254525479,0.1851733076447191
20.491044,5.408824288475134,0.181900791376566
20.49344,5.640727768353954,0.1793768088325459
20.495828,5.846284760878868,0.177463821168983
20.498208,6.035783413177813,0.1758018727960212
20.500604,6.208757194541963,0.1744322417707041
20.502992,6.36809404530714,0.1731179105098079
20.505388,6.512118625808889,0.1718088858593901
20.507784,6.627235539702878,0.1708435375763057
20.510172,6.721638285572002,0.1700703175832285
20.512552,6.813343874276148,0.1691810850434849
20.514948,6.907195125069311,0.1680310263793718
20.517336,6.982241760785413,0.1669666722386061
20.519716,7.036993537357233,0.1660166208384602
20.522116,7.061530602993432,0.165540493646323
20.5245,7.070609941165738,0.1653604106203312
20.52688,7.0775001871365255,0.1652708970626509
20.52928,7.092398836092977,0.1650278621307798
20.531664,7.1120477565048095,0.1646282345130595
20.534044,7.121221538333602,0.1643719955278952
20.536444,7.1319781120282295,0.1641096376781836
20.538832,7.149810027290878,0.1638286690918334
20.541228,7.18105034744276,0.163358942423057
20.543624,7.210288566848225,0.1629157485467847
20.546012,7.23393979289502,0.1625584921889386
20.548392,7.262386616367567,0.1621234766848434
20.550788,7.289575513198374,0.1617616481796338
20.553176,7.318207432268157,0.1613985953703167
20.555556,7.352613336151712,0.1608926339756244
20.557952,7.385902978878256,0.1603341932440998
20.56034,7.406063755969285,0.1599576714680371
20.56272,7.416633338208809,0.1597495450469497
20.56512,7.431392217538401,0.159535858437012
20.567504,7.452529486159583,0.159235528433647
20.569888,7.47757840847498,0.1588289814503179
20.572284,7.509704568216267,0.1582990948751818
20.574672,7.549372600234397,0.1577057395958523
20.577052,7.589597814902102,0.1571999580859168
20.579452,7.62800602442062,0.1567957551432824
20.581836,7.672560305805251,0.156283855797616
20.584236,7.707802931592099,0.1559079858113622
20.586632,7.742533700699747,0.155530380451265
20.58902,7.774283981672958,0.1552401846832175
20.591404,7.81818663675153,0.1547547168928441
20.5938,7.867630959218398,0.154126343756088
20.596184,7.912606445341478,0.1535257402925303
20.598568,7.962936607397749,0.1528377297483181
20.600964,8.01829468430525,0.1521209445994072
20.603352,8.07374530901137,0.1514351573313573
20.605732,8.128357315956325,0.150786459891534
20.608132,8.189627251446591,0.1500492061456798
20.610516,8.250617647683137,0.1493321254123457
20.6129,8.314261770972156,0.148603528267135
20.615296,8.372923305380322,0.1479863043519529
20.617684,8.42995482609441,0.1474112684501872
20.620064,8.47930470490479,0.1469119163344604
20.622464,8.521392250692049,0.1464736485350344
20.624852,8.56324747905383,0.1460191735787547
20.627232,8.605010159616995,0.1455386817576342
20.629628,8.637461184582376,0.1451646875885081
20.632016,8.667026165069805,0.1447901336114392
20.634412,8.691842769959724,0.1444450919706367
20.636808,8.718708697424306,0.1440411096912031
20.639196,8.738589935261615,0.1437711117608389
20.64158,8.759494886457318,0.1435221613672338
20.643976,8.775464470600406,0.1433372787850481
20.646364,8.784543808772712,0.1432125578752332
20.648744,8.783659865041178,0.1431893524379501
20.651144,8.787990827615976,0.1430907715402435
20.653532,8.799958106124103,0.142873489865482
20.655908,8.807736087542162,0.1426564897203151
20.658312,8.814630125228687,0.1424176502654168
20.6607,8.817706952877481,0.1421938521975958
20.66308,8.824555664593632,0.1418995862764401
20.66548,8.834896721123418,0.1415464214220246
20.667864,8.847239878399623,0.1411677293551936
20.670244,8.855998143063573,0.1408219382157995
20.67264,8.86024034955549,0.1405183006551796
20.675028,8.86271277272647,0.1402599637653937
20.677412,8.87421731224151,0.139916754590604
20.679808,8.891169075488362,0.1395201482963657
20.682192,8.912125040228048,0.1390754515771794
20.684576,8.930007969034678,0.1386744684790267
20.68698,8.94737904116211,0.138264173720162
20.689364,8.955950314370957,0.1379561103369995
20.691748,8.968665558699497,0.1375902026093407
20.694144,8.98086894634884,0.1372151593780283
20.696532,8.995633513252042,0.1367890255952827
20.73476,8.815635403863853,0.1365080708091536
20.737156,8.810237297818155,0.1364326819266521
20.739544,8.804839191772459,0.1363571488262935
20.741928,8.797019676099765,0.1363234102196532
20.744324,8.791155039345243,0.1362979328164551
20.746712,8.786081798523641,0.1362694929941002
20.749096,8.779565535463062,0.1362416061561918
20.751492,8.7757502212832,0.1361590282720338
20.75388,8.77165536784962,0.1360881574345558
20.756264,8.771704485535732,0.1359605763529033
20.758668,8.779250149528314,0.1357236510101738
20.761056,8.779626028296393,0.1355510290766683
20.763436,8.778838424079213,0.135366538091932
20.765832,8.776048719115613,0.1352064533977984
20.76822,8.768323647099406,0.1351058851798906
20.770604,8.762740445456474,0.13497453470436
20.773,8.754363747134207,0.134870933412201
20.775388,8.746638675118,0.1347698854668539
20.777768,8.744872683512797,0.1346281622047559
20.780168,8.748973224519986,0.1344188493365231
20.782556,8.747626541795364,0.1342595853463969
20.78494,8.741251944219517,0.1341311099094475
20.787336,8.732363389218053,0.1340172266539682
20.789724,8.731343467575394,0.1338135419597197
20.792104,8.727809588507125,0.133624913941988
20.7945,8.729118528692847,0.1333535274446388
20.796888,8.734850979251984,0.1330166992070736
20.799268,8.737091084997488,0.132735684474143
20.801668,8.74533749298224,0.1323832641559159
20.804056,8.760241829512301,0.1319650884413473
20.806436,8.77049033824347,0.131593097687999
20.80884,8.784603278840613,0.1311804200900905
20.811228,8.798808767236373,0.1307938628781224
20.813608,8.812315407497831,0.1304337158372335
20.816008,8.830897184438761,0.130011189589099
20.818396,8.842169406528328,0.129653844742404
20.82078,8.849297657498198,0.1293483729638034
20.823176,8.852281937348375,0.129095039530741
20.825564,8.856476922012051,0.1288219764350762
20.827944,8.856155848503695,0.1285871446733217
20.830344,8.856905710181977,0.1283375606017175
20.832732,8.854675083725823,0.1281525325060032
20.835112,8.855330501747618,0.1279681957523166
20.837512,8.850631243836222,0.1278578394725689
20.8399,8.846723381857744,0.1277446879980296
20.84228,8.83918340543877,0.127693171654798
20.84468,8.830944580885495,0.1276709076832778
20.856616,8.793146463418397,0.1276581304317838
20.859016,8.787514144089354,0.1276480615432658
20.861404,8.78858697513386,0.1275425421027054
20.863784,8.788077014312533,0.1274420154918136
20.86618,8.790872406849736,0.127326009230336
20.868572,8.800046188678527,0.1271587120312874
20.870952,8.815877899052632,0.1269283383008164
20.873348,8.827425868680178,0.1267538460652916
20.87574,8.842418961293117,0.1265586143519951
20.87812,8.856573436144894,0.1263982433269251
20.880516,8.878596544355478,0.1261560001362895
20.882904,8.902109896633286,0.1258843077875621
20.885288,8.929906989657644,0.1255588776958996
20.887684,8.95877501786864,0.1252205094101771
20.890072,8.990716082012693,0.1248491489900158
20.892456,9.023728081343384,0.1244669709042117
20.894852,9.056228223994877,0.1240783969419016
20.89724,9.091149776273369,0.1236549922418852
20.89962,9.127654120417697,0.1232279905433311
20.90202,9.165601486801,0.1228042756686443
20.904408,9.196751155012134,0.1224466896966784
20.906792,9.230042693596545,0.1220662806729437
20.909192,9.261843988113736,0.12172026310492
20.911576,9.296019470429684,0.1213716904242381
20.91396,9.33727219017152,0.1209558852047664
20.916356,9.375079786927962,0.1205600761146692
20.918744,9.413446462191844,0.1201483931641022
20.921124,9.456516187082862,0.1196715333130998
20.923524,9.500144990481322,0.1191776249667667
20.925912,9.543960785334884,0.1186476170756989
20.928292,9.582748665337215,0.1181429953634626
20.930688,9.621676314966413,0.1176381701303537
20.933076,9.65753092866255,0.1171675181229304
20.93546,9.69459624717219,0.1166828747979898
20.937856,9.728076673069571,0.1162222469369444
20.940244,9.7596947678474,0.115777056004506
20.942628,9.791964488931283,0.1153385711447059
20.945024,9.823023505201672,0.114920860517793
20.947412,9.853570664792862,0.114495396388419
20.949796,9.882814571771936,0.1140637852226696
20.952192,9.914991745057202,0.113606336165384
20.95458,9.94223355128986,0.1131923858878568
20.956964,9.969475357522516,0.1127810979868434
20.95936,9.99299250151606,0.1123962663762553
21.021476,9.70791624521552,0.1121986845110551
21.02388,9.704146257006032,0.112168898418506
21.026268,9.700655808050266,0.1121290003352839
21.028648,9.69730512872136,0.1120839792301326
21.031044,9.697259802750988,0.1120302544791362
21.033436,9.708295915699336,0.1118810823962928
21.035816,9.72268460383446,0.1116940692471486
21.038212,9.741077493462418,0.1114731184623073
21.0406,9.761752023090514,0.1112241388957664
21.04298,9.785779127905384,0.1109380726901254
21.045376,9.809434145667916,0.1106391202959025
21.047764,9.829783810071918,0.1103493096218043
21.050148,9.844826020370972,0.110085913488353
21.052544,9.860427309177464,0.1098024606793175
21.054928,9.887157258730925,0.1093997264478305
21.057312,9.922594459404351,0.1089112522615634
21.059708,9.95300374522655,0.1084408975396024
21.062096,9.986393519183183,0.1079219782719042
21.064492,10.01689724866187,0.1073982369507689
21.066888,10.053035193327466,0.1068155173059015
21.069276,10.087590346127229,0.1062358413005826
21.071656,10.122052951128367,0.1056384804229745
21.07406,10.15414136833076,0.1050433594157052
21.076448,10.188651195160146,0.1044204637244049
21.078828,10.222277078258,0.1037775269707967
21.081224,10.245799909825148,0.1031886827959533
21.083612,10.270533446205798,0.1025892029258655
21.085992,10.293544421093747,0.1019962836273034
21.088388,10.31683493523542,0.1013940917678032
21.090776,10.33682009601856,0.1007993516806923
21.093156,10.35480315605528,0.1002193207799155
21.09556,10.372786216092004,0.0996381344694254
21.097948,10.38797577944939,0.0990685304824862
21.100328,10.40116324206036,0.0985123571318778
21.102724,10.402849956872029,0.0980545044468476
21.105112,10.395317563884529,0.097668865852244
21.107496,10.38643469645667,0.0973011653580715
21.109892,10.376061584961594,0.0969571472563516
21.11228,10.36340683346638,0.0966352267838851
21.11466,10.345537175664832,0.0963545768939298
21.117064,10.328179374542486,0.09608296174288
21.119452,10.304256192673444,0.0958699455400375
21.121832,10.278982536364046,0.0956744052704842
21.124228,10.25114770080079,0.0955104330201254
21.126616,10.22275378673009,0.0953640433784249
21.129,10.2015296578839,0.0951912509938256
21.131396,10.17774434978385,0.0950498744673512
21.133784,10.157683703922917,0.0948908563992397
21.136164,10.140276785114455,0.0947232905152245
21.13856,10.12468497559731,0.0945749126550853
21.140948,10.111467353878917,0.094427525951458
21.143332,10.10169485514592,0.0942725585163555
21.145728,10.098952372010563,0.0940980653343092
21.148116,10.100586177420384,0.0939121522072309
21.150496,10.108877911375508,0.0936930160694528
21.152896,10.116610566823194,0.0934910684228869
21.15528,10.125926014136716,0.0932899307676376
21.157664,10.133890987009876,0.0931068718886828
21.16006,10.145301082868434,0.0929164928071578
21.162448,10.159364905779464,0.0927186416568909
21.164832,10.17543082943691,0.0925090120920736
21.167224,10.197223516079887,0.0922702508958808
21.169612,10.22753646238773,0.0919923446874011
21.172008,10.261062214255489,0.0916899637718933
21.174404,10.293237491682886,0.0914054852864493
21.176792,10.32355043799073,0.0911314605550113
21.179172,10.353071988365654,0.0908569434902043
21.181568,10.377518402061108,0.0906166686745901
21.183956,10.397820844636865,0.0904061266024492
21.186336,10.41961353127984,0.0901749543941648
21.18874,10.44382762754982,0.0899201780990016
21.191128,10.466319162327096,0.0896696951884888
21.193508,10.488298840425175,0.0894116846092755
21.195904,10.508276417776838,0.0891663911765247
21.198292,10.522107923262393,0.0889608612233769
21.200672,10.54529830617397,0.0886932049168244
21.203068,10.571561725018608,0.0884075375319634
21.205456,10.599827244609658,0.0881108143807094
21.20784,10.627441137894657,0.0878098208823768
21.210236,10.651842225619731,0.0875323794402413
21.212624,10.676243313344813,0.0872570520220041
21.21502,10.695709034017275,0.0870077651373337
21.217416,10.706374955771157,0.0868036230343786
21.219804,10.711825971218705,0.0866340461110238
21.222184,10.721560727412808,0.0864340690934934
21.22458,10.729153613233631,0.0862497668026571
21.226968,10.737677664614235,0.0860621358078412
21.229352,10.749134982301037,0.0858600867338951
21.231752,10.758310659987698,0.0856765533115039
21.23414,10.76520469767422,0.0855134653650389
21.23652,10.765533354614051,0.0854010006188973
21.238924,10.76744480341972,0.0852908126688289
21.241312,10.767074612225253,0.0852004519335329
21.243692,10.76977745696384,0.0850920114562497
21.246092,10.77862637356854,0.0849469665375044
21.24848,10.782912010172964,0.0848416894156052
21.25086,10.78533531565783,0.0847432658694035
21.253256,10.788550017075616,0.0846462950608638
21.255644,10.792276575172597,0.0845590321681733
21.258024,10.802288974762549,0.084432642891155
21.26042,10.806015532859533,0.0843454821142878
21.262808,10.813746292449348,0.084237491878432
21.265188,10.825481253532,0.0841086233044103
21.267588,10.84094087685376,0.0839671159728574
21.269972,10.848903953869057,0.0838767355298626
21.272356,10.859660527563683,0.0837773180436302
21.274752,10.869066626817956,0.0836935882578466
21.27714,10.875399690139169,0.0836275229589935
21.27952,10.888949760513132,0.0835187532456021
21.28192,10.8983558597674,0.0834345249714959
21.284308,10.910695225327864,0.0833362077582468
21.286688,10.922243194955414,0.0832372879561427
21.289088,10.933511625329238,0.0831468614257227
21.291476,10.941427480516287,0.0830830284187099
21.305812,10.942545637531168,0.0830487799316839
21.308196,10.944407968650726,0.083042830929562
21.31298,10.95208961055443,0.083037149673291
21.31536,10.960609870219296,0.0830071559309779
21.317756,10.979559942496827,0.0829159022001834
21.320144,10.99571651809502,0.0828334828162887
21.322528,11.017227769626407,0.0827170631917687
21.324924,11.043814157837268,0.0825747881699623
21.327312,11.072542416421406,0.0824213118425276
21.329708,11.112491883551124,0.0822106094354624
21.332104,11.157004630681117,0.0819667802219313
21.334492,11.20365924818439,0.0817119726213067
21.336872,11.253945980128158,0.0814270934527839
21.339268,11.303860625019588,0.0811289954242725
21.341656,11.351680621365984,0.0808202863855956
21.344036,11.405274602526156,0.0804684671548272
21.346436,11.460917906260985,0.0800828314906383
21.348824,11.515537496637418,0.0796786265645069
21.351204,11.56685173365532,0.0792739909721365
21.3536,11.620355062874742,0.078833254259235
21.355988,11.670273499481908,0.0784012170632045
21.358372,11.717445661237983,0.0779549872099083
21.360768,11.765037131874644,0.0774980864536449
21.363156,11.80331694691352,0.0770679234013727
21.365536,11.832145336727748,0.0766677166652832
21.367932,11.863534905795836,0.0762444926059465
21.37032,11.88947725113212,0.0758333853448293
21.3727,11.91397657422942,0.075417995456937
21.375104,11.931817968781417,0.0750241540307637
21.377492,11.942489578108905,0.0746431887999427
21.379876,11.946782798144806,0.0742743368568084
21.382272,11.942555758515844,0.0739275077672014
21.38466,11.930739624781786,0.0736006184926691
21.38704,11.920553504741816,0.0732526645156303
21.389436,11.90636318320901,0.0729188491352276
21.391824,11.883233293130758,0.0726172818780498
21.394208,11.860755029358565,0.0723211049883832
21.396604,11.841349801519424,0.0720110180013462
21.398992,11.823015508866929,0.0716944047138435
21.401388,11.802120036960568,0.07140003544266
21.403784,11.78136433468107,0.0711012361845657
21.406172,11.75632489165502,0.0708236056420081
21.408552,11.733427319002246,0.0705348306978479
21.410948,11.714394178215445,0.0702341218199078
21.413336,11.69922546929462,0.0699215980310699
21.41572,11.682846055560294,0.0696183710517126
21.418116,11.666187102572248,0.069321625412597
21.420504,11.645523948091368,0.0690384566390676
21.422884,11.626862894356904,0.0687475686460801
21.42528,11.60657182692836,0.068476151899058
21.427668,11.588794716925433,0.0682064925553116
21.430052,11.576744369908036,0.067922145006386
21.432448,11.568278915502887,0.067633865079246
21.434836,11.556041577030385,0.0673760617107733
21.43722,11.552464267849611,0.0670964893287766
21.439612,11.555544887214143,0.066801369380407
21.442,11.55662340583226,0.0665133834270367
21.444384,11.558493320383294,0.0662288545970127
21.446784,11.560083695680603,0.0659516675921896
21.449172,11.560882675045,0.0656717735141097
21.451552,11.56554608627537,0.0653833934351048
21.453948,11.57514486455835,0.0650803138324422
21.456336,11.579668506161855,0.064795556005429
21.458732,11.584843774071423,0.0645175196432007
21.461128,11.58973950272727,0.0642472974333325
21.46352,11.5926331306367,0.0639832505754237
21.4659,11.60046212559874,0.0637060446205833
21.4683,11.612667409105953,0.0634301167949983
21.470688,11.624593153359443,0.0631621401355475
21.473068,11.64066286873263,0.0628787970600253
21.475464,11.657663749665597,0.062595195052246
21.477852,11.677597896904752,0.0623060118961108
21.480236,11.69939437526347,0.0620151534463392
21.482632,11.726265990301656,0.0617080256761202
21.485024,11.747131303100597,0.061419731760506
21.487404,11.76878801183245,0.0611354252620437
21.4898,11.790444720564306,0.0608512324260715
21.492188,11.807538149295889,0.0605934684613388
21.494572,11.82756484433366,0.0603298726256792
21.496968,11.850105496797054,0.0600708473605548
21.499356,11.868362408513892,0.0598312932570514
21.501736,11.88540861541723,0.0596007156426913
21.504136,11.904177383813265,0.0593714876406044
21.506524,11.923085921836158,0.0591396537137064
21.508908,11.940923524672414,0.0589125168128656
21.511304,11.96248578974778,0.0586823606343513
21.513692,11.980975018890094,0.0584631856346433
21.516072,11.999743787286128,0.0582381434805186
21.518472,12.017441620495523,0.0580176757394184
21.52086,12.02992454739859,0.0578156226131891
21.523244,12.037332337622184,0.0576279164943442
21.52564,12.04045638709922,0.0574579480103948
21.528028,12.044930911016612,0.0572773632237752
21.530412,12.04926566530715,0.0571010832509918
21.532808,12.057744390717378,0.0569117959718948
21.535196,12.06543172019469,0.0567204731362468
21.53758,12.076983481537976,0.0565237042519459
21.53998,12.089885717321618,0.0563155655764534
21.542368,12.101717017918627,0.0561124324974591
21.544748,12.115690188888909,0.0559021937147605
21.547148,12.129663359859192,0.0556918743769187
21.549536,12.144288157135533,0.0554882786017846
21.551916,12.16012365922537,0.0552774641207419
21.554316,12.173817290941932,0.055075029832389
21.556704,12.19137535452447,0.0548676609691139
21.559088,12.206139921427669,0.0546624474590112
21.561484,12.22076471870401,0.054460970855974
21.563872,12.232176710420434,0.0542716614924506
21.566252,12.246521968443052,0.0540779388787686
21.568652,12.265942363145149,0.0538718520641445
21.57104,12.294162556765825,0.0536520578462438
21.57342,12.324524620759778,0.0534250027427876
21.57582,12.350183635126598,0.0532239318487419
21.578208,12.37398031837386,0.0530245650091984
21.580588,12.395495361620988,0.0528370103562487
21.582988,12.413657829681338,0.052664234050732
21.585376,12.425953765129297,0.0525007796182892
21.587756,12.440112031696817,0.0523369390744886
21.590152,12.450126327144638,0.0521844573826205
21.59254,12.457347125913127,0.0520336378772894
21.594924,12.465219550987673,0.0518891536958527
21.59732,12.469367313823104,0.0517457615034461
21.599708,12.474166702964595,0.0516090329273192
21.602092,12.477895156919448,0.0514757120498047
21.604488,12.480040819008464,0.0513368619254882
21.60688,12.484840208149954,0.0512007919427004
21.60926,12.490710532478085,0.0510614068592765
21.61166,12.49779156161971,0.0509151748742397
21.614048,12.502730720388062,0.0507763637293157
21.616428,12.504596843223355,0.0506450455319098
21.618836,12.499385728632763,0.0505286136721084
21.62122,12.49217251329575,0.0504158252676448
