Time,Force,Position
24.102512,6.609646966132292,0.1644831981957349
24.104912,6.618677186618486,0.1644647442482692
24.107299999999995,6.63236323490357,0.1643650919156901
24.10968,6.646793457293331,0.1643051786591951
24.11208,6.671279509385552,0.1641282139884953
24.114467999999995,6.71648541707624,0.1635113785490874
24.116848,6.760994372490498,0.1628144744326279
24.119244,6.804759153800081,0.1620761531017058
24.121632,6.842377863243551,0.1614850777834666
24.124028,6.884372861232194,0.1608569699836953
24.126424,6.930651599967386,0.1601453688965422
24.128812,6.979771057210159,0.1593461129884972
24.131196,7.019578858855149,0.1586971864561341
24.133592,7.062831783485532,0.158011621522328
24.13598,7.109622378899926,0.1573240661353691
24.13836,7.168470904763195,0.1564958294210415
24.140764,7.231044092865579,0.1556165452372516
24.143152,7.290451697236291,0.154774527010077
24.145536,7.347205574554524,0.1539915759817685
24.147932,7.400606876685983,0.1532954194531419
24.15032,7.455218883630942,0.1525755036189404
24.152704,7.510297421284724,0.1517867287608112
24.1551,7.564259697781493,0.1509480408225142
24.157488,7.61137895013572,0.1501539382119248
24.159872,7.657055180250969,0.1493820092594702
24.162268,7.692673684805894,0.1488246690952749
24.164656,7.726242866786158,0.1483354548146174
24.167036,7.761581832087359,0.1477911470716585
24.169436,7.794826148843529,0.1472512046209298
24.171824,7.818059961867614,0.1468766763229778
24.174204,7.842177718623235,0.1465351623987515
24.1766,7.862803130565219,0.1462642487152485
24.178992,7.88598972176106,0.1459304764364429
24.181372,7.907500973292449,0.1455807722622289
24.183772,7.924263849226329,0.1452616459529797
24.18616,7.934136479189422,0.1450126460383086
24.18854,7.939120963928146,0.1447993604668516
24.19094,7.94056777788286,0.1445883181785977
24.193328,7.931027596575338,0.1444720952708893
24.195712,7.916599270043447,0.1443907633888438
24.198108,7.901379547578638,0.1443130923718018
24.200496,7.8887663303380595,0.1442445136879739
24.20288,7.877735904963319,0.1441661478671216
24.207664,7.853066653131735,0.1441031852542049
24.210044,7.841057840368971,0.144073009858386
24.21244,7.833844625031962,0.1439788962595403
24.214832,7.825840013762034,0.1438888735918237
24.217212,7.812155861334818,0.1438368637620974
24.219612,7.797447995549206,0.1437668080072428
24.222,7.778224071591564,0.1437463223345184
24.224384,7.764354823567113,0.1436332633766778
24.22678,7.7507651147963825,0.1435057797478548
24.229168,7.731588412666984,0.1434462958414702
24.231552,7.717067538336476,0.1433290008266275
24.233948,7.701708046244807,0.1432534253192178
24.236336,7.688955059377367,0.143187937201921
24.238716,7.6802988218013795,0.1430930150423206
24.241112,7.676670499076623,0.1429571480890838
24.2435,7.6743454289639805,0.1428259525385763
24.24588,7.671833367396236,0.1427398686373316
24.248284,7.671742715455488,0.142603052193145
24.250672,7.667787631648767,0.1425188512102956
24.253052,7.658804632990816,0.1424752399137968
24.255452,7.653313979146501,0.1423615612464255
24.25784,7.648102864555905,0.1422339538450079
24.26022,7.643450828472753,0.1420785579870581
24.26262,7.637727857202961,0.1419411619313055
24.265008,7.637963966344177,0.1417520896368315
24.267392,7.641225889590206,0.1415517600923318
24.269788,7.644580360634852,0.1413819861863947
24.272176,7.6441629476121395,0.1412962473509981
24.27456,7.644257391268626,0.1412202538088899
24.279344,7.645422770111751,0.1411253638899051
24.281728,7.64691301417897,0.1410856637707732
24.284124,7.651616063806107,0.1409913454096292
24.286516,7.654736321567404,0.1409061473378591
24.288892,7.657344722649505,0.1408108462159575
24.291296,7.660232662985327,0.1407010893548092
24.293684,7.662748516268808,0.1405745150452216
24.296068,7.660049463245959,0.1405326445668767
24.312788,7.672105497836966,0.1405285191214761
24.315176,7.680251774591625,0.1405114257589809
24.317556,7.692681792092838,0.1404233360184761
24.31996,7.709535319967465,0.1402581367392261
24.322348,7.728670487842228,0.140052633622324
24.324728,7.749016360530491,0.1398236716195046
24.327124,7.774716909151946,0.1395067910404929
24.329512,7.802047471467481,0.1391508890365702
24.331892,7.822999644491428,0.1388634765794526
24.334288,7.842601343075016,0.1386072491098851
24.336676,7.865368625390276,0.1383365147529594
24.33906,7.893583131437347,0.1380124236721066
24.341456,7.925522299723531,0.1376501254379068
24.343844,7.963607539875825,0.1372021372785985
24.346224,8.003135802267096,0.1367539651859345
24.34862,8.045178022083979,0.1362889744698152
24.351008,8.090712586714499,0.1357669467086932
24.353387999999995,8.135502977240344,0.1352173263711612
24.355784,8.180200819967574,0.1346382242740373
24.358176,8.228902864187637,0.134009472011785
24.360572,8.281097253221336,0.1333256846168116
24.362967999999995,8.32384021703039,0.132754426998984
24.365356,8.35941339561494,0.1322486072739528
24.367736,8.392053307893294,0.1317825167690262
24.370144,8.418267609051815,0.1314108514727341
24.372528,8.445924932449314,0.131042388669364
24.374912,8.47572412622009,0.1306496970662782
24.377308,8.500727722565115,0.1303126785165919
24.379696,8.529316211522392,0.1299446635986958
24.382076,8.558556326785727,0.129579217642735
24.384471999999995,8.590078082049196,0.1291816521870714
24.38686,8.619644958394495,0.1287805559289838
24.38924,8.645394624702062,0.1283907456928431
24.391636,8.667978707277959,0.128016458709733
24.394024,8.692192803547933,0.1276061541424929
24.396404,8.714219703474258,0.1271660677743087
24.398812,8.730287522989574,0.1267642263756092
24.401196,8.74528440731825,0.1263783977876635
24.40358,8.759722213139488,0.1260158240739334
24.405975999999995,8.770295587094752,0.1256936320824468
24.408364,8.776073363624265,0.1254199726935439
24.410744,8.784132780153914,0.1251119148697645
24.413148,8.797779190042233,0.1247544684833812
24.415536,8.810354664743913,0.1244110175706263
24.417916,8.830147146498343,0.1239804747937052
24.420312,8.84584287896132,0.1235681690263377
24.4227,8.851947416572798,0.1232493955076326
24.42508,8.858191723811133,0.122924407428497
24.427484,8.86285323918363,0.1226041814263519
24.429872,8.869936164183127,0.1222454153500143
24.432252,8.872503031010593,0.1219223301667946
24.434648,8.870786157091505,0.1216544405277118
24.437036,8.86995322690395,0.1214116423218289
24.43942,8.866000038955098,0.1212364790114493
24.441816,8.859904980632969,0.121088720671853
24.444204,8.855904570855875,0.1209466702472131
24.446588,8.85120531294448,0.1208330431708867
24.448984,8.846226515779362,0.1207309109184453
24.451367999999995,8.8455314593608,0.1205753536646293
24.453748,8.846978273315516,0.1203932024615439
24.456148,8.845491820964034,0.1202388723520265
24.458532,8.842934433425915,0.1200978689388182
24.460912,8.83893402364882,0.119955015150684
24.463316,8.834002448311946,0.1198193856963506
24.465703999999995,8.827208541855516,0.1196990411714175
24.468088,8.821997427264922,0.1195749690347452
24.470484,8.820371205286582,0.1194258787919261
24.472871999999995,8.819396609614298,0.1192806907269008
24.475256,8.820935971367629,0.1191247091588154
24.477652,8.817400196441488,0.1190234376313202
24.480039999999995,8.812234407821268,0.1189583686594387
24.48242,8.809862115880385,0.1188706012383448
24.48482,8.807909132820079,0.1187656758650004
24.487207999999995,8.80930872494655,0.1186150000468813
24.489588,8.80963738188638,0.118477542208873
24.491983999999995,8.805030671773602,0.1183891150181417
24.494372,8.803496997593879,0.1182664878731902
24.496748,8.799169826734817,0.1181661737820073
24.499156,8.79270078550248,0.1180924669083943
24.50154,8.785160809083505,0.118031765322904
24.50392,8.784418530836696,0.1179077838346036
24.506319999999995,8.784467648522806,0.1177820986968444
24.508704,8.784609314007534,0.1176836960183872
24.511088,8.789686346544874,0.1175376150050331
24.513484,8.79141080389544,0.1174361885824859
24.515868,8.79513736199242,0.1173149203730313
24.518264,8.802868121582238,0.1171539307402192
24.52066,8.811669816358691,0.1169805699874207
24.523048,8.815675913709393,0.116848520007707
24.525431999999995,8.82503668699329,0.1166524506415687
24.527828,8.839100509904318,0.116388457016076
24.530216,8.849579440203096,0.1161469314257918
24.532596,8.858475578636034,0.115908875020887
24.534991999999995,8.865509385949418,0.1156853135639682
24.53738,8.873614128449438,0.1154489861984906
24.539764,8.885723072442294,0.1151725806350374
24.542168,8.899973886808427,0.1148732154440304
24.544556,8.920231003413809,0.1145159864783999
24.54694,8.9363441488995,0.1142026704655334
24.549336,8.954319625504747,0.1138770460695326
24.551724,8.967359735057382,0.1135980851429603
24.554103999999995,8.983612650169935,0.1132838285730424
24.556508,8.99749137748373,0.1129729101937872
24.558896,9.007365903304692,0.1127014415605316
24.561276,9.021803709125928,0.1123702348272815
24.56368,9.031585687148274,0.1120726165704423
24.566068,9.036991376625444,0.1117981292139373
24.568448,9.036670303117088,0.1115681299359699
24.570848,9.042635071101705,0.1112707629576931
24.573232,9.046038659832458,0.1110152858808087
24.575612,9.05116481005591,0.1107546716529717
24.578008,9.062948888824677,0.1104445275473953
24.580396,9.075105054645777,0.1101499019068899
24.582776,9.088471925280372,0.1098383381624241
24.585176,9.103840896661389,0.109510206821189
24.58756,9.118278702482623,0.1091893421187055
24.589944,9.125639270877974,0.108933956765157
24.59234,9.130857968900044,0.1087033607937766
24.594728,9.139569011735752,0.1084266723945972
24.597108,9.144834931586065,0.1081642912097202
24.599512,9.153313656996296,0.107867482027913
24.6019,9.156857015353912,0.1076126274408525
24.60428,9.166406675950782,0.1073067799583286
24.606684,9.178237976547788,0.1069735078298292
24.609072,9.189649968264211,0.1066586093231771
24.611452,9.204926391846609,0.1063147280252353
24.613852,9.22457910397418,0.1059535989238155
24.61624,9.257966982072944,0.1054888345059577
24.618624,9.289212989798434,0.1050505606332966
24.62102,9.321018076031368,0.1045923720156375
24.623408,9.344954528905491,0.1041958293464679
24.625788,9.363303988420943,0.1038346884449104
24.628184,9.384214627190255,0.1034384725794665
24.630572,9.406568288198544,0.1030487213477557
24.632956,9.427199387714136,0.102666851709417
24.635352,9.447970256856586,0.102280705463646
24.63774,9.473956032305368,0.1018464892673177
24.64012,9.499290181448094,0.101409152387526
24.642516,9.52541572652374,0.1009736308853989
24.644904,9.554055229024996,0.1005332515719325
24.647284,9.583486127459174,0.1000960554549042
24.64968,9.615710522572686,0.0996436889875509
24.652068,9.642999550633585,0.0992305202526081
24.654452,9.669077873880989,0.0988341935659761
24.656848,9.691291765262411,0.0984635018218283
24.659236,9.711503555897425,0.0981086229328265
24.661615999999995,9.72691974910668,0.0977843925127983
24.664012,9.72953194190452,0.0975508677954767
24.666404,9.732283904329218,0.0973132105528654
24.668783999999995,9.73382516194042,0.0970902345072656
24.67118,9.740301786604231,0.096832993232621
24.673568,9.747569807200964,0.0965754406411451
24.675948,9.750693856678,0.0963521866705318
24.678348,9.752095344662342,0.0961340109887081
24.680732,9.750144257459908,0.0959492064472398
24.683116,9.748053400630614,0.0957694165495749
24.685516,9.742470198987682,0.0956281783628909
24.687904,9.734465587717754,0.0955157692397368
24.6903,9.725250271634325,0.0954178189001132
24.692699999999995,9.714824250737395,0.0953343048179846
24.695088,9.701185424280554,0.0952791971873815
24.697468,9.685544497077297,0.0952379614146956
24.699872,9.668553095433676,0.0952159456854933
24.702259999999995,9.649419823416784,0.0952129207740042
24.704644,9.631217716959666,0.0952053562974705
24.70704,9.615669337555024,0.0951886123341838
24.709428,9.60319399408344,0.0951480496336377
24.711808,9.595234708783885,0.0950894762675985
24.714203999999995,9.586716344976889,0.095050514482374
24.716592,9.581782873782144,0.0949982730518747
24.718976,9.57750102889346,0.0949513506832254
24.721371999999995,9.57587291105725,0.0948959498164564
24.72376,9.57396525396732,0.0948501604291884
24.726144,9.575130632810446,0.0947814750357047
24.728539999999995,9.581231378706182,0.0946809433682145
24.730928,9.590405160534972,0.0945582820982218
24.733312,9.606935719043376,0.0943771706363287
24.735707999999995,9.626539313484832,0.0941734175318747
24.738096,9.647074073486069,0.0939659002994712
24.740476,9.665746502367746,0.0937664311100687
24.742872,9.685350096809204,0.0935623681726602
24.74526,9.70588485681044,0.0933539577753344
24.74764,9.727211012744592,0.0931450541092224
24.750043999999995,9.753752074985078,0.0928959607806845
24.752428,9.78350594278548,0.092620652359026
24.754812,9.813539349839605,0.0923380205731503
24.757208,9.842362052080228,0.0920703638873304
24.759596,9.868810566522097,0.0918010579448275
24.76198,9.89395582835185,0.0915215844325151
24.764376,9.91472480163643,0.0912543107718475
24.766764,9.933119587122258,0.0909860889343054
24.769148,9.94900041518247,0.0907214316294697
24.771544,9.970096149549017,0.0904182310879979
24.773932,9.986116747236087,0.0901504850553632
24.776312,10.000414783430468,0.0898871839331107
24.778712,10.012710718878427,0.0896383582232687
24.781099999999995,10.01806918652736,0.0894320389555849
24.78348,10.022636258243372,0.0892253662008304
24.785876,10.027622638839963,0.0890054320945684
24.788264,10.037172299436833,0.0887429716361024
24.790648,10.047420808168,0.0884577649750751
24.793044,10.058228395406612,0.0881545901285226
24.795435999999995,10.073878801899218,0.0878010845100634
24.797816,10.08580454615271,0.08746377393769
24.800212,10.096799124846424,0.0871318779231134
24.8026,10.10607114204744,0.0868038095235971
24.804984,10.116693633688817,0.0864594245671621
24.80738,10.129969852382668,0.0861092900387815
24.809771999999995,10.142826762195936,0.0857725634133274
24.812152,10.153402032009067,0.0854546633845327
24.814548,10.16248705775498,0.0851578884286547
24.816939999999995,10.172363479433812,0.0848623222355002
24.81932,10.177024994806311,0.0846027993436458
24.821715999999995,10.183828380552091,0.0843270196125917
24.824107999999995,10.191423162230786,0.0840530083696087
24.826488,10.197947008722842,0.0837875403738312
24.828883999999995,10.206472955961315,0.0835106108456059
24.831275999999995,10.21378819838629,0.0832461315944738
24.833656,10.220963671184402,0.0829871906123103
24.836056,10.225717734355518,0.082753824248655
24.838444,10.230983654205833,0.0825313098310985
24.840824,10.236761430735342,0.0823196408360001
24.843224,10.23690499207794,0.0821554947414444
24.845612,10.237420640472877,0.0820060150026096
24.847992,10.235654648867676,0.0818762227978353
24.850392,10.234400513941674,0.08175685550478
24.85278,10.231284047896114,0.0816436528678677
24.855164,10.22551385479808,0.0815349980971557
24.85756,10.219883431326906,0.0814217098570009
24.859948,10.225474216401311,0.0812449849998206
24.862331999999995,10.236279907782055,0.081036223097163
24.864728,10.25122957028249,0.0808040831869165
24.867116,10.270462973529476,0.080543241099739
24.869499999999995,10.289556607149605,0.0802873561964531
24.8719,10.306787909650176,0.0800376339324892
24.874288,10.32308804659097,0.0797909036376556
24.876672,10.338317248345126,0.0795516060151107
24.879068,10.356759255659195,0.0792915853467771
24.881456,10.372267996667071,0.0790445380807712
24.883835999999995,10.38577463692853,0.0788071698554339
24.886236,10.396627550137516,0.078573908851563
24.888624,10.406549297786722,0.0783439277206591
24.891003999999995,10.423827822115538,0.0780702202335703
24.8934,10.441805194578652,0.0777754279491529
24.895792,10.459130940735712,0.0774741714340772
24.898171999999995,10.474362038347737,0.0771596932635679
24.900572,10.48917382707918,0.0768580981328644
24.90296,10.50677911248996,0.0765489558658613
24.905344,10.527597203460653,0.0762202265481712
24.90774,10.538125251445544,0.0759491801094765
24.910128,10.545720033124235,0.0756912211633438
24.912512,10.545306411817265,0.0754703960845725
24.914908,10.541959524204096,0.0752614882874768
24.917296,10.540894276591064,0.0750355523190955
24.91968,10.54318160416481,0.0747860711051188
24.922076,10.548821506925329,0.0745133586274582
24.924464,10.556603280059129,0.0742279986750471
24.926844,10.562522722073368,0.0739482312775437
24.929244,10.570584034460888,0.0736554533750654
24.931632,10.58306885722182,0.0733334075083356
24.934012,10.599557881475585,0.0729950030848056
24.936412,10.618468315356353,0.0726372025472368
24.9388,10.630301511811227,0.0723126903804741
24.941184,10.6426465649453,0.0719993943197987
24.94358,10.658856049945344,0.071674410679203
24.945968,10.674087147557366,0.071377579950379
24.948348,10.692391281102449,0.0710671158602639
24.950748,10.710835184274387,0.0707539274306871
24.953132,10.725135116326634,0.0704616568695755
24.955512,10.73957481800574,0.0701636787210067
24.957912,10.754014519684844,0.0698662666031979
24.960296,10.772458422856788,0.0695520228348594
24.962676,10.792904426775143,0.0692305872855497
24.96508,10.810137625133589,0.0689283222908654
24.967472,10.824949413865031,0.0686475520447035
24.969852,10.832916282596065,0.0684144550800243
24.972248,10.841534777633154,0.0681886921479232
24.97464,10.848942567856744,0.0679730296786053
24.97702,10.85807291957303,0.0677586750607683
24.979416,10.86478186166232,0.0675648317164138
24.981804,10.868138228564831,0.0673926949178959
24.984188,10.866931315467074,0.0672516256556544
24.986584,10.865584632742452,0.0671141527428967
24.988972,10.863446554084916,0.0669744951877646
24.991356,10.8591666050541,0.0668464182708229
24.993752,10.858518770463782,0.0666893142689384
24.99614,10.856008604753905,0.0665357711054144
24.998524,10.855360770163584,0.0663797130524035
25.000924,10.861650403372291,0.0662016464007514
25.003312,10.877298914007026,0.0659835277039523
25.005692,10.892807655014904,0.0657697609757364
25.008092,10.911109892702116,0.0655527632927012
25.01048,10.928341195202687,0.0653419393780655
25.012864,10.94450156251662,0.0651361053030211
25.01526,10.957728663524362,0.0649380822774134
25.017648,10.977800684532513,0.0646961548883836
25.020028,10.997221079234604,0.0644490829322719
25.022424,11.01850380505625,0.0641996842118305
25.024812,11.035782329385066,0.0639639124445281
25.027196,11.052269457780962,0.0637258075078028
25.029592,11.073180096550274,0.0634641022059584
25.03198,11.0973035408795,0.0631869084914694
25.03436,11.124500021141785,0.0628982857653941
25.036764,11.152767436590704,0.0626057144540243
25.039152,11.17917252092007,0.0623156415585803
25.041536,11.206229231555492,0.0620339191274892
25.043932,11.233285942190912,0.0617529725598391
25.04632,11.255407285773725,0.0614866453550935
25.0487,11.268309521557368,0.0612544612861126
25.0511,11.272644275847902,0.0610631813252937
25.053488,11.27525646864574,0.0608701602114644
25.055872,11.276146099950884,0.060676369568359
25.058268,11.27489386088275,0.0604920951819243
25.060656,11.277785592934311,0.0602923320657202
25.06304,11.28547292241162,0.0600834996630826
25.065436,11.29381187819499,0.0598826215587146
25.067824,11.298146632485528,0.0596931970470592
25.070204,11.300898594910228,0.0594983958613919
25.072604,11.307003132521704,0.0592857335507449
25.074992,11.315761397185652,0.0590744501800393
25.077372,11.319956381849329,0.0588899569203913
25.079772,11.323220200953228,0.0587067239274056
25.08216,11.325413084870483,0.0585284063765046
25.084544,11.325184559160745,0.0583668126436805
25.08694,11.331102105317116,0.0581858240692043
25.089328,11.333015449980657,0.0580156787666712
25.091712,11.33679112576375,0.0578443868118562
25.094108,11.342429132666403,0.0576713732630124
25.096496,11.354492750688884,0.0574713645831105
25.09888,11.369769174271283,0.057257960230823
25.101276,11.388770260092793,0.0570420001376617
25.103668,11.40469830998125,0.0568359738761077
25.106048,11.424770330989402,0.0566163818016367
25.108444,11.444702582370692,0.0564018634911518
25.110832,11.462912272259285,0.0561858571499826
25.113212,11.475255429535489,0.0559816077372344
25.115608,11.493604889050944,0.0557630451663537
25.117996,11.514747845245733,0.0555435091771388
25.12038,11.535611262186798,0.0553323465983601
