Time,Force,Position
3.5615360000000003,1.775761478147476,0.1894975543917782
3.563876,1.8468850850221423,0.1876237827421933
3.566216,1.9195461577922712,0.1854576196328794
3.56856,1.987738394218612,0.1836642471312107
3.5708959999999994,2.0592851016895977,0.1810021308503709
3.573244,2.1262250990478044,0.1779893806200698
3.575584,2.1805499833075643,0.1758046529708947
3.577936,2.221513684506333,0.1745850773410132
3.58028,2.2622922901078684,0.173239968996862
3.582624,2.299440677126776,0.171872510506975
3.5943439999999995,2.3295080350040567,0.171525010227478
3.596684,2.3406801258635275,0.1713005692063876
3.599028,2.3508285033646024,0.171015500815477
3.601372,2.359161771574364,0.1707136825312057
3.603716,2.367075730903545,0.170501598395071
3.60606,2.382019705830372,0.1700131377100626
3.608408,2.3984067029961755,0.1694955321184559
3.610744,2.4149806916170826,0.1688029214507896
3.613088,2.422662333520786,0.1685037526503034
3.615436,2.433417011357545,0.1680282541276049
3.617772,2.440120265873228,0.1679111086401437
3.620116,2.4491977081876644,0.1677343847626564
3.622456,2.4599977119947978,0.1674860042192019
3.624804,2.4741502909887068,0.1669973692946239
3.62714,2.484298668489782,0.1667476114324339
3.629484,2.4986835649091685,0.1663615241446771
3.63184,2.5174447498737256,0.1658147314556152
3.634188,2.542072467450673,0.1649419467427664
3.636532,2.570332299468117,0.1637497783616604
3.638872,2.595286778127028,0.162685316557286
3.64122,2.617959616785802,0.1618352771376221
3.64356,2.6363487146980216,0.1612846228984827
3.645904,2.6575313092895763,0.1606167216553811
3.648244,2.6712645794029046,0.1602508081494493
3.650592,2.678107603545447,0.1601233501838545
3.652936,2.683088296568433,0.1600836560493223
3.655276,2.692864587017171,0.1598387258189071
3.65762,2.707948331570858,0.159413979465229
3.659952,2.7299695439235743,0.1586555362506341
3.662292,2.7481263244103173,0.1580800537563015
3.664636,2.769216371203255,0.1573878364621437
3.66698,2.7903064179961925,0.1567093949305405
3.669324,2.8155404359088245,0.1558489864534026
3.671668,2.8371895612092035,0.1550979725259927
3.674008,2.8575354338974663,0.154331352462972
3.676344,2.87257385248078,0.1537505983486467
3.678692,2.8858897095713965,0.1532350417877239
3.681044,2.8978550922216546,0.1528155146752012
3.683384,2.9118225756183294,0.1523165747684799
3.685728,2.927140533455362,0.1517292348726659
3.688072,2.9398047642399217,0.15122865365113
3.690424,2.949907815770623,0.1508854476614471
3.69276,2.9585206232341053,0.1506524217197973
3.695104,2.976724625549091,0.1500451173989098
3.697448,2.999863994916689,0.1492265240970966
3.699792,3.0204894068586725,0.1484853845209095
3.702132,3.03776224361388,0.1479372122863967
3.704476,3.0499599436896148,0.1476052604264804
3.706828,3.060295312645794,0.1473456243515126
3.709168,3.0733316304826905,0.1469212396012768
3.711516,3.080920724587777,0.1466625046287142
3.713868,3.0888819057452013,0.1464480953358895
3.716208,3.0930712028352696,0.1464478285536775
3.718548,3.103127032537728,0.1462392157453928
3.7209,3.114114027799964,0.1459998253066342
3.723236,3.128174058995256,0.145640037890153
3.72558,3.1416750116831067,0.1453524881445669
3.727924,3.159040396236932,0.1449419250831266
3.730272,3.1737520537382813,0.1446043225403569
3.732612,3.182736948254101,0.1444466036703535
3.734956,3.190790677210142,0.1443152110442519
3.737304,3.203919542845655,0.1439901866487351
3.73964,3.2221235451606405,0.1434843582283071
3.74198,3.2347405541169567,0.1431517886030422
3.744324,3.2437726704610195,0.142913731989178
3.746672,3.250523146804945,0.1427777758510423
3.749008,3.256202687962232,0.1426852382826959
3.751352,3.2689594665454083,0.1423376320496134
3.7537,3.2829269499420834,0.1419397626315414
3.756032,3.294752562965481,0.1416345017435141
3.758372,3.306578175988878,0.1413204937374433
3.760716,3.3177521627062183,0.141002821075879
3.763064,3.3304163934907773,0.1405934769718373
3.7654,3.340147357969141,0.1402867926397855
3.767744,3.3500180920743645,0.1399645524181867
3.770092,3.353742754313478,0.1398599572619449
3.772436,3.3608199917393664,0.1396170135238439
3.77478,3.36659397655314,0.1393693013560955
3.77712,3.3731593572998317,0.1391127653956974
3.779472,3.3870342928978894,0.1386702523648742
3.781808,3.4034231859215613,0.1381832106015949
3.784152,3.4182292870793978,0.1377285269386776
3.786492,3.4263774596919254,0.1374628075734938
3.788836,3.435456797864231,0.1371702238493165
3.79118,3.4487726549548485,0.1368066368692519
3.793524,3.465021778351661,0.1363509414331322
3.795872,3.485694412121888,0.1357319355583312
3.798216,3.5015714484663625,0.1352613922932623
3.800564,3.511022873691006,0.1350157501053061
3.802912,3.515911018915374,0.1349499329349688
3.805256,3.524523826378857,0.1347881939266979
3.8076,3.532205468282561,0.1346504318974084
3.80994,3.538536635745906,0.1345827984465962
3.812292,3.543796868022612,0.1345540056803026
3.814624,3.549708726605376,0.1345325059092095
3.816972,3.564560153733586,0.134236494109566
3.84746,3.628519662957354,0.1340899277270391
3.849804,3.635317361129523,0.1339042689275199
3.852148,3.6423945985554114,0.1336930732187296
3.854488,3.652824411168076,0.1333634608995765
3.856828,3.663673532661323,0.1329900712517454
3.85918,3.6762452156472647,0.1325873330520983
3.861524,3.686163171580732,0.1322329444239741
3.863868,3.690633903782389,0.1319986005265207
3.866208,3.6961755711706847,0.1317301849311534
3.868552,3.6999946770662846,0.1314871423735485
3.870884,3.703162156655826,0.1312380265524049
3.873228,3.704327535498951,0.1310455047713633
3.875576,3.701069403968661,0.131008308584544
3.877924,3.699533833931068,0.1309434267497815
3.880268,3.699069199080113,0.1308438958817208
3.882612,3.702236678669655,0.1306008056007145
3.884952,3.710991151617866,0.1302334017563444
3.887296,3.715741423073244,0.1299758979551478
3.889636,3.727429162327652,0.1295365055870539
3.891972,3.741910398261393,0.1290341569331217
3.894316,3.7591851308744704,0.1284745027365715
3.896656,3.772315892367853,0.1280466948551346
3.898996,3.781721991622122,0.1276985208632069
3.90134,3.786844350129837,0.1274854925301892
3.90368,3.795039744570608,0.1271923890622215
3.906028,3.8037942175188193,0.1268488462329941
3.908368,3.814411021586588,0.1264652167265901
3.91072,3.825399912706693,0.1261151669127202
3.913064,3.834246933453522,0.1258298203070275
3.915408,3.845375594200488,0.1254639440469624
3.917748,3.857016111626652,0.1251216307442448
3.920084,3.870518960172372,0.1247414913553704
3.922432,3.890028110957343,0.1242106097692923
3.924776,3.905812599503201,0.1237550956855513
3.927124,3.92066592248928,0.1233215072416622
3.929468,3.932026900661723,0.1230159669611876
3.931812,3.945389979580583,0.1226699911881326
3.93416,3.9648991303655534,0.1221714009307773
3.936496,3.9801245404039713,0.1218017936726677
3.938844,3.995489720069248,0.1214231061484976
3.941192,4.008713029361249,0.121106033462231
3.943532,4.024217978653384,0.1207226197874641
3.945876,4.043307820557776,0.1202865312341341
3.948224,4.063608367275664,0.1198070173574324
3.95056,4.07976494287386,0.1194361380231985
3.9529,4.0964333751512525,0.1190925060794085
3.95524,4.114032972988422,0.1187344233194637
3.957588,4.133122814892813,0.1183129811370427
3.959924,4.152212656797202,0.1178867351774109
3.962268,4.172605751313708,0.11748120657866
3.964616,4.191276284337518,0.1170944907008812
3.96696,4.210366126241908,0.1166763786397865
3.9693,4.224939909974268,0.1163299410331549
3.971644,4.242446960012821,0.1159245006163512
3.973992,4.259954010051376,0.1155203405026905
3.976336,4.27760082971679,0.1151034569955836
3.97868,4.289660656023535,0.1147818399806046
3.981036,4.296505576023947,0.1145861946807728
3.983372,4.303350496024359,0.1143900367056374
3.985716,4.311266351211408,0.1141702619087481
3.98806,4.322534781585234,0.1138635246156546
3.990404,4.328308766399006,0.1136980236049719
3.99274,4.331149484906585,0.1135876429995297
3.995084,4.334129973041024,0.1134659582648919
3.997432,4.33790185710838,0.1133410989760386
3.999772,4.336878143749985,0.113299715683025
4.004456,4.333340472965975,0.1132780051062306
4.0068,4.334179090727136,0.1132085124427751
4.00914,4.332923059943262,0.1131236976104797
4.011492,4.335671230652224,0.1129606722886596
4.01384,4.336929157293966,0.1128578154614555
4.016184,4.3399096454284045,0.1127391983132643
4.018532,4.3408880328164265,0.1126594033002818
4.020876,4.344659916883783,0.1125400319369638
4.023224,4.349642505764638,0.1123854601972725
4.025556,4.353274620205133,0.1122761469840745
4.027904,4.359188374645767,0.1121055546525842
4.030256,4.364590272407203,0.1119139883691347
4.032611999999999,4.369712630914918,0.1117476963668919
4.034956,4.37069101830294,0.1116691940880584
4.037296,4.377024081624155,0.111468030688195
4.039648,4.385499015318645,0.1112178662831357
4.041988,4.393414870505695,0.1110127261825606
4.044332,4.39960816420005,0.1108214162194186
4.046684,4.407943328267681,0.1105776070553087
4.049028,4.417489197148811,0.1103006449896572
4.051368,4.427454374910521,0.109989316623175
4.053712,4.4349981430452345,0.1097522092840551
4.056048,4.442913998232284,0.109546795903178
4.058396,4.445614947113002,0.1094529597122463
4.088852,4.468657976966243,0.1094512971567496
4.091196,4.4785740370418425,0.1094000155988867
4.093535999999999,4.492074989729693,0.1093113596555561
4.095888,4.504365237604046,0.1092584912703716
4.098224,4.520380147717511,0.1091604993746102
4.100568,4.535463892271198,0.1090730614558183
4.102908,4.552829276825023,0.1089317109765122
4.105256,4.574338632498541,0.1087106138355419
4.1076,4.597570549664756,0.1084757022599108
4.10994,4.619731531644332,0.1082606102917008
4.112292,4.643242988064267,0.1080054889682436
4.114636,4.668337236350039,0.1077464202815409
4.11698,4.690777757583336,0.1075130615883346
4.119324,4.712007574003134,0.1073155222250707
4.121676,4.735798569676789,0.1070471039941871
4.12402,4.758006773484609,0.1067831716762791
4.126364,4.790784559531954,0.1063150504195667
4.128708,4.825052589646518,0.1057959788537869
4.131044,4.854664791962191,0.1053324246202383
4.133388,4.8836253679718045,0.1048660080219537
4.135727999999999,4.909652677675224,0.1044525783461805
4.138068,4.933026260326168,0.1040662750153747
4.140412,4.952395641484278,0.1037441459448092
4.142755999999999,4.9720445618961095,0.1034052268173029
4.145104,4.987037654509049,0.1031225428191579
4.14744,5.004312387122126,0.1027899958305622
4.149788,5.020516184548564,0.1024816342961013
4.15214,5.036719981975002,0.1021776573960083
4.15448,5.055205419401577,0.101829182227497
4.156823999999999,5.077183201641789,0.1014049812062438
4.159172,5.097019113508724,0.101022640618518
4.161516,5.117553873509959,0.1005956961108351
4.163851999999999,5.138228403138054,0.1001574343799406
4.166195999999999,5.156388975340534,0.0997281174158224
4.16854,5.169474410863544,0.0993776258035249
4.170876,5.1856328823196085,0.0989841408988115
4.173216,5.193503411536285,0.0987253152376393
4.175564,5.203096502245658,0.0984607207096377
4.177904,5.218416355940561,0.0981333419659163
4.180248,5.235738310381881,0.097784446585575
4.182592,5.249335602584087,0.0974696944262805
4.18494,5.263212434040015,0.0971380449888013
4.18728,5.281652545496216,0.096719893834827
4.189623999999999,5.299021721765779,0.0963216210886857
4.191984,5.316390898035342,0.0959221845301546
4.194332,5.335762175051323,0.0955029546175915
4.196676,5.352991581694024,0.0951183551139138
4.19902,5.364633994978057,0.0947828926834802
4.201368,5.373482911582755,0.0944754576658738
4.203712,5.380329727441035,0.0941954138895917
4.206052,5.3843830466199805,0.0939379732033428
4.208404,5.387225660985429,0.0937072862541693
4.210744,5.393932707216849,0.0934373331943867
4.213092,5.404783724567964,0.0931105821472241
4.215432,5.418568008225275,0.092750981257771
4.217776,5.424995515202975,0.0924985800991953
4.220111999999999,5.43556699330037,0.0921885059015469
4.22246,5.44269334841237,0.0918942869879637
4.224808,5.446095041285259,0.0916322423908894
4.227151999999999,5.441208791918759,0.0914830893528684
4.229496,5.44083860072429,0.0913039823637756
4.23184,5.442051201395659,0.0911278771921463
4.234188,5.440050996507112,0.0910011539263593
4.236528,5.435769151618427,0.0909149871933796
4.238875999999999,5.431347537102882,0.0908372841630665
4.241228,5.423713117027422,0.0908076894474433
4.243568,5.4212936032582935,0.0907070455216455
4.245908,5.426602953221111,0.0905315121854088
4.24826,5.4297704328106535,0.0903871175297288
4.250604,5.429725106840278,0.0902896699938121
4.252956,5.435686083109156,0.0901230184787694
4.255296,5.439505189004755,0.0899875040544603
4.257644,5.4374577622879645,0.0899129868954536
4.262328,5.426098679973389,0.0899103454474128
4.264684,5.424842649189517,0.0898370881999256
4.26938,5.413902875755524,0.0898084364492531
4.27172,5.411016831277572,0.0897852897635108
4.274064,5.416278959412148,0.0896612434968406
4.27642,5.417816425307611,0.0895660322426662
4.278768,5.416560394523739,0.0894925472735225
4.302212,5.345752173583819,0.089488305348493
4.304556,5.3425865898521465,0.0894822892695571
4.3069,5.340631710933973,0.0894517832076082
4.309244,5.342820803135493,0.089366605691297
4.311592,5.343938960150375,0.0892978252978287
4.31394,5.344777577911535,0.0892458389450396
4.316276,5.348037605299695,0.0891450192680335
4.31862,5.348224596754798,0.0890829386467132
4.320968,5.34347622115729,0.0890730836228875
4.323316,5.341661111865976,0.089033640901938
4.325656,5.340497628880722,0.0890044355229195
4.327999999999999,5.340265311455244,0.0889682989417513
4.330352,5.342314634029904,0.0888928923831279
4.332695999999999,5.348368158097397,0.0887737568328381
4.335039999999999,5.363640789964057,0.0885435546955481
4.337392,5.38277785369669,0.0882768357334291
4.339732,5.4091319244820735,0.0879212021140846
4.342076,5.435485995267456,0.0875684319348701
4.34442,5.458534712694306,0.0872217589084211
4.346772,5.48600694049457,0.0868103564254285
4.349124,5.508823340495943,0.0864339663781775
4.351476,5.53485254605723,0.0860198370647341
4.353828,5.5602301253124615,0.0856002839048864
4.35618,5.588680740500746,0.0851543127599998
4.358524,5.616060420502393,0.0847248502446221
4.360863999999999,5.65158827311657,0.0842145062035334
4.363216,5.6821807586781325,0.0837469918146271
4.365564,5.717056984986249,0.0832288993554096
4.367912,5.756356721667781,0.0826512026397053
4.370256,5.796867163162811,0.0820587052315989
4.372599999999999,5.840869949471477,0.0814163053877971
4.374944,5.884081339847224,0.0807751796534033
4.377292,5.9254303991034165,0.0801519465185444
4.379624,5.965056896866911,0.0795402160210077
4.381968,6.000679193137572,0.0789753972311459
4.384308,6.0375121942217325,0.0783963871052401
4.386656,6.072343094559476,0.0778443607136606
4.388996,6.105311663777661,0.0773028320819061
4.391336,6.138140463368988,0.0767714027985885
4.393688,6.168687622960177,0.0762779269125207
4.396027999999999,6.202168048857562,0.0757651574276721
4.398376,6.231923812515831,0.0752768273105144
4.400716,6.259677475427686,0.0748065967125204
4.403068,6.28035390091365,0.0743972100161807
4.405404,6.301030326399615,0.0739884931894354
4.407748,6.311836017780356,0.0736519016571011
4.410095999999999,6.329579176960125,0.0732655795155427
4.412436,6.339825789833426,0.0729574652023404
4.41478,6.346440288266228,0.0727055566605343
4.417123999999999,6.349981750765978,0.072480559061668
4.419472,6.349099702892312,0.0723074371991839
4.421804,6.347286489458868,0.0721379626692549
4.424148,6.346124902331481,0.0719792580339495
4.426496,6.34775681188343,0.0718110001448372
4.42884,6.347386620688962,0.0716570672883423
4.431184,6.343803623934578,0.0715350034375304
4.433528,6.3352852601275815,0.0714443232728574
4.435876,6.329700162626781,0.0713361163230452
4.438219999999999,6.325697856991818,0.0712351207633675
4.440568,6.320764385797075,0.0711376078526968
4.442915999999999,6.315271836094891,0.071067867363509
4.44526,6.309359977512127,0.0710186716033012
4.447604,6.303959975608561,0.0709867564488883
4.449948,6.301353470384329,0.0709447208195813
4.452296,6.298746965160098,0.0709026468802219
4.45464,6.304009093294673,0.0708133486728029
4.456988,6.30792074698889,0.0707488477866107
4.45934,6.3182580118029374,0.0706233936471865
4.461684,6.3318080821769005,0.0704680288112871
4.464028,6.3461495484837815,0.0703161930146446
4.466376,6.3647747555372165,0.0701251425912472
4.468719999999999,6.382980653710072,0.0699541972335407
4.47106,6.402257487069567,0.0697749826214603
4.473404,6.415388248562949,0.0696427632925911
4.475752,6.427308305242832,0.069526558972807
4.478088,6.440299297109354,0.0694003226671275
4.480432,6.457294490468711,0.0692477320265289
4.482787999999999,6.47214781345479,0.0691159951219317
4.485132,6.483276474201757,0.0689965796886402
4.487476,6.494684674202444,0.0688641169435098
4.489815999999999,6.505301478270212,0.0687279852766632
4.492156,6.516058051964841,0.0685851945154064
4.494488,6.529096265659606,0.0684167220657475
4.496832,6.548280551220483,0.0682064049403148
4.49918,6.566393901594721,0.0680055785051004
4.501524,6.582225611968821,0.0678332206059048
4.503868,6.597545465663723,0.0676453405008693
4.506212,6.610863218612209,0.0674710736184747
4.50856,6.622178870814278,0.0673097827784247
4.510892,6.633913831896929,0.06712932407732
4.513236,6.640853195553827,0.0669693369831879
4.515588,6.65207629995728,0.0667739194118791
4.517928,6.65836403730812,0.0666041400863473
4.520276,6.667864580218875,0.0664071141149253
4.522616,6.683650964622602,0.0661637784354351
4.52496,6.701718989026468,0.065898034839694
4.527304,6.719926783057192,0.0656278760440342
4.529652,6.738693655595356,0.0653330302725829
4.532004,6.763886139253353,0.0649886053660358
4.534348,6.788799083657628,0.0646581297585672
4.536692,6.814271106569345,0.0643034536056116
4.539035999999999,6.839882899107922,0.0639433650089806
4.541384,6.861770029407385,0.0635931504338531
4.543728,6.872855260041846,0.0632929133226539
4.546075999999999,6.888503770676581,0.0629487866628143
4.54842,6.900846927952785,0.0625945338456004
4.550764,6.910117049295932,0.0622589395402688
4.553103999999999,6.920318336198859,0.061922508324715
4.555448,6.9306593927286455,0.0615803262535668
4.557792,6.94179184519135,0.0612438069285154
4.560131999999999,6.9538554632138325,0.0609046708660878
4.562476,6.964056750116759,0.0605720740134557
4.564824,6.978541777766239,0.0602074554025517
4.567159999999999,6.992235409482801,0.0598399073183355
4.5695,6.9982001774674165,0.0594989286561609
4.571848,7.003885406198311,0.0591727493456744
4.574188,7.007428764555929,0.0588622610329905
4.576528,7.010972122913547,0.0585525161761844
4.578872,7.006227539031775,0.0582908734340486
4.58122,7.003624825523283,0.0580151784163848
4.583559999999999,6.999811407201291,0.0577526737511977
4.585904,6.99627752813302,0.0574782732917271
4.588248,6.994605980184305,0.0572007772122301
4.590592,7.000942835221258,0.0568888866439383
4.592931999999999,7.0025766406310765,0.056625065937081
4.595276,7.005793237906729,0.0563705181268921
4.597616,7.015016137421633,0.0560925226120197
4.599956,7.022516475443842,0.0558113573130155
4.6023,7.029365187159993,0.0555196307550574
4.604644,7.037284834062781,0.055222771562339
4.606984,7.04506471133871,0.0549314120196679
4.609328,7.0477694519351655,0.0546617196224729
4.611672,7.051265588464541,0.0543986713980615
4.614016,7.053830559434137,0.0541365786344113
4.616352,7.063193228575901,0.0538573542330015
4.618696,7.067900069918774,0.0535820275664655
4.621044,7.0696736449554525,0.0533131132591842
4.623392,7.068886040738274,0.0530748125045062
4.625736,7.075175673946983,0.0528077523830133
4.62808,7.077461105662858,0.0525556287104843
4.63042,7.083610969244709,0.0522961376882323
4.632752,7.085197552826283,0.0520734496210873
4.635096,7.087855071594495,0.0518448731185391
4.63744,7.085297684056377,0.0516430888541211
4.63978,7.08129727427928,0.0514235664700736
4.642124,7.077716173382767,0.0511863810063828
4.644468,7.064124568754168,0.0509828200674653
4.646804,7.053186691178045,0.0507837854982607
4.64914,7.044623001400675,0.0506012258034997
4.651492,7.030192779010914,0.0504319219688297
4.653843999999999,7.014691621434515,0.0502681233599129
4.656187999999999,7.006267701284005,0.050077908010309
