Time,Force,Position
4.911292,2.158670823652036,0.1684459250511517
4.918323999999999,2.2383562244462034,0.1684275421603297
4.920668,2.261025271389239,0.168145487968943
4.923008,2.283416674936422,0.1675759398444155
4.925344,2.2966380883705533,0.1671115916115244
4.932379999999999,2.294311122400042,0.1670495310319263
4.934724,2.2960336838927384,0.1669843772804179
4.937064,2.299758346131852,0.1668089190097218
4.939407999999999,2.3070679009832182,0.1664714445606052
4.94174,2.316751643633338,0.1660718660410854
4.944092,2.3313235315078287,0.1655248399930491
4.9464440000000005,2.3502244860992465,0.1649439505357099
4.948795999999999,2.373641498862696,0.1641160022584636
4.95114,2.39999177793234,0.1631036603890784
4.953484,2.423548560322649,0.1622626008475505
4.955828,2.442449514914066,0.1616714566095914
4.958163999999999,2.462141865438402,0.1610790327509401
4.9605120000000005,2.4831846904030974,0.1603791802094984
4.96286,2.5082789386888686,0.1593730170635686
4.965203999999999,2.534863431041859,0.1582465873113714
4.967552,2.555441621155599,0.1574809049658656
4.969891999999999,2.5717360705227845,0.1569761089784445
4.972243999999999,2.5913358732485032,0.1563788623897629
4.974583999999999,2.617593604519531,0.1554851406198213
4.976928,2.6423610917233384,0.1547265071873703
4.97928,2.6737865074724554,0.1537007298752225
4.98162,2.701999117661656,0.1528704774968334
4.983963999999999,2.7237861167310253,0.1523674033934805
4.98632,2.7454805680017773,0.1517803003287511
4.988651999999999,2.76349757886166,0.1512322455649387
4.990996,2.7794199411765086,0.1507068340536616
4.993336,2.789895079759547,0.1503798677623359
4.995684,2.8062367509549766,0.1498157435651682
4.998024,2.822066565471208,0.149231754779046
5.000372,2.8372447536813814,0.1486435438743647
5.002719999999999,2.8532143378244736,0.1480375042795687
5.005055999999999,2.869044152340705,0.1474653970959838
5.0167720000000005,2.9074938961138588,0.1472105479663291
5.019123999999999,2.9169906473088765,0.1470549558952141
5.021463999999999,2.924485297757477,0.1469865394985779
5.028503999999999,2.9341218185793547,0.1468207967751266
5.030848,2.9437130134308584,0.1464771944955421
5.033195999999999,2.952465590521201,0.1462438894777589
5.035536,2.967456787276271,0.1458424940774666
5.03788,2.982168444777621,0.1454826089650566
5.040223999999999,3.0012563908241416,0.1450076586156848
5.042568,3.014198265004551,0.1447917757019155
5.04492,3.0296540966105763,0.1445328675281735
5.047256,3.0463206330301,0.1442150937444179
5.049604,3.062615082397285,0.1438561750109592
5.051956,3.078118135831554,0.1435142306092552
5.0543000000000005,3.09497166370618,0.1430900759054268
5.056644,3.114246601207805,0.1425289551995183
5.058988,3.135942948336427,0.1418406525222848
5.061324,3.1585704610248277,0.141119386111242
5.063667999999999,3.180638895205786,0.14047020840589
5.066016,3.1980042797596107,0.1400733220143632
5.068364,3.213227793940158,0.139763865067045
5.070695999999999,3.2260298984937075,0.1395762413066661
5.07304,3.2433480612192893,0.1392746203862073
5.075387999999999,3.262668324691287,0.1388999785292471
5.077728,3.2786360129765093,0.1386837790967569
5.080075999999999,3.2973046501424497,0.1383188739707243
5.08242,3.309874437270522,0.1380964965248858
5.084768,3.322583994025455,0.1378603595812615
5.087112,3.3310570318620774,0.1377027137334436
5.089455999999999,3.343674040818393,0.1373970902618476
5.091815999999999,3.3536373227222342,0.1371561998522912
5.094164,3.3582459286928827,0.1371174680604256
5.096507999999999,3.364716865783088,0.1370303739218471
5.098852,3.369837328432934,0.1370157606176799
5.101204,3.378961992575614,0.1368759289713125
5.108235999999999,3.397396416458208,0.1367354471660049
5.13872,3.411966408474828,0.1367002321704678
5.141068,3.4179254888858357,0.136593903984925
5.143403999999999,3.422673864483344,0.1365441809131942
5.145748,3.4299834193347105,0.13637155584559
5.150436,3.4328694638126627,0.1363704010450879
5.152776,3.4392478531042507,0.1362227920191417
5.155119999999999,3.4439036809031425,0.1361062382974455
5.157467999999999,3.449630443888673,0.1359522162378616
5.159804,3.4512132357545093,0.1359359485503848
5.162143999999999,3.453447653926403,0.1359272224813765
5.164492,3.458335799150772,0.1358657876844683
5.166832,3.4706732688533672,0.1356204919767372
5.169168,3.483150508182823,0.1353653919271503
5.171511999999999,3.497629848258696,0.1350459914016413
5.173856,3.5169047857603197,0.1345984897524261
5.176192,3.5305927299032733,0.1342830300721452
5.178536,3.5465623140463656,0.1338750397130139
5.241855999999999,3.577241659832938,0.1333949905871977
5.244196,3.5760781768476826,0.133365604442441
5.246548,3.5749146938624263,0.1333363006243263
5.248891999999999,3.5777554123700046,0.1331924715998894
5.251236,3.5825982316239995,0.1329932023958475
5.253592,3.5896754690498893,0.1327929792507101
5.25594,3.597404332781836,0.1326012790837147
5.25828,3.607926693193118,0.1323469183949349
5.260623999999999,3.621894176589792,0.1320307027455464
5.262968,3.6370723647999657,0.1316628987515953
5.265304,3.655183819316335,0.1312259118648782
5.267648,3.67529737457912,0.1307338965610126
5.269991999999999,3.6936883683492097,0.1302728717490914
5.272332,3.709797722119162,0.1298910242325966
5.274676,3.723625435888976,0.1295959023477682
5.277019999999999,3.7373133800319303,0.1293155295419754
5.321564,3.734427335553978,0.1292311126296966
5.323908,3.728655246598074,0.1292222985037913
5.326251999999999,3.728098063948502,0.1290627396345642
5.328599999999999,3.731405313164904,0.1288170020403303
5.330944,3.741789799807195,0.1283858879386285
5.3332880000000005,3.7565977968229,0.1278229744635045
5.335639999999999,3.77540999533144,0.1271550992869422
5.337976,3.796364064213256,0.1264307450798738
5.340319999999999,3.8122429964156006,0.1258363281269635
5.342676,3.826771454177585,0.1253026522414993
5.345012,3.837807567125934,0.1248874139464108
5.347359999999999,3.854430673432953,0.1243583808617455
5.349704,3.87184517567289,0.1238270877051977
5.352056,3.889911304218885,0.1233061147349215
5.354399999999999,3.914495591683328,0.1226741982399083
5.356744,3.942804541386885,0.1219766952291456
5.359096,3.97097372146358,0.1212852618645548
5.361451999999999,4.0014245415404135,0.120526196879823
5.363791999999999,4.030664656803749,0.1198163440923913
5.366136,4.056272657626588,0.1192462638013489
5.368484,4.085465551061678,0.1186213324365739
5.370819999999999,4.115729379683408,0.1179759050854001
5.373167999999999,4.1415696979317245,0.1174715099283694
5.375512,4.162334879500567,0.1170928841044643
5.377852,4.181889356255912,0.1167641374122006
5.380195999999999,4.195949387451203,0.1165907615897494
5.38254,4.208798713832996,0.1164577001375362
5.384887999999999,4.221368500961069,0.1163522690309427
5.387228,4.239665051074672,0.1161443673784866
5.389572,4.258101370815135,0.1159239456378338
5.391915999999999,4.277748395369096,0.1156580988737005
5.39426,4.297674959176779,0.1153748492996658
5.396603999999999,4.314528487051406,0.1151585287755878
5.398948,4.3347345901128085,0.114856926519016
5.401291999999999,4.346932290188543,0.1147237803134303
5.403631999999999,4.3586181335850815,0.1145748094631691
5.4059800000000005,4.373377012914674,0.1143613745009955
5.408328,4.383060755564795,0.1142524253700954
5.410671999999999,4.394606829334473,0.1141166130058031
5.413016,4.408434543104287,0.1139198447379319
5.415363999999999,4.422402026500962,0.113715596092981
5.417699999999999,4.431434142845025,0.1136014902069257
5.420044,4.439023236950111,0.1134796854688849
5.422387999999999,4.446891870308919,0.1133340897978759
5.424736,4.449173510309056,0.1132716575777982
5.427072,4.452805624749552,0.1131603444065638
5.429412,4.457788213630408,0.1130011124643269
5.431767999999999,4.4622589458320645,0.1128236514240714
5.434116,4.463284555048329,0.1126794495295191
5.436455999999999,4.462447833145038,0.1125620171530578
5.4388,4.465755082361439,0.1123569263924334
5.441152,4.465058130085007,0.1122287325793295
5.443487999999999,4.46878468818199,0.1119903515983156
5.445832,4.466225404786002,0.1118894015166723
5.44818,4.468089631763427,0.1116792436384158
5.450527999999999,4.466741053180938,0.1115428608476235
5.452872,4.462319438665393,0.1114683143125109
5.455215999999999,4.46283319120246,0.1113055552908217
5.45756,4.46162438224683,0.1111586043137226
5.4599,4.460695112544922,0.1109909270147043
5.462248,4.457903511723457,0.1108490906072929
5.4646,4.458976342767964,0.1106451058936734
5.46694,4.462842670491806,0.1104027153819569
5.469283999999999,4.471504595641401,0.1100893346574582
5.471628,4.48989748526936,0.1096227152351684
5.473976,4.508290374897319,0.1091572459048468
5.476311999999999,4.528545595644833,0.1086756343871188
5.478663999999999,4.547310572325128,0.1082511538890307
5.481004,4.5696604416176765,0.1077944118294286
5.483348,4.596945677962838,0.1072607495432108
5.485691999999999,4.621437417628663,0.1067698326379043
5.488036,4.6508645243471,0.106203964787212
5.490376,4.680012091811818,0.1056691178638604
5.492712,4.714654104836589,0.1050204370808707
5.49506,4.746223081928304,0.1044309466615078
5.497407999999999,4.778862994206658,0.10381920107873
5.499743999999999,4.814995251298648,0.1031282394102878
5.502088,4.849544716524802,0.1024466564315034
5.504432,4.883163016191178,0.1017755743879135
5.50678,4.914639445484276,0.1011533707586747
5.509123999999999,4.945324478844455,0.1005322208945817
5.511468,4.977359986644994,0.0998787609097425
5.513811999999999,5.008604098512614,0.0992300187101079
5.516156,5.033050512208066,0.0986752837269629
5.5185,5.051630393291127,0.0982101335501464
5.520855999999999,5.069139339187551,0.0977636947117472
5.523191999999999,5.082504313964281,0.0973875592969209
5.525536,5.097359532808229,0.0969649907421086
5.527879999999999,5.109561024599704,0.0965653151271299
5.530268,5.116966918965425,0.0962233674428485
5.532647999999999,5.125303978890925,0.0958740082463723
5.535044,5.13056800288337,0.0955732754939931
5.537432,5.13317829982334,0.0952909666018464
5.539815999999999,5.130573690456976,0.0950908322677341
5.542212,5.13076257776995,0.0948649898285864
5.5446,5.127598889896146,0.0947017099739453
5.546983999999999,5.122013792395347,0.0945934709027915
5.549388,5.1178717171335215,0.0944959033630631
5.55178,5.113589872244836,0.094407365740886
5.554163999999999,5.106095221796235,0.0943728262011158
5.55656,5.10125429840011,0.0943212970733451
5.558948,5.094271504630708,0.0943049944970951
5.561336,5.088080106794224,0.0942890784009663
5.563731999999999,5.0846822056370735,0.0942479219424096
5.566119999999999,5.081563843733644,0.0941880283529509
5.568504,5.078445481830214,0.0941280189878602
5.570908,5.074675493620728,0.0940576708804546
5.573296,5.068623865411103,0.0940322327413339
5.575679999999999,5.0615013020148405,0.094024369377338
5.578076,5.060105501604108,0.0939564600815503
5.580464,5.056707600446956,0.0939144148935302
5.582847999999999,5.0545204041033065,0.0938455509898256
5.585244,5.052845064438853,0.0937961368927692
5.590015999999999,5.046700888430611,0.0937222038955663
5.592412,5.047726497646876,0.0935998369446392
5.594796,5.050754207609558,0.093452216555332
5.597184,5.0521991257064025,0.0933032381773315
5.59958,5.057788014922943,0.0930953284321209
5.601968,5.066729479326258,0.0928246071361558
5.604352,5.076741878916212,0.0925406545552264
5.606747999999999,5.08968754481236,0.0922269624165319
5.609132,5.100631109962092,0.0919382272109858
5.61152,5.114787480671739,0.0916023676151834
5.613915999999999,5.129176168806864,0.0913049393238415
5.616304,5.149710928808099,0.0909314803140256
5.618688,5.177183156608363,0.0904853749840677
5.621083999999999,5.206657485155045,0.090016362879925
5.6234720000000005,5.2389253103810605,0.0895279723261494
5.625856,5.268120099674022,0.0890860828222054
5.62826,5.300108385646317,0.0886253642460124
5.630648,5.330885966805115,0.088191464385504
5.633031999999999,5.364084957590909,0.0877127117852968
5.635431999999999,5.396213013190065,0.0872489367291684
5.637816,5.439282738081083,0.0866692923957664
5.640204,5.4804901318525445,0.0861186562000125
5.642599999999999,5.522116834504587,0.0855522945926645
5.644987999999999,5.567747738649463,0.0849542977990956
5.647372,5.610305606861283,0.084399251844429
5.649767999999999,5.654725806192662,0.0838378461771304
5.652155999999999,5.690206436978593,0.0833603120613791
5.6545440000000005,5.721822635898551,0.0829192101576148
5.65694,5.759724676311481,0.0824094500253292
5.659328,5.793762284858438,0.0819365110580503
5.661711999999999,5.827567575979916,0.0814307279772307
5.664112,5.856437500048782,0.0809777066327441
5.6665,5.876228085945343,0.0806155322803564
5.668895999999999,5.8984400814689,0.0802167173612688
5.6713,5.917998349939984,0.079827704753731
5.673687999999999,5.937975927291648,0.0794180471171752
5.676084,5.956091173523754,0.0790208737862356
5.678484,5.971552692703388,0.078629164723634
5.680867999999999,5.981007909643768,0.0782905439443795
5.683267999999999,5.9944673280769845,0.0779180897175008
5.685664,6.001920444270951,0.0776030924535635
5.688052,6.00588121565128,0.0773415364611941
5.690456,6.006489411844832,0.0771253006195402
5.692847999999999,5.998809665798998,0.0769919802995376
5.695236,5.992992250872719,0.0768495991496583
5.697632,5.985964131132942,0.0767272057286889
5.700036,5.987875579938611,0.0765329569396412
5.702419999999999,5.9907181943040575,0.0763339471328007
5.704819999999999,5.984993327176397,0.0762320274311205
5.70722,5.983644748593906,0.0761229974878736
5.709608,5.982947796317475,0.0760246383545084
5.712008,5.981971304787324,0.0759411662727207
5.7144,5.988723676989119,0.0758078589986475
5.7168,5.992775100310197,0.0757287571993434
5.719195999999999,5.99719861068361,0.0756747397190939
5.721583999999999,6.000411416243526,0.0756400254063292
5.72398,6.00455538736322,0.0756012975793186
5.726375999999999,6.016288452588,0.0755226359774937
5.728763999999999,6.037612712664285,0.0753893073042843
5.73116,6.05800580718079,0.0752627743775737
5.733555999999999,6.07625703132402,0.0751580566857095
5.735943999999999,6.096650125840526,0.0750308783211194
5.73834,6.119836717036367,0.0748920422416583
5.740735999999999,6.148098444911679,0.0747097772417589
5.743123999999999,6.174497841667435,0.0745371898882354
5.745508,6.199174676930495,0.0743657041993983
5.747903999999999,6.219847310700722,0.0742258461047841
5.750291999999999,6.240380174844088,0.0740934497334833
5.752672,6.266267714920647,0.073904656024819
5.755071999999999,6.286428492011676,0.0737472471133413
5.757459999999999,6.306729038729565,0.0735842116690869
5.75984,6.327029585447454,0.0734211762248325
5.762239999999999,6.341882908433533,0.0732754616706223
5.764627999999999,6.356084605113555,0.0731196482595028
5.767012,6.37484958179385,0.0729082065326963
5.769403999999999,6.3936145584741455,0.0726972785018196
5.771788,6.412519304781301,0.0724809384204274
5.77418,6.424626352916289,0.0723055822005474
5.776583999999999,6.431146407692607,0.0721537851330535
5.778972,6.43380203060295,0.0720230040566485
5.781348,6.441672559819627,0.0718479439657421
5.783751999999999,6.4507537938498025,0.071657241518089
5.786136,6.456250135267725,0.0714732364474474
5.788516,6.462026015939367,0.0712766274326051
5.790919999999999,6.467941666237871,0.0710735465804612
5.793307999999999,6.4749282517230125,0.0708604488907993
5.795683999999999,6.48419647720829,0.0706209825163043
5.798092,6.495746342693706,0.0703561837029883
5.800475999999999,6.507715517059702,0.0700742712552563
5.802855999999999,6.521035165866057,0.0697679581503678
5.80526,6.532352713925995,0.0694750358203014
5.807643999999999,6.543810031612795,0.069175590627729
5.810023999999999,6.55698991079229,0.0688764114533224
5.81242,6.568307458852229,0.0685826813962489
5.814804,6.575481035792474,0.068323422154374
5.817184,6.583865317546216,0.0680489015110939
5.819588,6.590107728926682,0.0677936576948931
5.821972,6.601704816240341,0.0674923014526343
5.824352,6.6140932994869175,0.0671957979455383
5.826747999999999,6.628344113853052,0.0668932038343704
5.829135999999999,6.642594928219186,0.066594724731062
5.831516,6.654843641838903,0.0663098945740286
5.83392,6.670956787324593,0.0660088343662883
5.836303999999999,6.685719458369925,0.0657308985731498
5.838684,6.700482129415256,0.0654537652074461
5.841079999999999,6.716036196393505,0.0651816691558114
5.843464,6.733452594491312,0.0649077673421735
5.845859999999999,6.7488668918427015,0.0646468421598201
5.848256,6.758507204380317,0.0644483776824583
5.850644,6.772151718410767,0.0642297155358858
5.853024,6.787658563560772,0.0640069709619087
5.855427999999999,6.803584717591359,0.0637662055156886
5.857812,6.821233433114642,0.0635283949352355
5.860191999999999,6.841675645317261,0.0632842058618547
5.862595999999999,6.86225762714674,0.0630344305505099
5.864983999999999,6.8794870337894425,0.0628162519795448
5.867363999999999,6.893922943752812,0.0626026831203899
5.86976,6.899791372223072,0.0624565491064532
5.872144,6.900724433640719,0.0623331344279625
5.874524,6.900586559871727,0.0622180875776923
5.91276,6.593405848090715,0.0621699553645263
5.915147999999999,6.579113499469946,0.0621308437228515
5.917523999999999,6.573248862715426,0.0620332805818072
5.919923999999999,6.575672168200292,0.0618839378279848
5.922311999999999,6.577443847379101,0.0617231637824161
5.924708,6.587503468797297,0.0615105097765931
5.927103999999999,6.603057535775546,0.0612524914258641
5.929488,6.620753473127073,0.0609793729644034
5.931867999999999,6.641801985665374,0.0606775891962584
5.934264,6.661267706337841,0.0603669527454298
5.936647999999999,6.681804362196946,0.0600496920527062
5.939039999999999,6.700478686936496,0.0597336525762492
5.941444,6.722226047609098,0.0594002995936236
5.943832,6.741179911602367,0.0590745997656938
5.946212,6.771354984141219,0.0586900805954551
5.948616,6.803671927053346,0.0582895787640865
5.951004,6.830262106979945,0.0579022132826822
5.953383999999999,6.8513578413464895,0.0575595154436419
5.955784,6.87552661164609,0.057201597484458
5.958172,6.9039791226922445,0.0568160851716842
5.960551999999999,6.927915575566368,0.0564314387228912
5.96296,6.947847826947658,0.0560709562304796
5.965343999999999,6.966988682396029,0.0557103610023776
5.967728,6.979983465978291,0.0553829156050199
5.970123999999999,6.996842681426525,0.055046213280302
5.972508,7.011280487247761,0.054738627969976
5.974887999999999,7.021294782695586,0.0544663462429818
5.977291999999999,7.028375811837214,0.0542029695430281
5.979679999999999,7.032244035418927,0.053960828865871
5.98206,7.038254129373915,0.0537057558135235
5.984455999999999,7.043612597022845,0.0534405388578926
5.986843999999999,7.054185970978109,0.053148215102901
5.989223999999999,7.063828179373594,0.05285754196513
5.991628,7.072259682955582,0.0525794501758162
5.994011999999999,7.072822553178761,0.0523258181989513
5.996396,7.074456358588578,0.0520664398387464
5.998791999999999,7.084098566984064,0.0517792796913649
6.001176,7.099886847245659,0.0514652467391802
6.003559999999999,7.109808594894865,0.0511656686698432
6.005964,7.11330473142424,0.0509042849054708
6.008347999999999,7.120385760565867,0.0506466556687371
6.010727999999999,7.119318617094967,0.0504203649426502
6.013132,7.112617258437154,0.0502368883493395
6.01552,7.106847065339118,0.0500522889741616
6.017896,7.10279943373378,0.0498742750965091
6.020292,7.09395620470269,0.0497029784056328
6.022676,7.083110874925183,0.0495373591107228
6.025052,7.076781603319708,0.0493761677415873
6.027447999999999,7.072314662833789,0.0492143665423246
6.029832,7.0623532767878165,0.0490886016802276
6.032227999999999,7.050761877047767,0.0489921986742095
6.034619999999999,7.035957671747799,0.0489137658758872
6.037003999999999,7.017009495328139,0.0488533332045074
6.039383999999999,6.99699038372184,0.0487986442453532
6.056124,6.820628005871398,0.0487983772991271
6.058507999999999,6.80321539948933,0.0487881205207908
