Time,Force,Position
3.669308,2.1378485417198814,0.1755632400908406
3.671652,2.2225675449388858,0.1729193805350451
3.673992,2.2955553787909784,0.1710707414537042
3.676336,2.3542508640223017,0.1703863171775225
3.678676,2.410666605111357,0.1696689622026409
3.727896,2.619698879729082,0.1690702491907931
3.730232,2.628916091670379,0.1688698476516361
3.732576,2.641765418052172,0.1684148735094081
3.734916,2.647072872157121,0.1682054538908086
3.737256,2.653311491821849,0.1679568548133755
3.739592,2.665137104845247,0.167473919183912
3.741936,2.6782659704807603,0.1670068201852749
3.744284,2.697121599101804,0.1662712595447047
3.74662,2.7167686236557658,0.1655011844861961
3.748964,2.731620050783976,0.1649628778085735
3.751308,2.7481940394048827,0.1643923418069519
3.753648,2.767281985451404,0.1637672187175048
3.755984,2.7925160033640357,0.1628621936483229
3.758328,2.816167229410831,0.1619989184383837
3.76068,2.838375433218651,0.161154761538311
3.763012,2.85513641329466,0.160515416024334
3.765352,2.874039263743947,0.159778013793592
3.767696,2.898576329380147,0.1587569416130349
3.77004,2.924324099829846,0.1576694865090452
3.77238,2.957428646959154,0.1562045525553855
3.774724,2.9850387485284093,0.1550525620756346
3.777064,3.0150230378964182,0.1538967060834747
3.779408,3.044727788010708,0.1528134159248571
3.781752,3.081230236297166,0.1514649620180742
3.784096,3.121085259770399,0.1500046684623929
3.78644,3.1569360817507985,0.148749167720458
3.788776,3.190784802984782,0.1475819460350276
3.79112,3.2196981571661536,0.1465912578282996
3.79346,3.251452229855104,0.1454346374365341
3.795808,3.2888405177309648,0.1440344259119454
3.798152,3.320502042621298,0.1428352814570337
3.901252,3.5284370146607023,0.1418678514257527
3.905936,3.536862830669081,0.1417963303189778
3.908272,3.5437530766398666,0.1416603088270898
3.910612,3.5547872937303464,0.1413833361897181
3.912956,3.567823611567244,0.1410500945598147
3.915304,3.578345971978525,0.1407599111830779
3.917648,3.590638115710746,0.1403596311142866
3.919988,3.6010679283234115,0.1400106537331293
3.922332,3.610985884256879,0.1396427666537776
3.924676,3.6279810776162345,0.1390623656686255
3.927012,3.641251608736478,0.1385810470126308
3.929352,3.653218887244605,0.1380880505406884
3.931704,3.670121532805344,0.1374527749762208
3.934044,3.685673703925725,0.1368862325830995
3.936388,3.700666796538665,0.1363755314154793
3.938728,3.718453385830939,0.1358023668079565
3.941072,3.735820666242633,0.1352776705236048
3.943408,3.754258881840965,0.1347153828975296
3.945756,3.777772234118769,0.134017238020331
3.948104,3.8014253560234335,0.1333100446298796
3.950448,3.821493585315845,0.1326800347296242
3.952792,3.844634850541312,0.1319479356111827
3.955136,3.864703079833724,0.131312620774566
3.957476,3.882769208379718,0.1307456016303236
3.95982,3.898553696925576,0.1302681147711592
3.962168,3.9160607469641295,0.1297646413184029
3.964508,3.930075452189048,0.1293896251797265
3.966852,3.944741783720024,0.1290233152592904
4.062951999999999,3.93924923401784,0.1289749798393409
4.065288000000001,3.94604693219001,0.128827653709556
4.067636,3.960061637414928,0.1284994816025422
4.069988,3.978080544132679,0.1280737913819262
4.072331999999999,3.995727363798093,0.1276120172028164
4.074676,4.009369981970673,0.1272496969085633
4.077019999999999,4.0290189023825045,0.1267408316450455
4.0793680000000005,4.048807592421196,0.1262185410942963
4.081712,4.070458613579444,0.1256609559202947
4.084059999999999,4.091458008431633,0.12509352591791
4.0864080000000005,4.111386468097185,0.1245650723356621
4.088752,4.137460999628847,0.123876456989802
4.091092,4.161905517466431,0.1232701729365448
4.093439999999999,4.187001661610071,0.1226691303885249
4.095784,4.21330851056721,0.122041896479791
4.098124,4.240686294710988,0.1213886922609061
4.1004640000000006,4.263128711802155,0.120853294576809
4.102812,4.282777632213985,0.1203696827920705
4.105155999999999,4.3042888837453726,0.1198529420644851
4.107495999999999,4.32100453785101,0.1194333665302042
4.109844000000001,4.331993428971115,0.1191238382057544
4.11218,4.341911384904583,0.118849668661787
4.114528,4.343681168225521,0.1187626758033367
4.116868,4.346661656359959,0.1186378677370394
4.11922,4.351364705987094,0.1184943097706847
4.121556,4.355136590054451,0.1183648273818546
4.123896,4.358117078188889,0.1182405045403573
4.126248,4.364450141510104,0.1180265505747932
4.12858,4.367058542592204,0.1178714143396627
4.13092,4.372739979607361,0.1176493643156928
4.1332640000000005,4.3764193158761,0.1174688108039977
4.135608,4.378096551398423,0.117330488401128
4.137943999999999,4.379541469495268,0.1171486084298404
4.140288,4.3823368620324725,0.1169180650799424
4.142636,4.37712385158401,0.1168503136958341
4.144971999999999,4.368837805202491,0.1168500112298877
4.147316,4.363764564380888,0.1167703616245537
4.149660000000001,4.360693424305703,0.1166499553918506
4.152004,4.356039492364679,0.1165353998647416
4.15434,4.351385560423656,0.1164204878032457
4.156684,4.348733729229052,0.1162634797624518
4.159032,4.340866991728113,0.1162289294956025
4.161372,4.336213059787091,0.1161135033322249
4.163715999999999,4.331139818965487,0.1160334220556899
4.16606,4.326066578143884,0.1159533358656614
4.168408,4.326720100307811,0.1157733893231148
4.1731,4.3187608150082575,0.1156817294607853
4.182468,4.309451055268343,0.1156382463436881
4.184811999999999,4.309451055268343,0.115638246343688
4.187151999999999,4.311173616761039,0.1156216957368376
4.189500000000001,4.3226271427321,0.1154319685887111
4.191839999999999,4.338084870195994,0.1151637423169611
4.194184,4.35205235359267,0.1149582939656504
4.196528000000001,4.364017736242927,0.114791873287798
4.198872,4.378217537065079,0.1146300907600958
4.201212,4.399075266432539,0.1143656656747704
4.20356,4.424728593225751,0.1140277129113346
4.205907999999999,4.455317287071575,0.113597250005136
4.208256,4.488559707969874,0.1131440961620517
4.210596000000001,4.517937697002201,0.1127543954685668
4.21294,4.548526390848025,0.1123362731397387
4.2152840000000005,4.573108782454598,0.1120314044286112
4.217624000000001,4.596899778128253,0.1117266745480282
4.21996,4.625905680108242,0.1113095902003614
4.222303999999999,4.654120186155311,0.1109084623749765
4.224652000000001,4.688201224814772,0.110416748910401
4.226988,4.721630637168175,0.1099181732313727
4.229331999999999,4.755060049521577,0.1094177760539638
4.231680000000001,4.786627130755424,0.108946153722519
4.234012,4.813398614563518,0.1085496730823983
4.236356000000001,4.8321616953859445,0.1082960035488991
4.2387,4.847991509902176,0.1080906124612583
4.241047999999999,4.862098762925712,0.1078986119988709
4.243388,4.878068347068802,0.1076823511910777
4.245732,4.892734678599778,0.1074501827500534
4.248087999999999,4.901674247145224,0.107302852453095
4.2504360000000005,4.905957987891779,0.1072155663061389
4.25278,4.907588001585858,0.1071531041413053
4.255124,4.905633122667684,0.1071265885607311
4.257464000000001,4.907682445242343,0.1070340951050865
4.2598,4.905587796697311,0.1070176736992039
4.262143999999999,4.905914557779273,0.1069376115588598
4.264488,4.9113164555407085,0.1067713705822752
4.266819999999999,4.916858122929004,0.1065973718129251
4.271508000000001,4.9083397591220095,0.106539660432838
4.273856,4.903079526845303,0.1065263606434426
4.276192,4.902242804942011,0.106421513619626
4.278536000000001,4.901406083038719,0.1063166665958094
4.280887999999999,4.9044337930014,0.106160006017557
4.283227999999999,4.913607574830193,0.1059011767833382
4.285572,4.925854392592041,0.1055926845053812
4.287915999999999,4.939172145540526,0.1052634560218675
4.2902640000000005,4.951838272182956,0.1049268173625437
4.292608,4.965435564385161,0.1045821137639488
4.29496,4.980103791774007,0.1042168529749934
4.297307999999999,4.994492479909131,0.1038690747262735
4.299652,5.010743499163812,0.1035013338672864
4.301995999999999,5.026994518418494,0.103132386493317
4.30434,5.041383206553618,0.1027868582587216
4.306687999999999,5.058053534688881,0.102389977333019
4.309032,5.07551525875706,0.1019949296361212
4.31138,5.087901846145769,0.1016835455740942
4.313732,5.09828633278806,0.101404099653408
4.316072,5.112814790550044,0.101054900087947
4.318415999999999,5.13334955055128,0.1006185325434822
4.320767999999999,5.149228482753623,0.100233641586838
4.323112,5.158961343089857,0.0999483168439911
4.325452,5.170975843426227,0.0996178386593679
4.327795999999999,5.179265681523483,0.0993259464947988
4.330147999999999,5.185832958128045,0.0990470991559148
4.332492,5.192400234732605,0.0987714735449794
4.334835999999999,5.200038446523805,0.0984788951792352
4.337187999999999,5.206326183874644,0.0982224034698554
4.339536000000001,5.210332281225347,0.0980115147879993
4.341875999999999,5.213267443389412,0.0978184505086613
4.344215999999999,5.217832619247555,0.0975703833017241
4.34656,5.222397795105699,0.0973236489254456
4.3489,5.228825302083399,0.0970596239238195
4.351244,5.236183974620879,0.0967878143335682
4.353579999999999,5.244334043091276,0.0965176485817337
4.3559280000000005,5.252484111561673,0.0962491259935585
4.358268000000001,5.261705115218708,0.0959625971428737
4.360612,5.271857284435522,0.0956686945557905
4.3629560000000005,5.283080388838974,0.0953607972939273
4.365296000000001,5.288157421376315,0.0951388416694489
4.367635999999999,5.299100986526048,0.0948517409993694
4.36998,5.312186422049057,0.094529630714142
4.37232,5.324061152758567,0.0942367062202201
4.374663999999999,5.33966054570719,0.0939123391725321
4.377004,5.354700860148372,0.0936253968249285
4.379344,5.365457433843,0.0934052026218625
4.3816880000000005,5.379007504216963,0.093165503588498
4.384032,5.396981084964342,0.092854218176705
4.386379999999999,5.417236305711857,0.0925021703410729
4.388731999999999,5.440704332019287,0.0921037600247427
4.391076,5.465615380565693,0.0917205388070042
4.393416,5.489595263552322,0.0913466268318022
4.395759999999999,5.516787952098866,0.0909329014715178
4.398092,5.5453311150857685,0.0904926803944225
4.40044,5.573082882139753,0.0900537613017009
4.402775999999999,5.600043253260821,0.089616038162192
4.40512,5.626072458822109,0.0891851499600856
4.407463999999999,5.653172599570035,0.0887437739011616
4.409803999999999,5.677991100317826,0.0883439948893186
4.412152000000001,5.708955672931725,0.0878723879173867
4.414484,5.735916044052792,0.0874498190715059
4.416831999999999,5.762736645546998,0.0870368367644576
4.419176,5.78690351998873,0.0866354546165076
4.421528,5.809347832937765,0.0862417938065799
4.423868000000001,5.827276087714768,0.0858688671183426
4.426212,5.850978327305547,0.0854017652442018
4.428547999999999,5.868953803910793,0.0849834983453983
4.430888,5.883576705329264,0.0846194852275566
4.433235999999999,5.898479146001456,0.0842427962359206
4.435584,5.911239716300371,0.0838963084229689
4.43792,5.919996085106452,0.0835890438792076
4.440263999999999,5.927961057979615,0.0832797179879809
4.442603999999999,5.926706923053612,0.0830698600923204
4.444944,5.9219604433139725,0.082916995142219
4.447291999999999,5.919076294693889,0.0827531122951942
4.449636,5.917123311633585,0.0825838845322592
4.451984,5.91517032857328,0.0824141847298734
4.454319999999999,5.908421748087225,0.082279911530869
4.456664,5.901673167601168,0.0821456383318646
4.459012,5.88984945043564,0.0820622458223304
4.461356,5.876023632523695,0.0819975467127355
4.463711999999999,5.864199915358166,0.0819136062430059
4.466052,5.857032025991528,0.0818022563643
4.468404,5.85051576293095,0.0817010093643503
4.470739999999999,5.849074636549843,0.0815492672228292
4.473084,5.844001395728239,0.0814601355082177
4.475432,5.838648615652915,0.0813861232178405
4.477776,5.835577475577728,0.0812785356741914
4.480119999999999,5.833809588114658,0.0811918607725733
4.482464,5.834043801398003,0.081087770932602
4.484812,5.838421985801044,0.0809408557402797
4.487152,5.845314127629701,0.0807946471477633
4.489488,5.861285607630663,0.0805654436505417
4.4918320000000005,5.879538727631761,0.0803037331394376
4.494187999999999,5.89779184763286,0.0800454045565791
4.496528,5.916836363566875,0.0797922654101063
4.498868,5.937463671366729,0.0795445220727504
4.501208,5.964469368458168,0.0792717080035925
4.503551999999999,5.993616935922886,0.0789765813520302
4.505896,6.027699870440215,0.0786445933620092
4.508236,6.066718172010156,0.0782760936049373
4.510588,6.105456934326377,0.0779268681873295
4.512931999999999,6.139911955896044,0.0776269297160618
4.515272,6.172644415973014,0.0773292223239069
4.517612,6.205888732729182,0.0770523351083107
4.5199560000000005,6.239272819112212,0.0767686155182224
4.5223,6.275869711055155,0.0764494107934529
4.524644,6.309114027811324,0.0761743354384017
4.526984000000001,6.337702516768601,0.075921885275111
4.529328,6.363217969792824,0.0756983091339878
4.531668,6.388593653190185,0.0754849716323208
4.534012000000001,6.413317710281488,0.075263686697277
4.536351999999999,6.433758026626236,0.0750897960140641
4.538696,6.451916702970848,0.0749455905933981
4.541043999999999,6.465931408195766,0.074839146335654
4.543384,6.478083782301128,0.074741609877468
4.545728,6.491726400473708,0.0746130716425723
4.548068000000001,6.496988528608284,0.0745200990465506
4.550407999999999,6.499177620809805,0.0744532602589898
4.5527560000000005,6.498153907451409,0.0744193405503669
4.555104,6.49405715815996,0.0744108951939985
4.557452,6.488237847375812,0.0744031126550419
4.559796,6.4859108814053,0.0743495068720444
4.562136000000001,6.485586016181207,0.074281484881979
4.564484,6.483398819837556,0.0742211212526566
4.56682,6.482003019426823,0.0741639408861712
4.569168,6.48060721901609,0.0741068983528107
4.571512,6.479490957859078,0.0740360683618177
4.5738520000000005,6.482518667821758,0.0739302565414275
4.576192000000001,6.490621514463911,0.0737868890521462
4.578536,6.496862029986508,0.0736513242294421
4.580883999999999,6.504033711068882,0.0735133302287172
4.583220000000001,6.51069353547206,0.0733585411694496
4.585571999999999,6.521637100621792,0.0731639809966135
4.587916,6.534862305771662,0.0729419012404182
4.590264,6.548087510921532,0.0727201836010894
4.592604,6.558239680138346,0.0725230498813523
4.5949480000000005,6.576260482713967,0.0722786745630518
4.597288000000001,6.595491990103087,0.0720175687185468
4.599632,6.615282575999647,0.0717301856502549
4.601972,6.637634341150065,0.0714052309070684
4.604312,6.658403314434647,0.071073501807552
4.606655999999999,6.676378791039894,0.070753581375611
4.608995999999999,6.694214498018281,0.0704420772642426
4.61134,6.714331844996805,0.0701063821667287
4.61368,6.732866400109493,0.0697642177673826
4.616028,6.750330020035542,0.0694329724312972
4.618368,6.770075279961727,0.0690772987893453
4.620711999999999,6.788609835074414,0.0687403662618289
4.623052,6.800067152761214,0.0684506864336008
4.625404,6.811804009701732,0.0681487295741171
4.627751999999999,6.819676434776278,0.0678650363910038
4.630088000000001,6.829550960597241,0.0675700187809622
4.632440000000001,6.836631989738867,0.0672853231298708
4.634784,6.845575350000052,0.0669966830674989
4.637128000000001,6.85279614876854,0.0667064693874827
4.639464,6.8630899834700845,0.0663966965547803
4.6418,6.87259242223871,0.0660864855987142
4.644144000000001,6.883165796193974,0.0657687529069919
4.646488,6.893599400522376,0.0654580981353142
4.64884,6.900680429664004,0.0651808214955119
4.651184000000001,6.907202380298191,0.0649273148977938
4.653528,6.915586662051936,0.0646699174689767
4.6558720000000005,6.92331931749962,0.0644031481964881
4.658216,6.931191742574166,0.0641325675854639
4.66056,6.938133002088932,0.063863457632505
4.662903999999999,6.945353800857419,0.0635824120712296
4.665244,6.952155290745327,0.0633212728539266
4.667588,6.95630305358076,0.0630599943199654
4.6699280000000005,6.963803391602968,0.0627669768149408
4.672276,6.96902208962504,0.0624961254018875
4.674624,6.9773138235801655,0.0622069680426612
4.676964,6.9845346223486535,0.0619269925000543
4.679312,6.990544716303642,0.061661359400449
4.681652,6.995763414325714,0.0613930692958094
4.6839960000000005,7.0045670049600375,0.0611239537013869
4.686344,7.008295458914889,0.060882214777117
4.68868,7.008811107309825,0.0606647714157417
4.69102,7.007045115704624,0.0604692111514357
4.693364000000001,7.003416792979866,0.0602766055294908
4.695712,7.000579866188026,0.0600881934505651
4.698055999999999,7.0049599464489365,0.0598585997625331
4.7004,7.007849782642627,0.0596554057441242
4.702748,7.008457978836181,0.0594733180659765
4.705083999999999,7.003851268723402,0.0593233602318782
4.707424,7.003900386409514,0.05916585284676
4.709768,7.002738799282128,0.0590218958245798
4.712104,6.999435341781463,0.0588930807619392
4.71444,6.999065150586994,0.0587536116068808
4.7167840000000005,6.998555189765666,0.058620310238109
4.719128,7.003399904877532,0.0584502295407524
4.721463999999999,7.005171584056339,0.0582963418081469
4.723804,7.008805594354706,0.0581404113412185
4.726148,7.01351053983971,0.0579771557159825
4.728496,7.015142449391658,0.0578297675065061
4.730832,7.012909927077635,0.0576934525638066
4.733172,7.017894411816359,0.0575189689532004
4.735528,7.023810062114861,0.0573431944161993
4.737871999999999,7.033218057227,0.0571347956514303
4.740212,7.045279779391612,0.0569289932476392
4.742556,7.057760810436807,0.0567057526260036
4.7449,7.062512977750052,0.0565044032137846
4.74724,7.065030726891406,0.0562817919456918
4.7495840000000005,7.070761281592676,0.0560381497222921
4.751928,7.081706742600277,0.0557657488281172
4.754275999999999,7.088787771741904,0.0555043729814269
4.75662,7.097731132003089,0.0552412919424682
4.75896,7.111237772264548,0.0549403583313897
4.7613,7.121531606966092,0.0546599351327789
4.763643999999999,7.132896376854274,0.0543738521812693
4.765992000000001,7.139186010062983,0.0541107838807667
4.768331999999999,7.148408909577888,0.0538394701357686
4.770683999999999,7.153907146853678,0.0535716864900094
4.773024,7.157543053009912,0.053305029760057
4.775368,7.161039189539287,0.0530429134373506
4.777711999999999,7.167887901255438,0.0527551980689573
4.780048000000001,7.16658844035906,0.0525025761623678
4.782396,7.165428749089543,0.052244218763894
4.7847360000000005,7.156912281140417,0.052024383890205
4.78708,7.145742086138816,0.0518000285655961
4.789424,7.13149885520416,0.0515880048714986
4.791764000000001,7.121771682441533,0.0513787642682969
4.794103999999999,7.117351963783858,0.0511781573862297
4.7964400000000005,7.110930144379765,0.0509843365116092
4.798788,7.100084814602257,0.05082146445875
4.801128,7.092312520757804,0.0506457028779706
4.80348,7.085750931726852,0.050458527739211
4.805823999999999,7.07090140045651,0.0503083431607407
4.808168,7.057122804372808,0.0501513323081065
4.8105080000000005,7.041062568288968,0.0500121630099564
4.812852,7.025514188884327,0.0498896040281697
4.815199999999999,7.008894874293046,0.0497729967076029
4.817548,6.993858351567603,0.049667030664507
4.819888000000001,6.980264851081135,0.0495777508683414
4.822232,6.970535782460639,0.0494815198498972
4.824579999999999,6.9595960090266455,0.0493969126849359
4.826912,6.954662537831903,0.0492932504557438
