Time,Force,Position
5.047188,2.024290185253748,0.1792600891577333
5.04954,2.1141334428383365,0.1755972479697205
5.051876,2.1992755466536598,0.172431478978047
5.054219999999999,2.282602541177669,0.1695715684661444
5.056559999999999,2.3646735049178065,0.1667323699977447
5.0589,2.4418109974632007,0.1640320375853009
5.061244,2.501211018402432,0.1622611577856458
5.063587999999999,2.551021740348031,0.1607857027957696
5.065939999999999,2.5974817829647217,0.1593701658989298
5.068272,2.6335139088266173,0.1583020957220204
5.07062,2.662051384239913,0.1574173868736615
5.072972,2.6840725965926286,0.1565603883943314
5.075312,2.7029754470419154,0.1557176320344607
5.151284,2.9011246493432363,0.1556339260658316
5.15368,2.9113655746429288,0.1555338014851528
5.1584520000000005,2.931428116361733,0.1554127429297448
5.16086,2.9474430264752,0.155001601171162
5.165632,2.959406513267588,0.1548644406747236
5.168032,2.969090255917709,0.1545838338666176
5.170416,2.975189105955576,0.1544141904837744
5.172803999999999,2.9810556385679665,0.1541900685700341
5.1752,2.9866426319266366,0.1540013498678638
5.177588,2.9939521867780026,0.1537730646226586
5.179983999999999,3.003915468681844,0.1534765712154043
5.182388,3.0170915561456,0.153041584518805
5.184775999999999,3.031198809169134,0.1525759291809499
5.18718,3.0508930555513403,0.1519083618362117
5.189584,3.0720775460007643,0.1511264306666777
5.191967999999999,3.098197403502801,0.1501388867447418
5.254199999999999,3.0858183995455697,0.1496568879144971
5.256596,3.090287235889358,0.1496251014963449
5.258996,3.099319352233421,0.1493868507332574
5.261379999999999,3.1082589207788667,0.1490808740004336
5.263764,3.1248348052576422,0.1484544621353933
5.266159999999999,3.147137452721948,0.1476394246614209
5.268544,3.177029194291341,0.1465842146232714
5.270928,3.207572562166791,0.1455363070988649
5.273324000000001,3.2405373396692387,0.1443773788582838
5.275712,3.2738742042240245,0.1432679120671346
5.278096,3.3062799032190315,0.1421758649371077
5.280488,3.341199559639653,0.1410524390576095
5.282876,3.3761192160602747,0.1399570624540529
5.285256,3.4071744406149227,0.1389959084078638
5.287652,3.439021061102489,0.1380318806158859
5.290039999999999,3.4699365160302773,0.1370849783874543
5.2924240000000005,3.4932628768529783,0.1363748807990847
5.29482,3.519010647302677,0.135559049934594
5.297208,3.5418251514461807,0.1348460915144898
5.299604,3.5635687204030457,0.1341710639574384
5.302,3.5908992827185804,0.1333757297886434
5.304387999999999,3.616647053168279,0.1326049934173374
5.306768,3.639182018058062,0.1319696085574136
5.309168,3.665301875560098,0.1312854204888859
5.311556,3.6845768130617222,0.1308633529021944
5.313936,3.704131289817067,0.1304232542254819
5.316331999999999,3.71902993877352,0.1300933726545494
5.318719999999999,3.7397025725437465,0.1295676110290834
5.321104,3.756371004821139,0.1291505386036263
5.323499999999999,3.772248041165614,0.1287405373782769
5.325887999999999,3.789615321577307,0.1282552944739381
5.328272,3.800464443070553,0.1279054467177646
5.330667999999999,3.81024262937716,0.1275935620272202
5.333055999999999,3.820020815683767,0.1272791290287699
5.385619999999999,3.848276855985473,0.1271966722299435
5.388024,3.857448741956396,0.1270355173083468
5.390412,3.863966900874844,0.1269129671337973
5.392792,3.8680636501662944,0.1268756616139675
5.395196,3.8721603994577447,0.1268386033081269
5.39758,3.884777408414061,0.126627448190101
5.39996,3.901910475542408,0.1263433462346745
5.402355999999999,3.922628435283009,0.1259988179004252
5.404743999999999,3.950283862822638,0.1254722272184643
5.407124,3.974307175921771,0.1250863785866368
5.409528,3.994838144207268,0.1248211480611858
5.411916,4.0183023787989605,0.1244930228548542
5.414296,4.042558009323571,0.124149628545434
5.416691999999999,4.067093179101901,0.1237879807412623
5.419079999999999,4.094561615186427,0.123366705542336
5.42146,4.120167720151396,0.1229871920308163
5.423864,4.142840558810169,0.122677193814423
5.426247999999999,4.169517598961777,0.1222767065197047
5.428628,4.193912999113247,0.1219559272631592
5.431024000000001,4.22310399669047,0.1215517566373234
5.433408,4.24708008796136,0.1212798225384496
5.4357880000000005,4.261045675500165,0.121232458684494
5.438184,4.28180896121114,0.1210535607598346
5.440572,4.310348332482304,0.1206627248575778
5.442952,4.339307012634048,0.1202410924411512
5.445344,4.362538929800263,0.1199263650187289
5.447732,4.381254788794448,0.119679442249327
5.450127999999999,4.40281136629621,0.1193316291354421
5.452524,4.428651684544525,0.1188913263071467
5.454908,4.454119915740504,0.1184168413159411
5.457288,4.481730017309759,0.1178873102331014
5.459692,4.501611255147068,0.1174926312415829
5.46208,4.525124607424872,0.116987199552401
5.464459999999999,4.545704693396481,0.1165393798036262
5.466863999999999,4.564422448248533,0.1161276698641903
5.469251999999999,4.580626245674972,0.1157348848422534
5.471632,4.59724935198199,0.1153089445240736
5.474028000000001,4.610939191982813,0.1149409690343935
5.476412,4.619833434557886,0.1146506144136075
5.478792,4.619136482281454,0.1145250714751196
5.481196000000001,4.620581400378299,0.1143477804911969
5.48358,4.6289637862741735,0.1140349529282293
5.505096,4.580038903917979,0.113990528073293
5.507472,4.57799147720119,0.1139133895866453
5.509879999999999,4.571939848991565,0.1139096980166062
5.512264,4.566959155968578,0.1138822101773697
5.5146440000000005,4.560116131826035,0.1138804626683151
5.517047999999999,4.558999870669023,0.1137903844535296
5.519436000000001,4.560537336564487,0.1136736581666684
5.521812000000001,4.558350140220836,0.1136069170962592
5.52422,4.562169246116436,0.1134303381757281
5.586320000000001,4.477027142301112,0.113419047089888
5.588711999999999,4.482521587861164,0.1132911965183679
5.591099999999999,4.493882566033607,0.113063595027458
5.593492,4.504172609019411,0.1128612723310457
5.595896,4.518094766445713,0.1125598503260224
5.598284,4.5332276286855135,0.1122264588507644
5.60066,4.547289555738674,0.1119175737627218
5.6030560000000005,4.56442451872489,0.1115525212172533
5.60544,4.585982992084521,0.1110888443393658
5.60782,4.613687537310263,0.1105148538084656
5.610215999999999,4.643953261789863,0.1098689144445509
5.6126000000000005,4.675289921456101,0.1091992312673377
5.614996,4.710630782615172,0.108462155625873
5.617388,4.748253283774381,0.1076824900607722
5.619776,4.787738116053146,0.1068935184352693
5.622156,4.823358516465937,0.1061665779908229
5.624552,4.860329391319088,0.105398170197302
5.626936000000001,4.895577704679544,0.1046452455577815
5.629327999999999,4.926821816547164,0.1039637417906597
5.631732,4.95434126617567,0.1033319232336605
5.634116000000001,4.986796082856789,0.1026346066783291
5.636495999999999,5.012965058044937,0.102057278281248
5.638892,5.03862217655389,0.1014678354340692
5.64128,5.065350230249478,0.1008619458535701
5.643660000000001,5.085932212078957,0.1003590886815645
5.646063999999999,5.107305589841356,0.0998615734918923
5.648448,5.1280273412976936,0.099354434715546
5.650828000000001,5.146746992007617,0.0988809370334131
5.653231999999999,5.160391506038066,0.0984875277957801
5.655619999999999,5.170031818575683,0.0981563552625744
5.658,5.176599095180243,0.0978739524883887
5.660396,5.179022400665108,0.0976553003996993
5.6986360000000005,5.056031165838705,0.0975275928243638
5.701012,5.056450474719287,0.0975000152010717
5.703408,5.056730013973008,0.0974816400433177
5.705795999999999,5.0576611795327855,0.0974729607729486
5.708176,5.067811452891731,0.0973317363791575
5.710576,5.083036862930147,0.0971214067245972
5.712964,5.105059971140733,0.096833665355202
5.715344,5.134439856030928,0.0964333995483773
5.717744,5.164750906480901,0.0960307720489124
5.720132,5.196924288050432,0.0956138869995014
5.722512,5.228306273687043,0.0952030189486615
5.724907999999999,5.258757093763876,0.0948039290269081
5.727292,5.289207913840709,0.0944048391051548
5.729671999999999,5.315794302051569,0.0940421135949164
5.732075999999999,5.340238819889152,0.0937183792792981
5.734463999999999,5.36882730884643,0.0933387139206461
5.736844,5.395553466684149,0.0929749362993234
5.739240000000001,5.423490329335368,0.0925866139165386
5.741624,5.457433494225838,0.0921274119508538
5.744007999999999,5.488303623183252,0.0917106156351667
5.746404,5.519173752140666,0.091297354838533
5.748787999999999,5.544456887739409,0.0909334677432997
5.751184,5.569879792965014,0.090561401420963
5.753588000000001,5.595861776698059,0.090155662922629
5.755972,5.616768623751632,0.0898201894936495
5.758352,5.6333917300586505,0.0895502983635929
5.760756000000001,5.6453590085667775,0.0893187543271883
5.7631440000000005,5.655184416701627,0.0891222672839075
5.765523999999999,5.6628679544632,0.0889572461663147
5.767916,5.671901966665133,0.0887632520430437
5.770303999999999,5.681355287747645,0.088547471184051
5.772679999999999,5.692391400695994,0.0883362713477471
5.775084,5.704498448830982,0.0881112857771632
5.777472,5.723542964764999,0.0878169110140635
5.779852,5.741935854392957,0.0875141598909824
5.782256,5.757535247341581,0.0872335281240047
5.78464,5.775276510663481,0.0869250454070962
5.78702,5.792226378052463,0.0866163968123768
5.789424,5.804380648015695,0.0863488310523133
5.791808,5.8198874931657,0.086032726914771
5.794188,5.832600841636371,0.0857345189098311
5.796592,5.84689698197288,0.0854388665340918
5.798976,5.862124287869165,0.0851383723281723
5.801356,5.874930184138453,0.0848808200002095
5.803751999999999,5.887456541154021,0.0846390983235907
5.806139999999999,5.903195703729504,0.0843565378907624
5.80852,5.922007902238044,0.0840422702016775
5.810912,5.937607295186666,0.0837701714417727
5.8133,5.952555061829232,0.0834881611832786
5.815695999999999,5.962427691792326,0.0832599475852716
5.818092,5.967876811382005,0.083094294272744
5.82048,5.968530333545932,0.0829648181557359
5.822856,5.966390359030524,0.082852435222971
5.82526,5.962527823022421,0.0827441066565396
5.827643999999999,5.954521315894623,0.082681293653644
5.830024,5.944372938393547,0.0826452613529856
5.841988000000001,5.888181931298491,0.0826248952494494
5.844367999999999,5.8785454104766135,0.0826050396556724
5.846764,5.867977724094959,0.0825903100762177
5.849152,5.8615540088329965,0.0825305370793194
5.851532000000001,5.856620537638254,0.082434374848399
5.853928,5.850755900883733,0.0823436314265387
5.856316,5.843680559315713,0.0822733476044257
5.858696,5.837955692188053,0.082174885063795
5.861096,5.833953386553088,0.0820736386073104
5.863479999999999,5.831022016104761,0.0819591756862607
5.865876,5.828230415283295,0.0818363932642769
5.86828,5.833726756701217,0.0816266288877047
5.870664,5.845229400358392,0.0813649056677268
5.873044,5.855381569575204,0.0811321528624162
5.875439999999999,5.873681911404546,0.080822053359458
5.877824,5.897988555473137,0.0804617919173023
5.880203999999999,5.921643573235672,0.0800928672660782
5.8826,5.948371626931261,0.0796982862098546
5.884988,5.978964112492824,0.0792783116319227
5.887368,6.011558698800805,0.0788445915603152
5.889768,6.042710262869808,0.0784012405886302
5.892156,6.074932762125449,0.0779492023551071
5.894536,6.107295031007953,0.0774912506383993
5.896939999999999,6.139657299890455,0.0770389860030279
5.899324,6.168946532839901,0.0766156632990495
5.901707999999999,6.197164830602709,0.0762061802520843
5.904112,6.222449862059323,0.0758166692257643
5.906496000000001,6.244661857582881,0.0754533636019155
5.908875999999999,6.268084557919938,0.0750747218190261
5.91128,6.293369589376551,0.0746883099708747
5.913668,6.319725556019802,0.0742884088475244
5.916048,6.338864515610306,0.0739583402606233
5.918443999999999,6.353999273707974,0.0736630304734288
5.920828,6.369273801432503,0.0733607835293738
5.923208000000001,6.380404358037338,0.0730989021811251
5.925611999999999,6.383806050910226,0.0728827673744465
5.927996,6.389349614156393,0.0726462050243257
5.930375999999999,6.393030846283001,0.0724191356894726
5.932772,6.393778812103415,0.07221046268363
5.935155999999999,6.390522576430994,0.072030126098574
5.937552,6.387917967064633,0.0718604140382782
5.9399560000000005,6.385825214377467,0.0717086681868283
5.942344,6.385594792809859,0.0715505917521124
5.944723999999999,6.385504140869111,0.0713867691364639
5.947127999999999,6.3869962807942,0.07122948806721
5.949515999999999,6.386486319972871,0.0710852997468998
5.951896,6.3861161287784025,0.0709334211241943
5.954288,6.392823175009824,0.0707312406586199
5.956676,6.393384149375134,0.0705760127674575
5.959056,6.392082792620888,0.0704274318697319
5.961460000000001,6.395716802919254,0.0702498172008776
5.963844,6.403494784337313,0.0700392166440943
5.966224,6.413926492807847,0.0698274095094128
5.968628000000001,6.42449797090524,0.069609290535687
5.9710160000000005,6.436140384189273,0.0693821851154648
5.973395999999999,6.454440726018614,0.0691271204078639
5.975792,6.46831755747454,0.0689186259795451
5.978176,6.478981583370551,0.0687395557957222
5.980556,6.492718645199619,0.0685391139403026
5.982948,6.5095287429617406,0.0683164304405455
5.985336,6.524476509604306,0.0681000120935646
5.987728000000001,6.537981254007896,0.067870563577063
5.990131999999999,6.549623667291928,0.0676482387180555
5.992516,6.560334915016183,0.0674307101993064
5.994896000000001,6.575609442740713,0.0671651552996706
5.997299999999999,6.596890272704492,0.0668657437325037
5.999684,6.622826930467163,0.0665543796806446
6.002063999999999,6.642617516363724,0.0662866436743871
6.004467999999999,6.667483238939758,0.065985439595764
6.006855999999999,6.693419896702429,0.0656755660292428
6.009236,6.71362979147957,0.065389679832756
6.011628,6.731837585510294,0.0651172835413039
6.014016,6.741525119876154,0.0648719335485091
6.016396,6.754145920548209,0.0646149786272559
6.018800000000001,6.764764620473846,0.0643695990302473
6.021184,6.769516787787094,0.0641510875960179
6.023564,6.775619429540699,0.0639100553021788
6.025968000000001,6.7846553376004985,0.0636554412077037
6.0283560000000005,6.791549375287024,0.0634194996670228
6.030735999999999,6.795510146667352,0.0631966334987154
6.03314,6.803614889167376,0.0629469985072626
6.0355240000000006,6.808646595734343,0.0627160160733347
6.037908,6.812607367114672,0.0624935184597546
6.040312,6.812284397748448,0.0623046879972493
6.042695999999999,6.806746522075889,0.0621525422319964
6.045076,6.79627327935072,0.0620234520175541
6.047471999999999,6.7814237480803765,0.061891206563273
6.049860000000001,6.771509583862648,0.0617367241775284
6.052239999999999,6.763597520391337,0.0615727310221398
6.054644,6.756616622479804,0.0614069842430541
6.057027999999999,6.754291552367161,0.0612325165878887
6.059408,6.753828813374077,0.0610551285734354
6.061804,6.763097038859356,0.060841657095385
6.064192,6.767429897292023,0.0606497361850829
6.066571999999999,6.773625086844247,0.0604546702600683
6.068975999999999,6.78689751382236,0.060224273968613
6.07136,6.801892502293168,0.0599973482233336
6.073739999999999,6.817167030017697,0.0597595417453745
6.076143999999999,6.8335124929288655,0.0595149903579757
6.078528,6.856795423639062,0.0592438957555517
6.080907999999999,6.8768655487893415,0.0589977286292893
6.083304,6.90466453767157,0.0587300391111842
6.085692,6.933394692113575,0.0584611447250711
6.088072,6.965058112861777,0.0581804370406946
6.090476000000001,6.998723634356393,0.0578919007947848
6.09286,7.032389155851011,0.0576031625485344
6.09524,7.07178144033116,0.057303844224149
6.09764,7.108659767385695,0.0570000635739257
6.100024,7.145538094440229,0.0567012617335157
6.1024080000000005,7.182416421494763,0.0564048179606466
6.104811999999999,7.212357280750266,0.0561339937258884
6.107196,7.239504643326437,0.0558680541606499
6.109579999999999,7.261856408476855,0.0556157051976991
6.111984,7.286350044000552,0.0553498126347067
6.114368000000001,7.308189952471773,0.0550814193187088
6.116752,7.325094493890382,0.0548318548826393
6.119147999999999,7.340276473816294,0.0545788500705532
6.121535999999999,7.355318684115346,0.0543331740760855
6.123916,7.371431829601036,0.0540827548203712
6.126312,7.3815386728474754,0.0538563236275453
6.1287,7.388712249787721,0.0536371453025728
6.131079999999999,7.3881569629960175,0.0534361746401793
6.133476,7.388812381017814,0.0532235246959675
6.135864,7.390818273479969,0.052993587871157
6.138260000000001,7.387749029262652,0.0527832518121348
6.140656,7.384819554672195,0.0525667316554907
6.143044,7.374812842655848,0.0523776058688621
6.145424,7.363176116945423,0.0522171486312681
6.1478280000000005,7.344601923435969,0.0520773765300246
6.150212,7.325236333993597,0.0519320401600728
6.152595999999999,7.313879147536892,0.0517596562478385
6.154992,7.30010055145319,0.0516102504103031
6.15738,7.282969380182712,0.0514844560869618
6.15976,7.264487734471875,0.0513758907335168
6.162164000000001,7.25066191655993,0.0512645544799259
6.1645520000000005,7.238418890513821,0.0511635366562549
6.166931999999999,7.230971461893463,0.0510546895304797
6.169336,7.222453098086467,0.0509519350456696
6.1717200000000005,7.207928432040221,0.0508681095451177
6.174104,7.193403765993974,0.0507838893780628
6.176504,7.181020970321006,0.0506869307093356
6.178891999999999,7.171431671327372,0.0505884124863032
6.181272,7.162633768266654,0.050495362848087
6.183667999999999,7.151693994832663,0.050414036361177
6.186052,7.145037962145223,0.0503082571117672
6.188435999999999,7.139313095017562,0.050201975775882
6.190835999999999,7.138663364569373,0.0500772677213421
6.193223999999999,7.137501777441987,0.0499351216863601
6.195604,7.140344391807434,0.0497799582332746
6.198,7.1427676972923,0.0496421975244795
6.200388,7.136391203858582,0.0495230389226252
