Time,Force,Position
4.244468,1.8308354165772371,0.1805801091158184
4.2468520000000005,1.9068981822202544,0.1774961046178658
4.249231999999999,1.9791909596537849,0.174923038953536
4.251636,2.0472944399972466,0.1728194786700911
4.254020000000001,2.1129784065715813,0.1705756546770171
4.256399999999999,2.1729847278464973,0.1682715873833793
4.258808,2.2207480230753047,0.1665498596450714
4.261191999999999,2.261668294161569,0.1651593408642269
4.263572,2.298399268157766,0.1638977948826707
4.265976,2.34165029693028,0.1619497078937863
4.268364,2.3816904160007475,0.1599228972438401
4.2707440000000005,2.4138165757420342,0.1582145700242414
4.273147999999999,2.4389127198856757,0.1568498746892635
4.275536000000001,2.4559532392154058,0.1560709534352823
4.328087999999999,2.617845581660831,0.1550673827137695
4.330487999999999,2.6220348787508985,0.1550629420457867
4.332876000000001,2.626503715094687,0.1550191358140737
4.335255999999999,2.631252090692196,0.1549364619980897
4.33766,2.6409358333423167,0.1546423001485532
4.340048,2.65979146196336,0.1540243915387273
4.342428,2.6815803568906,0.1533001208985345
4.344832,2.7083046188704496,0.1523596259136779
4.34722,2.742665196783631,0.1510174722915083
4.349600000000001,2.770228076524643,0.1499557068704052
4.351996,2.7947179203326,0.1490266464792763
4.404552000000001,2.8326085855983125,0.148516497878631
4.406931999999999,2.842524645673911,0.1483269062739652
4.409336,2.8524407057495087,0.1481376891194459
4.411719999999999,2.865849110638743,0.1477762675257951
4.4141,2.8756726229157232,0.1475047971408079
4.416504,2.886427300752483,0.1472016118163358
4.473832,2.9729595174049317,0.1470083522109196
4.47622,2.985669074159864,0.1467310511515353
4.478604000000001,2.99800654386246,0.1464224368648676
4.481,3.009832156885857,0.1460927735011924
4.483388,3.0163030939760627,0.1459886565305322
4.485768,3.021283786999048,0.1459846054241655
4.488163999999999,3.031199847074646,0.1458121838188457
4.490551999999999,3.041115907150244,0.1456345823181148
4.492948,3.054756629464955,0.1453403065928379
4.495343999999999,3.07212201401878,0.1449331039616032
4.497728,3.0944227656252163,0.1443349232883412
4.500107999999999,3.122217962791705,0.1434755382786763
4.502504,3.151084095144834,0.1425869512735758
4.504892,3.1724536811914925,0.1420186293356194
4.507272,3.199038173544483,0.1412390658258983
4.509676000000001,3.2231087084718584,0.1405363121876847
4.5120640000000005,3.252673688959288,0.1396056280789039
4.514443999999999,3.277443072020965,0.1388566091154397
4.51684,3.3050059517619768,0.1380448797916069
4.519228,3.3305667307565727,0.1373195886499064
4.5216080000000005,3.356546818631749,0.1365604986640512
4.524004,3.3757292083347563,0.1360155547903809
4.526392,3.3934213539705445,0.1355653862843954
4.528776000000001,3.410554421098891,0.1351775854198308
4.531172,3.4330421641604314,0.1345879337656241
4.533555999999999,3.454086884982995,0.1340043929926305
4.5359560000000005,3.46833390763339,0.1336190694120118
4.538352,3.4870044406572003,0.1330676822278541
4.54074,3.5059545129347303,0.1324911150831995
4.54312,3.524252958906202,0.1319174937410057
4.545515999999999,3.5434825704374524,0.1313295194646777
4.547903999999999,3.562432642714982,0.1307841448077543
4.550284,3.5773785134996783,0.1303556008612764
4.605264,3.6193224979443377,0.1299151023030537
4.6076440000000005,3.62616552208688,0.1298895522876023
4.610044,3.635290186229561,0.1297818294701219
4.614808,3.648045068954867,0.1297474826464563
4.617212,3.658892294590244,0.129606750299412
4.6196,3.6725330169049535,0.1294113294370509
4.621980000000001,3.684963034406168,0.1292619565657342
4.626771999999999,3.7006039616094255,0.1292327071310718
4.629152,3.710100712804443,0.1291578105044077
4.631556,3.720249090305519,0.1290936597752177
4.633939999999999,3.7338898126202302,0.1288947034031104
4.63632,3.7476703045618014,0.1286810657905275
4.638724,3.761450796503373,0.1284699955183772
4.641112,3.777233389191361,0.1282081306583501
4.643492,3.792224585946432,0.1279515734875043
4.645899999999999,3.8128499978884154,0.1275043172196387
4.648287999999999,3.8308216827779233,0.1271053618659338
4.650668,3.8442773094954,0.1267956635531385
4.653076,3.854427582854344,0.1265225479342223
4.655464,3.858851093227759,0.1263793825452639
4.657848,3.864345538787812,0.126206617541932
4.6602440000000005,3.871050689161363,0.1259853981898398
4.662632,3.876592356549659,0.125733020113208
4.665016,3.887488699871148,0.1253307162106129
4.66742,3.891866884274188,0.1250574097086554
4.669808,3.898014851998168,0.1246864560148882
4.672188,3.905653063789367,0.1242468287331209
4.6746,3.917575016327121,0.1236839625699264
4.676988,3.9277744073721776,0.1231442773726623
4.679368,3.93532007136476,0.1226469219125959
4.681763999999999,3.946869936850176,0.1220624876059305
4.684151999999999,3.960561672708868,0.1214232007742911
4.686532,3.971320142261366,0.1208454997902662
4.688943999999999,3.97807441032103,0.1203619734474757
4.691331999999999,3.987342635806309,0.119854405417356
4.693712,3.992466890171893,0.1194594080004083
4.696108000000001,3.999313706030174,0.1190443527861754
4.698496,4.00867447931407,0.1186064284357474
4.700875999999999,4.019618044463801,0.1181588390300957
4.703272,4.03256371035995,0.117662745994796
4.70566,4.041505174763265,0.1172594941369101
4.70804,4.054590610286274,0.1167570440034083
4.710456000000001,4.06790836323476,0.1162969946928306
4.71284,4.074148878757357,0.1160095209934033
4.71522,4.083974286892207,0.1156689953423913
4.717636000000001,4.0932406165196165,0.1153800688921443
4.720024,4.099433910213971,0.1151640129000206
4.72242,4.104556268721685,0.1149791895042131
4.724816000000001,4.110749562416039,0.1147666935313777
4.727204,4.116803086483533,0.1145654085591668
4.729583999999999,4.11498797719222,0.1145249608028862
4.731987999999999,4.112381471967988,0.1144871542388005
4.734375999999999,4.112987772303673,0.1143674660487376
4.736756,4.11773804375905,0.1141511087288494
4.739152000000001,4.121045292975452,0.113929465826841
4.7415400000000005,4.125283707751632,0.1136940798867612
4.743919999999999,4.126868395475339,0.1134902871932362
4.746324,4.125007960213652,0.1133211346769457
4.748711999999999,4.123287294578825,0.1131398532823172
4.751092,4.124360125623332,0.1129163250699525
4.753487999999999,4.128226453347176,0.1126487299489905
4.755876000000001,4.128879975511103,0.1124623863259776
4.758255999999999,4.135959108794861,0.1121236830087347
4.760652,4.14182753726512,0.111819901361136
4.76304,4.148906670548878,0.111481818765711
4.765420000000001,4.1550546382728575,0.1111566818964139
4.767823999999999,4.163576793795592,0.1108238227529978
4.770211999999999,4.1747526763708,0.1104677984493297
4.772592,4.190584386744901,0.1100527804556986
4.7749880000000005,4.211351464171614,0.1095548104293348
4.777376,4.238916239770496,0.1089416951055712
4.779755999999999,4.26391983611552,0.1084130712628381
4.782152,4.285850396527488,0.1079463939601627
4.78454,4.302845589886845,0.1075676146755496
4.78692,4.31956124399248,0.1072128549712046
4.789316,4.334274797351699,0.1068958987018393
4.791703999999999,4.353644178509811,0.1065170070412401
4.7941,4.375015660414338,0.1061000764013151
4.796495999999999,4.398249473438422,0.1056621655398195
4.798883999999999,4.418689789783171,0.1052680231070919
4.801264,4.440340810941419,0.1048448097120627
4.803668,4.4630627672863055,0.1044004392349298
4.806056,4.480430047697999,0.104079949752403
4.808436,4.502732695162304,0.1036797603772149
4.810832,4.521822537066695,0.1033495472935825
4.813224,4.547989616396974,0.1029046163045335
4.815604,4.575786709421331,0.1024003835606787
4.818007999999999,4.595575399460024,0.1020276817816315
4.820396000000001,4.608426621699685,0.1017685303873941
4.822775999999999,4.616202707259876,0.1015981157856169
4.82518,4.6215573831930685,0.101492745934323
4.827567999999999,4.629193699126398,0.1013345950158456
4.829948,4.64269654767212,0.1010935981986111
4.832343999999999,4.664859425509565,0.1007409927148158
4.834732000000001,4.690235108906926,0.1003321432952227
4.837111999999999,4.718544058610482,0.0998843121758353
4.839511999999999,4.740986475701648,0.0995183958058311
4.841899999999999,4.764220288725731,0.0991554380252319
4.84428,4.787593871376678,0.0987889931646916
4.846676,4.813900720333817,0.0983887057466749
4.849064,4.8391366341043165,0.0980136652637227
4.851448,4.86344138231504,0.0976505443766038
4.8538440000000005,4.891098705712538,0.097225028820112
4.856232,4.912098100564728,0.0968740162916829
4.858611999999999,4.937381236163472,0.0964504149944978
4.861008,4.956658069522965,0.096119493263441
4.863396,4.9747241980689605,0.0958208977563772
4.865776,4.999215937734788,0.0954107536865333
4.868172,5.02692048296053,0.0949448598276069
4.8705560000000006,5.05583573299977,0.0944495739937225
4.872935999999999,5.087591701546588,0.0938782550789059
4.87534,5.119347670093406,0.0933116473553903
4.877724000000001,5.146168271587612,0.092812351722801
4.880103999999999,5.166470714163369,0.092379691970361
4.882508,5.1786249841266,0.0920571113057071
4.884896,5.18598365666408,0.0917842230554936
4.887276,5.198417465881031,0.0914421664740807
4.88968,5.207778239164927,0.0911425322999346
4.892068,5.214065976515767,0.0908870455448797
4.894448000000001,5.212345310880939,0.0907331208144626
4.927899999999999,5.10108334956358,0.0906102377012582
4.93028,5.100291953630663,0.0906087075127676
4.932684,5.107229421429691,0.0905307705915504
4.935067999999999,5.114958285161638,0.0904560510957997
4.937452,5.128553681505975,0.0903216736997408
4.939852,5.14280070415637,0.090196772706439
4.94224,5.165707756098491,0.0899881111510145
4.9446200000000005,5.18940620397353,0.0897821623773286
4.947023999999999,5.215758378901043,0.0895660752602037
4.949412000000001,5.239037517895501,0.0893848481249321
4.9517880000000005,5.257241520210486,0.0892681884550634
4.954191999999999,5.27637668808525,0.0891438865773912
4.956580000000001,5.299283740027371,0.0889352250219666
4.958959999999999,5.32340149678299,0.0887023795115851
4.961356,5.345237613538473,0.088510023617363
4.963744,5.372288636600287,0.0882496221392029
4.966124000000001,5.401341760408518,0.0879666808641454
4.968527999999999,5.427321848283694,0.0877193547140336
4.970912,5.450508439479534,0.0874953411207646
4.973291999999999,5.47648852735471,0.0872530985798998
4.975695999999999,5.498092326684715,0.0870258522645987
4.978083999999999,5.510616787842414,0.0869082259255057
4.980464,5.517414486014585,0.0868427562959096
4.982856,5.522489622694055,0.0867833913100881
4.985244,5.52104660045508,0.0867711903385107
4.987624,5.525098023776158,0.0866756456253711
4.99002,5.525844093738701,0.0865817447368069
4.992407999999999,5.525938537395187,0.0864777640936534
4.994788,5.5245899588126965,0.0863622276677591
4.997196000000001,5.531529322469594,0.086147628428101
4.99958,5.540750326126629,0.0858960527715714
5.001963999999999,5.549040164223886,0.0856501661865835
5.00436,5.558261167880922,0.0854008139554668
5.006743999999999,5.563757509298845,0.0851750919301046
5.009124,5.573025734784124,0.0848748721297015
5.011524,5.577218823589929,0.084630943566808
5.013907999999999,5.583693552395872,0.0843537351192028
5.016304,5.595662726761869,0.0839992318647236
5.018699999999999,5.6056298003814495,0.0836618975040681
5.021088000000001,5.612011981388775,0.0833413583833329
5.023467999999999,5.623469299075575,0.0829665459070639
5.025872,5.642423163068844,0.0824967513423918
5.02826,5.659095387061974,0.0820587341907194
5.03064,5.673625740681828,0.0816492208282108
5.033044,5.694162396540933,0.0811827468631035
5.035428,5.707761584601009,0.0807843260099093
5.037808,5.720429607101306,0.080392342304657
5.040203999999999,5.732026694414966,0.0800139161354284
5.042591999999999,5.741481911355347,0.0796633475258558
5.044972,5.745722221989396,0.0793738193242746
5.047376,5.750102302250306,0.0790780390824109
5.049764,5.756764022511352,0.078748710280203
5.052144,5.7603527068393445,0.0784515298685162
5.054539999999999,5.7707390893395045,0.0781048656479076
5.056924,5.776562191839391,0.0778257826767695
5.059308,5.782664833592997,0.0775302791876177
5.061704000000001,5.782621403480492,0.0772958664426548
5.0640920000000005,5.78015656374099,0.0771031333796203
5.066471999999999,5.7847689614273765,0.0768468259027796
5.068876,5.789381359113764,0.0765901135311982
5.071263999999999,5.792783051986653,0.0763544519567934
5.073644,5.794834270419182,0.0761495981555849
5.076048,5.802519704038624,0.0758692656753677
5.078436,5.811415842471566,0.0755691003579775
5.080816,5.81695940571773,0.0753145018276674
5.083212,5.825576004896951,0.0750320834555927
5.0856,5.835775395942008,0.0747571306238019
5.08798,5.8478371181066215,0.0744742234288508
5.090375999999999,5.861900941017652,0.0741761457385578
5.092763999999999,5.876244303182402,0.0738622738352995
5.095148,5.889376960533653,0.0735692085358553
5.097543999999999,5.903301013817824,0.0732824898486085
5.099931999999999,5.917364836728855,0.0729879058475038
5.102312,5.926633062214134,0.072722942935342
5.1047080000000005,5.93832269732641,0.0724198050005442
5.107096,5.952945598744881,0.0720995094827165
5.10948,5.97464573758924,0.0717250016013955
5.1118760000000005,5.9986275164337375,0.0713234426873372
5.114264,6.018465324158541,0.0709631641096242
5.11666,6.042027794122458,0.0705914766503054
5.1190560000000005,6.067732134459653,0.0702012663211923
5.121444,6.087849481438177,0.069833020966641
5.123823999999999,6.109409850655677,0.0694859239793797
5.126215999999999,6.12910788875362,0.0691453048256442
5.128603999999999,6.1510875668517,0.0687791521593935
5.130988,6.169994209016726,0.0684372995625373
5.133384,6.189971786368389,0.0680880204206238
5.135771999999999,6.210228902973774,0.0677271337201024
5.138152,6.227412983646103,0.0673892665617992
5.140552,6.25153453211746,0.0670152082397429
5.142936000000001,6.278729116521874,0.0666222435681366
5.145315999999999,6.303130204246952,0.0662398069958708
5.14772,6.329114083837867,0.0658663818915397
5.150108,6.356680755294618,0.0655020278720833
5.152488,6.386761384176983,0.065146865113925
5.154892,6.410695941193238,0.0648345164996587
5.157276,6.428344656716519,0.0645738521422045
5.159656,6.442780566679889,0.0643423651169418
5.16206,6.458147642203035,0.0641091806542883
5.164448,6.469510516233346,0.0639005761146894
5.166828000000001,6.479662685450161,0.0637094756421306
5.169224,6.49111810727909,0.0635392650659684
5.171612,6.49656722686877,0.063404342155641
5.173992,6.506392635003619,0.0632713901918266
5.176387999999999,6.513656863884612,0.0631771399060074
5.178775999999999,6.526787625377994,0.0630565431947945
5.18116,6.536985120565182,0.0629500469884049
5.183555999999999,6.546763306871789,0.0628641268976386
5.185943999999999,6.561476860231008,0.0627544843617052
5.188336,6.569904572097255,0.0626921009713495
5.190732000000001,6.574048543216949,0.0626643699611531
5.19312,6.580846241389118,0.0626372167031381
5.195499999999999,6.588854644374786,0.062595504667502
5.197903999999999,6.595140485867757,0.0625514096851263
5.2002880000000005,6.601705866614448,0.0624953227604284
5.202672,6.618141981466364,0.0623952830382702
5.205067999999999,6.636859736318417,0.0622721520296683
5.207452,6.656788195983968,0.0621345708498488
5.209835999999999,6.674854324529964,0.0620011576430522
5.212232,6.692920453075958,0.0618672727455812
5.21462,6.709124250502396,0.0617375011326868
5.2170000000000005,6.727889227182692,0.0615723202737695
5.219396,6.748004678303347,0.0613854314779401
5.221784,6.767748042371664,0.0611774291225706
5.224164,6.788330024201142,0.0609318198178666
5.226559999999999,6.804907804537788,0.0607082423043798
5.228944,6.822416750434211,0.0604830054020142
5.231323999999999,6.839134300397715,0.0602537402780016
5.233739999999999,6.851056252935469,0.060040017205217
5.236124,6.860324478420748,0.0598241766214621
5.238503999999999,6.870012012786607,0.0595889055096026
5.240912,6.874903949726714,0.0593680184045789
5.2433,6.874860519614209,0.0591678158308444
5.24568,6.875748255061483,0.0589657964212314
5.248075999999999,6.8706296882695055,0.0587924178205822
5.250463999999999,6.856711322558944,0.0586524534306506
5.252844,6.842653187221521,0.0585184581964281
5.255240000000001,6.828455282257238,0.058390417533759
5.257628,6.814397146919815,0.05825549915149
5.260007999999999,6.801689486022752,0.0580998470351415
5.262404,6.790983925872105,0.0579348223191471
5.264792,6.779207430534819,0.0577772983539449
5.267187999999999,6.77050397113059,0.0576031136831972
5.269591999999999,6.754583504673611,0.057468449851558
5.271979999999999,6.740385599709327,0.0573369999111043
5.27436,6.725116759558407,0.0572127327159652
5.276756000000001,6.708916753847707,0.0570893108291482
5.2791440000000005,6.695138157764005,0.0569384040000257
5.281523999999999,6.686434698359774,0.0567631819616739
5.28392,6.68038496600802,0.0565900774342925
5.286308,6.675126629589182,0.0564217758807976
5.2886880000000005,6.677085300223093,0.0562154909955865
5.291084,6.685050273096257,0.0559847557639484
5.293472,6.695436655596417,0.0557289414388575
5.295852,6.707033742910076,0.0554582958123074
5.298252,6.720772700597012,0.0551720908924469
5.300635999999999,6.734651427910808,0.054880255390982
5.30302,6.748669924851464,0.0545828033547157
5.305424,6.763619587351899,0.0542847909151519
5.307812,6.78136274653167,0.0539867375052896
5.310191999999999,6.798174740151661,0.0536907924732357
5.312588,6.811913697838597,0.0534086252577136
5.314976,6.82150868440584,0.0531486814616242
5.317359999999999,6.836039038025694,0.0528708259293231
5.319756,6.843492154219658,0.052622037509468
5.322139999999999,6.849082939294067,0.0523733060384893
5.32452,6.854813493995335,0.052117952239519
5.326916000000001,6.8559807686963286,0.0519030376296781
5.3293040000000005,6.848068705225017,0.0517244061577373
5.3317,6.842578051380703,0.0515200663713752
5.334096000000001,6.840439972723163,0.0512901927696339
5.336484,6.8350890885057085,0.0510818580784764
5.338863999999999,6.82694470760892,0.0508756220877836
5.341268,6.815307981898494,0.0507008870343762
5.3436520000000005,6.807535688054043,0.0505184129874509
5.346036,6.799903163836452,0.0503292553403528
5.34844,6.791339474059083,0.0501399990798842
5.350828,6.781053222789017,0.049944467565107
5.353208,6.770766971518952,0.04974873213877
5.355604,6.754334648382775,0.0495780638446362
5.357991999999999,6.733898123753765,0.0494190063453487
5.360372,6.716394865430948,0.0492526158395606
5.362767999999999,6.696749736734856,0.0490974331475351
5.365155999999999,6.675242276919207,0.0489418101337503
5.367535999999999,6.660672284902586,0.048765959198962
5.60886,3.147112672036739,0.0487050256466396
5.611243999999999,3.103487660354018,0.0486900644270208
