Time,Force,Position
7.194491999999999,1.1866916300680133,0.148537550936076
7.258996000000001,1.3123610634807017,0.1482015391518254
7.261375999999999,1.3197631661306852,0.1479161780929389
7.26378,1.3262341032208904,0.1476841968090535
7.266167999999999,1.331634105124457,0.1475461053778043
7.268548,1.338105042214662,0.1472919484528435
7.273331999999999,1.3495566723278527,0.1469750772106092
7.275711999999999,1.3585415668436724,0.1465516695669583
7.278108,1.3665952957997138,0.1461884780730702
7.280496,1.37730275180823,0.1456482159462132
7.282891999999999,1.385728567816609,0.1453813874808269
7.285296,1.3960167149445442,0.1449821609501068
7.287684,1.4097972068861155,0.144196801969716
7.290064,1.4194337277079934,0.1438394712479246
7.292459999999999,1.429210018156731,0.1434539869486423
7.294847999999999,1.4399174741652474,0.1430534782972798
7.299624000000001,1.4522530480099731,0.1429873979002967
7.302012,1.4588165328987956,0.1429411927647839
7.304391999999999,1.468453053720673,0.1426726556558064
7.306792000000001,1.4822335456622446,0.1420920560059496
7.309176,1.494803332790317,0.1416750770888108
7.311559999999999,1.5092354510379464,0.141150147175248
7.313963999999999,1.528742705965048,0.1402950477722867
7.316351999999999,1.5503918312654266,0.1392966742365968
7.318732,1.5749742228720005,0.138122663891019
7.321136,1.6022575633592924,0.1366348222976693
7.323524,1.6284699686599455,0.1352729983500461
7.325904,1.655613539520377,0.1338317460063039
7.3283,1.677961512955057,0.1326464965990064
7.330687999999999,1.701380421576375,0.1313444287607307
7.333072,1.722517690197556,0.1302579347740282
7.335468,1.7423044843783777,0.1293899179553857
7.337855999999999,1.7603687170665032,0.12855383202304
7.38802,1.8746470131993287,0.1282861946622503
7.3904,1.8798146976774175,0.1281475849041017
7.392796,1.889685431782642,0.1276717287396454
7.395183999999999,1.9020701233134805,0.1271656385990091
7.397568000000001,1.9141752755905983,0.1267114506740274
7.399964,1.932426499733828,0.1259539651322986
7.402352,1.9477444575708611,0.1253190683527075
7.404736000000001,1.9590582139150612,0.1248645497093354
7.407132,1.973724545446037,0.124207423059503
7.409515999999999,1.991883221790649,0.1233016817975796
7.411916000000001,2.0101816677621214,0.1223818877680285
7.414312,2.0272694089200947,0.1215571226475089
7.4167,2.0407722574658145,0.1208456446442113
7.41908,2.054275106011535,0.1201296674992762
7.421475999999999,2.069780055303672,0.1193317833302987
7.423863999999999,2.0836549909017297,0.1187289429494338
7.47642,2.110330135195469,0.1182822882418422
7.478815999999999,2.1139622496359647,0.1180625404756843
7.481203999999999,2.1214587959424343,0.1177072031244063
7.483588,2.1303058166892628,0.1172536120848724
7.485988,2.147021470794899,0.1165052549952925
7.488376,2.1654596863932314,0.1157248586585215
7.490756,2.1808248660585083,0.115057362006192
7.493156,2.1932567794175903,0.1144953016663437
7.495544,2.202336117589896,0.1141064417703392
7.497924,2.21206708206826,0.1137377728456064
7.500328,2.2204475721062646,0.1134776583663937
7.502716,2.2277571269576306,0.1132706295298553
7.505095999999999,2.2330645810625804,0.1131473316369211
7.507496000000001,2.243447171847002,0.1128129056644491
7.509884,2.255320006698643,0.112371376886306
7.512268,2.268683085617503,0.1118269967526362
7.514663999999999,2.2851192004694183,0.1111793119147347
7.517055999999999,2.299972523455498,0.1105599030146454
7.519431999999999,2.3088195442023265,0.1101460303833132
7.521828,2.319528896068712,0.1096758910551073
7.524216,2.3299587086813767,0.1092491658104402
7.526592,2.3363843198012075,0.1089726747922673
7.536167999999999,2.339736894987984,0.1088133525136515
7.538552,2.3460227364809545,0.1085733230762235
7.540932000000001,2.3573837146533974,0.1081604960746009
7.543335999999999,2.3734005206247324,0.1076228497187081
7.545723999999999,2.388625930663149,0.1070899438764861
7.548103999999999,2.4041308799552863,0.1065231447147584
7.550508,2.416842332568088,0.1060130842343883
7.552891999999999,2.4275516844344733,0.1055642698674567
7.555271999999999,2.4389126626069166,0.1051495710809354
7.557676,2.448783396712141,0.1048478259838424
7.564844,2.460282248653576,0.1047652844546302
7.567232,2.465170393877945,0.1047341538233056
7.569608,2.47192087022187,0.1046610556200408
7.572004000000001,2.479882051379294,0.1045279448125904
7.574392,2.488914167723357,0.1043530506631203
7.576771999999999,2.496875348880781,0.104217532823135
7.579175999999999,2.504464442985868,0.1040254656606106
7.58156,2.520201709703482,0.1035590370103534
7.583939999999999,2.5373819986600723,0.1031228485837622
7.586336,2.548416215750552,0.1029054852767702
7.588719999999999,2.555446231348198,0.1028077613045291
7.591116,2.564897656572841,0.1026051448443522
7.593519999999999,2.578213513663458,0.1023189372591822
7.595904,2.5884563348210192,0.1021211255217801
7.598284,2.6044259189641115,0.101795454984677
7.600687999999999,2.622257834226759,0.1014254048101514
7.603072,2.6354339216905163,0.1011503848561941
7.605452,2.646887447661576,0.1008931192806116
7.607855999999999,2.6566184121399403,0.1006538204119807
7.61024,2.668351477364722,0.1003544821598678
7.612620000000001,2.683948974455476,0.0999595873247341
7.615016,2.698475536359592,0.0996033080674187
7.617404,2.7092774360245944,0.0993228393295267
7.619784,2.718868630876098,0.0990994117551512
7.622188,2.7300426175934374,0.0988781157116292
7.624576,2.7462917409902494,0.0985179803997487
7.626955999999999,2.766917152932232,0.0981194656966467
7.629352,2.785400694500938,0.09780694611643
7.631735999999999,2.799368177897613,0.0975608573107823
7.634116,2.813335661294288,0.0973147685051346
7.636515999999999,2.830236410997158,0.0970052692907456
7.6389,2.8422017936474155,0.0968168143919079
7.641279999999999,2.8484404133121437,0.0967414305746103
7.643683999999999,2.858823004096565,0.0965549527612165
7.646071999999999,2.869624903761568,0.0963287855755618
7.648452,2.883779378613346,0.0960007496000715
7.650860000000001,2.9017982853310977,0.0956000904144028
7.653244,2.9218192927952664,0.0951558147948771
7.655627999999999,2.9446337969387693,0.0946708011379705
7.65802,2.970241797761608,0.0941510519247715
7.660407999999999,2.9939874674648896,0.0936648790583048
7.662788,3.0189438419816708,0.0931361031281388
7.665183999999999,3.048695813924203,0.0925267167847389
7.667571999999999,3.0808691954937326,0.0918378152114231
7.669951999999999,3.114393051503622,0.0911089794114055
7.672356,3.1429815404608985,0.0904893914664024
7.674744,3.1601165034471146,0.0900460726147635
7.677124,3.1745977393808564,0.0896288624885999
7.679519999999999,3.191872471993933,0.0891715344115538
7.681904,3.2091472046070098,0.0887142063345078
7.684283999999999,3.2262821675932263,0.0882808456418146
7.686687999999999,3.245419231325859,0.087808871630702
7.689075999999999,3.2642767558047723,0.0873560264371812
7.691456,3.280992409910408,0.0869644467815074
7.69386,3.2934243232694893,0.0866863122480814
7.696248,3.303434827001574,0.0864963151811445
7.698628,3.312653934800741,0.0863077107894456
7.701032,3.320662337786408,0.0861599056687634
7.70342,3.3266686400256584,0.086049819014985
7.705799999999999,3.3288105103989354,0.085999259601337
7.708203999999999,3.331092150399073,0.0859347079747465
7.710588,3.338309157451822,0.0857922492333687
7.712972,3.3445949989447934,0.0856636975725904
7.717756,3.35232386267674,0.0855593476301389
7.720135999999999,3.3549775897292147,0.0855434639808223
7.722532,3.3695041516333304,0.0853429564109313
7.72492,3.382680239097087,0.0851894407061576
7.7273,3.395064930627926,0.0850337962992559
7.729703999999999,3.406378686972125,0.0849003356102828
7.732092000000001,3.4159698818236293,0.0847750886036251
7.734471999999999,3.422627810368938,0.084692685933259
7.736868,3.4347801844743,0.0844823505761432
7.739256,3.4467927889528003,0.084284841698809
7.741636000000001,3.457734458244663,0.0841066156549886
7.744039999999999,3.467884731603607,0.0839252544584988
7.746427999999999,3.4756135953355547,0.0838180050211737
7.748807999999999,3.481619897574805,0.0837161538023028
7.751212,3.487254112761718,0.083570149749217
7.7536,3.4940990327621297,0.0833860452677725
7.770319999999999,3.4538303879819234,0.083262250790481
7.772716,3.4460561982796025,0.0832101454510053
7.775099999999999,3.441215274883477,0.0831168996078973
7.77748,3.4375850563008497,0.082988297042469
7.779875999999999,3.4339548377182227,0.0828595257527923
7.782264,3.4321869502551525,0.0827120585087829
7.784643999999999,3.4270664876053063,0.0826439151773843
7.78704,3.425438369769096,0.0824856319292883
7.789423999999999,3.4282337623063,0.0822291506642301
7.791808,3.4334505644705016,0.0819074863043583
7.794204,3.4410887762617004,0.0815183078884801
7.796591999999999,3.456735391038567,0.0810208776519442
7.798976000000001,3.474895963241048,0.0805292259392668
7.801372,3.493056535443529,0.0800392048979182
7.80376,3.5122880428326493,0.0795314019199466
7.80614,3.53016907578141,0.0790599364784636
7.808535999999999,3.550983375036366,0.0785472502664838
7.810923999999999,3.576081415037876,0.0779464827879111
7.813324000000001,3.601691311718584,0.0773878212921896
7.81572,3.626230273212653,0.0768549797230132
7.818108,3.654913205826416,0.0762540596810905
7.820488,3.6785210017607066,0.0757386574338948
7.822888,3.697193430642385,0.0752888818670604
7.825276,3.717867960270481,0.0748178389526848
7.827656,3.7394736554583554,0.0743430121365244
7.83006,3.761358889899949,0.0738455393675975
7.832444,3.783383893968404,0.0733367679914277
7.834824,3.8000542221036655,0.0729274863800811
7.837228,3.8159331543060095,0.0725215474151017
7.839612,3.826457410575161,0.0722081213652009
7.841992,3.834979566097896,0.0719205373026573
7.844387999999999,3.836564253821601,0.0717157984164123
7.846772,3.83628661042575,0.0715239812936912
7.849151999999999,3.839221772589814,0.0712826430447627
7.851544,3.842296704380739,0.0710316673724256
7.853927999999999,3.850586542477996,0.0707068661036372
7.856307999999999,3.860087085388752,0.0703562861898098
7.858724,3.871589729045924,0.0699900839879173
7.861108000000001,3.882300976770179,0.0696221295529296
7.863487999999999,3.894222929307932,0.0692299261937687
7.865884,3.902140680352852,0.0688798503489925
7.868268,3.91112936658441,0.0685133765305743
7.870664,3.919047117629329,0.0681577019557249
7.873067999999999,3.9238918327411927,0.0678404362467383
7.875455999999999,3.929807483039696,0.0675106273482994
7.877835999999999,3.9363747596442566,0.0671996745144973
7.880228,3.943873201808596,0.0668856028394322
7.882616,3.955375845465769,0.0665315043043629
7.884996,3.9653882450557214,0.0662281998176418
7.887388,3.982338112444705,0.0658628937131767
7.889776,4.001010541326385,0.0655003568751896
7.892167999999999,4.018332495767703,0.0651714109046108
7.894564,4.034863054276105,0.0648366759189905
7.896947999999999,4.047109872037953,0.0645665611876446
7.899332,4.056283653866744,0.0643308017672555
7.901727999999999,4.066528370882176,0.0640852109393647
7.904112,4.077284944576803,0.0638707428496995
7.906491999999999,4.0828266119651,0.0637184639837752
7.908888,4.084084538606842,0.0636228319856459
7.911271999999999,4.084643617114282,0.0635805623703529
7.913652,4.091208997860973,0.0634857025849654
7.916047999999999,4.100056018607802,0.0633542946011884
7.918432,4.11598027678052,0.0631586814562999
7.920812000000001,4.134046405326515,0.0629365632223377
7.923208,4.147316936446758,0.0627421383600365
7.925591999999999,4.159935841260944,0.0625315741186215
7.927972,4.1728342853288485,0.0623031433149048
7.930383999999999,4.18293923271742,0.0620851443994524
7.932771999999999,4.192764640852269,0.0618869708991696
7.935151999999999,4.194721415628312,0.0617439368523756
7.937563999999999,4.198028664844715,0.0615688903803873
7.939951999999999,4.202686388501475,0.0613588824725327
7.942348,4.209718299956991,0.0611712694526802
7.944752,4.2158190458527285,0.0609852293635477
7.947135999999999,4.223921892494881,0.0607822245664141
7.949516,4.227740998390481,0.0606333031302166
7.951911999999999,4.229837542793385,0.0604807657255253
7.954296,4.232213626450008,0.0603062747755421
7.956675999999999,4.2399443860398245,0.0600655884284485
7.959072,4.2432988570844685,0.059816749841061
7.961455999999999,4.241578191449642,0.059615294849196
7.963852,4.2372963465609566,0.0594713353683195
7.966244,4.231012400925855,0.0593440103488748
7.968632,4.225799390477391,0.0592045267294972
7.971011999999999,4.22510243820096,0.0590625684868525
7.973408,4.228409687417361,0.0588933744073672
7.975796,4.227293426260349,0.0587818078672848
7.978176,4.228179265849754,0.0586560837921574
7.980579999999999,4.228832788013682,0.0584830365615194
7.982968,4.235492612416859,0.0582666137936405
7.985347999999999,4.236937530513704,0.0581004143286569
7.987744,4.240244779730106,0.0579302225434993
7.990132,4.2429004026404495,0.0577435969213628
7.992512,4.251422558163184,0.057526482679525
7.994908,4.263809145551892,0.0572948133576821
7.997295999999999,4.27647527219432,0.0570426073301769
7.999692,4.28793069402325,0.056811225347455
8.002092000000001,4.3051128788377095,0.0565609978034867
8.004480000000001,4.317871553278754,0.0563670100316038
8.00686,4.338498861078608,0.0561307489291209
8.009256,4.3589863992516005,0.0559024803832213
8.01164,4.378822311118535,0.0556560084371575
8.014019999999999,4.395585187052414,0.055435969698265
8.016428000000001,4.408204091866598,0.0552531379753559
8.018812,4.417377873695391,0.0550583269457897
8.021192,4.422128145150769,0.0549200717862463
8.023588,4.433024488472258,0.0547342451031888
8.025976,4.442849896607108,0.0545607458073567
8.02836,4.457191362913989,0.0543922600748775
8.03076,4.47260376440751,0.0542169291798897
8.033144,4.492160137020724,0.0540081093904057
8.035523999999999,4.513858380007214,0.0537822617145797
8.03792,4.532902895941231,0.053551553632197
8.040303999999999,4.546360418516576,0.0533298603947345
8.0427,4.55488257403931,0.0531332861048671
8.045092,4.564475664748684,0.0529269822404459
8.04748,4.580494366577888,0.0526644302145269
8.049859999999999,4.591717470981339,0.0524174755083945
8.05226,4.604430819452011,0.0521322428753546
8.054648,4.6131399664298485,0.0518712212927893
8.057027999999999,4.624270523034685,0.0515738687469953
8.059432000000001,4.6364720148261584,0.0512673227725667
8.06182,4.648953045871353,0.0509423440774468
8.064195999999999,4.66543827840938,0.0505980392160413
8.066592,4.683366533186384,0.0502784664442308
8.06898,4.696638960164497,0.0499575475166561
8.071356000000002,4.707117890463274,0.0496415257204397
