Time,Force,Position
6.359440000000001,2.055608522337904,0.1221115906862897
6.36178,2.063010624987887,0.1220009631895799
6.364116000000001,2.071204123570789,0.1218892718734535
6.36646,2.086055550698999,0.1215342457863989
6.368808,2.1019779130138474,0.1211345194614541
6.371148,2.116177713835999,0.1207664833033596
6.373488,2.1314484498447896,0.1203463553391374
6.375832000000001,2.151514783279332,0.1197303903169436
6.378176,2.1720004255944554,0.1190797924357882
6.380512,2.1918344416035205,0.1184183186075605
6.382856,2.2164640550383377,0.117606892096431
6.3851960000000005,2.243235538846432,0.1167052669174147
6.387544,2.26856400041555,0.115790538981398
6.389884,2.2916108219845306,0.1150401737620035
6.392228000000001,2.3171716009791257,0.1142871325469223
6.394568,2.3425926103468604,0.1135527624512824
6.396912,2.3692243245280946,0.1127495418346076
6.399252000000001,2.3958560387093284,0.1119463212179327
6.401596,2.41741261621109,0.1113308231069822
6.403944000000001,2.4409712944592683,0.1106386382114053
6.406283999999999,2.463598807147668,0.1100027077328178
6.408628,2.48543492390315,0.1093824835371305
6.410968,2.504337774352437,0.108858825726701
6.413312,2.521797602562748,0.1083388888754797
6.415660000000001,2.534461833347307,0.1079525407613007
6.418000000000001,2.5483367689453646,0.1074989800417254
6.420351999999999,2.5634224093569213,0.1069939958310576
6.422696,2.578368280141617,0.1065139621482173
6.425036,2.5893099494334804,0.1061718079832285
6.427384,2.6027655761509574,0.1058094660120122
6.42972,2.6134277061891,0.1055242280693038
6.432068000000001,2.618083533987991,0.1054185779246824
6.434420000000001,2.626603793652856,0.1052142729317666
6.43676,2.631539160705468,0.1050732167023101
6.439104,2.6319584695860483,0.1050174414825002
6.441444000000001,2.633588483280128,0.1049048536948053
6.443784000000001,2.6342873314144293,0.1048126549750715
6.4461200000000005,2.637919445854925,0.1046453040992166
6.448468,2.6438332002955587,0.1043784978917459
6.450812000000001,2.646813688429997,0.104189130234343
6.460176000000001,2.6414136865264317,0.1041823639129473
6.462516000000001,2.6443469528326258,0.1041023029811294
6.464864,2.6470006798851005,0.1040596649581445
6.467212,2.649374867683855,0.1040555773110496
6.469548,2.652959760296108,0.103996437061587
6.471888,2.6605488544011946,0.1038270712677301
6.47424,2.6637616599611103,0.1037170503741081
6.47658,2.6657637607075277,0.1036619268935642
6.478924000000001,2.6739119333200554,0.1034206334376828
6.481264,2.679918235559305,0.103258069691954
6.483612000000001,2.6877868689181126,0.1030564739255625
6.485952000000001,2.696446898209837,0.1028534993083459
6.488296,2.704827388247842,0.1026885116171442
6.490644,2.7132078782858478,0.1025235239259425
6.492980000000001,2.7155820660846013,0.1025215058011815
6.495328000000001,2.72047021130897,0.1025001516218296
6.497668000000001,2.7322958243323674,0.1023028941405518
6.500008000000001,2.749336343662098,0.1019409829013793
6.502344000000001,2.767168258924746,0.1015841960332052
6.504688,2.783929239000756,0.1012637775927149
6.507032000000001,2.798176261651152,0.1009503865899479
6.50938,2.8114921187417687,0.1006632207577655
6.51172,2.825087515086106,0.1003410985680087
6.514063999999999,2.8358894147511085,0.10007486449193
6.516404,2.844037587363636,0.099848184474316
6.518744,2.8452482921771347,0.0997960234740828
6.521084,2.8501836592297467,0.0996742025387717
6.523432,2.85553833516294,0.0995010201475464
6.525772,2.860613471842412,0.0993661193714605
6.53046,2.8619639462827706,0.0992982641024125
6.5328,2.864245586282908,0.0992134095404683
6.535136,2.866946535163626,0.0990789713147293
6.537476,2.868856088111425,0.098943939967224
6.539820000000001,2.8747698425520585,0.0987050642170463
6.542164,2.8811029058732727,0.0984207364561325
6.544508,2.877705004716123,0.0983520227663086
6.546852,2.875378038745612,0.0982508053698303
6.549192,2.871887589789845,0.0980991947346635
6.551532,2.869607845647577,0.0979002088595537
6.553876000000001,2.877850461916591,0.0975066933065894
6.55622,2.885022142998966,0.0971461923687961
6.55856,2.896058255947316,0.0967202839332332
6.560904000000001,2.909887865575,0.0962534339430177
6.563244000000001,2.926231432628297,0.0957793540370425
6.565588,2.948161993040266,0.0952118540220844
6.567932000000001,2.9670195175191787,0.0947217678975889
6.57028,2.9863888986772893,0.0942679133166259
6.572620000000001,3.0056185102085404,0.0938373277002558
6.574964,3.0297834887924027,0.0933086960342587
6.577308,3.058883834428877,0.0926758363720267
6.579648000000001,3.084771374505436,0.0921417714244001
6.581988000000001,3.1100998360745544,0.0916739564630266
6.584332,3.1379422550692864,0.0911984480080056
6.642928,3.250135381946424,0.0911709031527208
6.645276000000001,3.24422352336366,0.0911079037402246
6.6476120000000005,3.241384700713951,0.0909835752214883
6.649952000000001,3.2428296188107963,0.0907605778934021
6.652296,3.241341270601446,0.0905829999750157
6.6546400000000006,3.248792490937542,0.0902506921414548
6.656976,3.2583855816469147,0.0898684072997855
6.659320000000001,3.271843104222261,0.0894330904566689
6.661671999999999,3.2874424971708844,0.0889536467848456
6.664012,3.3036009686269487,0.0884212920189334
6.666356,3.318688504896374,0.0879084502149289
6.668696000000001,3.3368490770988557,0.0873289801583946
6.67104,3.354869879674476,0.0867748281370167
6.673376000000001,3.3758239485562926,0.0861782383815755
6.67572,3.398500578930805,0.0855774888115231
6.67806,3.421968605238236,0.0849786613013584
6.680408,3.4438538396798304,0.0843826902047393
6.682752000000001,3.469743275614258,0.0837132142257367
6.685092000000001,3.489346870055716,0.0831751739160082
6.687436,3.510300938937532,0.0825958969441673
6.689788,3.52296706557996,0.0821706347318472
6.692136,3.534934344088087,0.0818176376606843
6.69448,3.547041392223075,0.0814557255102495
6.696823999999999,3.5528625988650915,0.0812183144573353
6.699168,3.562827776626801,0.0809010420711285
6.701512000000001,3.564784551402844,0.0807154826769148
6.703848000000001,3.5648789950593303,0.0805488595951865
6.706184,3.560969237222983,0.0804460785407123
6.708532,3.5539864434535806,0.0803964330668837
6.710876000000001,3.5456531752438187,0.0803943112781138
6.713216000000001,3.542115504459809,0.0803343455035258
6.71556,3.542582035168633,0.0802144761585973
6.717904000000001,3.538252968451705,0.080149854071387
6.720248,3.530990635428582,0.0801233304030926
6.722588,3.52279713684568,0.0801045344519199
6.724936,3.5187476093824723,0.080014372699661
6.727288,3.514278773038684,0.0799615680469094
6.729628,3.5080873752021997,0.0799114981482283
6.731972000000001,3.509392523672184,0.0797197595906717
6.734316,3.5074848665822533,0.0795887407068428
6.7366600000000005,3.517589813970824,0.0792925169914028
6.739004,3.5289054661728936,0.0789670667228686
6.741348,3.54194367986766,0.0786449549232737
6.743692000000001,3.561267735055396,0.0782191005858046
6.746036,3.580312250989412,0.0778218860657238
6.748376,3.606154465095597,0.0773519364215038
6.7507280000000005,3.634929945507977,0.0768534536949228
6.753064,3.664636591480136,0.0763460593311101
6.755404,3.6963453381987113,0.075813510742816
6.757747999999999,3.7300561856637033,0.0752558790071227
6.760096000000001,3.762184241262859,0.0747011823484291
6.76244,3.788026455369044,0.0742508173243375
6.764784000000001,3.8175933317143422,0.0737704044975082
6.767144,3.849302078432917,0.0732550327702425
6.769484,3.88301292589791,0.0727218645838543
6.7718240000000005,3.910717471123652,0.0722695481429881
6.774168,3.938282246722533,0.0718279127081093
6.776512,3.970363080493446,0.0713743431823191
6.778848,3.9958785335176663,0.0710439464443798
6.781192000000001,4.022464921728527,0.0706957460960246
6.783532000000001,4.045326647700273,0.070384868861226
6.785880000000001,4.067536747365962,0.0700633120194356
6.788220000000001,4.087093119979176,0.0697517041868677
6.790564,4.103576456659335,0.0694822693328004
6.792908000000001,4.120199562966354,0.0692042124092775
6.795244,4.130304510354924,0.0689619872294849
6.797588000000001,4.139198752929996,0.068748428951019
6.799928,4.149024161064846,0.0685307628386336
6.80228,4.159920504386334,0.0683007829418552
6.804624,4.170816847707823,0.0680727621636416
6.806968,4.177429450282759,0.0679039196964935
6.809316000000001,4.188605332857968,0.0676551018381475
6.8116520000000005,4.200200524313757,0.0673774943834565
6.814,4.208722679836491,0.0671335370948377
6.816344000000001,4.216313669799447,0.0668967140213179
6.818696000000001,4.226977695695459,0.0666269427374024
6.82104,4.238200800098911,0.0663166321141434
6.823384000000001,4.243836911143694,0.0660323473100406
6.825728,4.251754662188613,0.0657075698204984
6.828064,4.259812182860392,0.0653734152786297
6.830412000000001,4.265588063532035,0.0650800701400192
6.832756,4.2692220738304005,0.0648154712117558
6.835096,4.270574444128628,0.0645879232801889
6.837440000000001,4.271926814426856,0.064360590751642
6.839784,4.2726275584190265,0.0641174536689705
6.842128000000001,4.276261568717391,0.0638521492438964
6.844476,4.279243952709699,0.0635709553839711
6.846820000000001,4.282925184836309,0.0632414097597093
6.849168000000001,4.285815021029999,0.0629082505537344
6.851504,4.286842526104133,0.0625817079953526
6.853848000000001,4.295878434163933,0.0621925820984223
6.856196000000001,4.304495033343155,0.0618380756391783
6.858532,4.314834194015072,0.0614924423344431
6.860876000000001,4.328246390620044,0.061119039902287
6.86322,4.337654385732183,0.0607750887005411
6.865564000000001,4.347062380844322,0.0604339645708508
6.867904000000001,4.357122002262519,0.0601115715850566
6.870244,4.370906285919828,0.0597798934025557
6.872592000000001,4.384690569577138,0.0594490213047449
6.874931999999999,4.398195313980728,0.0591381190724837
6.877284,4.410908662451399,0.0588196732708211
6.879628,4.42348224129521,0.0585097552887365
6.881972000000001,4.438197690512299,0.0581742105519142
6.884308000000001,4.453052909356247,0.0578302963382799
6.886652,4.468280215252533,0.057524261806852
6.889000000000001,4.486161248201294,0.0572245738079776
6.891344,4.504693907456113,0.0569434279203874
6.893688000000001,4.5215965530168525,0.0567147416310532
6.896027999999999,4.535006853763955,0.0565393657295699
6.898368,4.551210651190393,0.0563591926747756
6.900712,4.559266276004305,0.0562426331551992
6.903055999999999,4.564388634512021,0.0561415589697588
6.905396,4.565367021900041,0.0560763854975953
6.907744000000001,4.564063769287925,0.0560428078205027
6.910088,4.570489380407757,0.0559766694712716
6.912428,4.574633351527451,0.0559419322082222
6.940556000000001,4.578358013766564,0.0559365438874883
6.9429,4.576635452273867,0.055930537887126
6.945244000000001,4.573981725221393,0.0559260088022153
6.947592,4.575751508542332,0.0558697185192546
6.949928,4.581525493356105,0.055789734294817
6.952276,4.590372514102934,0.055687400939575
6.954624000000001,4.605365606715873,0.0555419764408106
6.9569600000000005,4.612490065970006,0.0554354456329984
6.959300000000001,4.623758496343832,0.0552974420636335
6.961644,4.639170897837352,0.0551283128384981
