Time,Force,Position
6.851267999999999,1.200029446584877,0.1394229269420079
6.853664,1.2122724726309864,0.1392232591331323
6.856052,1.2271692257295703,0.1388181257364031
6.858435999999999,1.2422529702832577,0.1381319026511145
6.860832,1.2589667285310244,0.1371535066573977
6.86322,1.2733988467786537,0.1364381674051525
6.865600000000001,1.2818246627870324,0.1362957410568003
6.867996,1.2960244636091844,0.1354935689428263
6.870379999999999,1.3079898462594426,0.1347508447926987
6.87276,1.3162305666705874,0.1342451246234358
6.875176,1.3297787411866815,0.1334741967878431
6.877559999999999,1.3505439227555252,0.1320803891047384
6.87994,1.3643716365253395,0.1312533009291118
6.882356,1.3788509766012118,0.1304577740146077
6.884739999999999,1.3958442741026988,0.129628892607014
6.88712,1.4167020034701594,0.1286461770500264
6.889536,1.4373274154121425,0.1275422233138164
6.891919999999999,1.4580925969809857,0.1263963188472744
6.894299999999999,1.4799287137364678,0.1252019306598888
6.896716,1.4999024993723935,0.1241061578010365
6.899099999999999,1.5209472201949572,0.1229460773887944
6.901484,1.5365447172857114,0.1220744601425197
6.903879999999999,1.55656572474988,0.1208983548353871
6.906264,1.5800318551994417,0.119687364929691
6.908643999999999,1.6034979856490028,0.1185128514583332
6.911044,1.628966216844981,0.1172073808228957
6.913428,1.6553656136007375,0.1158619596168585
6.915808,1.6793436007294966,0.114760887243439
6.918203999999999,1.7009001782312585,0.1138414059317544
6.920591999999999,1.7272523531587716,0.1126949690546744
6.975572,1.8600179825760412,0.1119154571052224
6.97796,1.869514733771059,0.1118738144729726
6.98034,1.8816652120185509,0.111766738163949
6.985128,1.9018221973938412,0.1117206122042698
6.987508,1.9168133941489116,0.1113632559182684
6.989903999999999,1.9325034390382827,0.110873708397835
6.992291999999999,1.943537656128762,0.1105434632661532
6.994672,1.958296535458355,0.1100977849324222
6.9970680000000005,1.9719844796013093,0.1097090603229413
6.999452,1.986603589304042,0.1092949111320525
7.001835999999999,2.002573173447134,0.1087686498959788
7.004239999999999,2.016261117590088,0.108383603407269
7.006624,2.0293899832256024,0.1081051140871439
7.009003999999999,2.043310244794034,0.1078066693725728
7.011403999999999,2.0541574704294097,0.1076522247923127
7.013788,2.064073530505008,0.1075391750671377
7.016168,2.076783087259941,0.1073491064685256
7.018571999999999,2.092565679947929,0.1070502661074653
7.0209600000000005,2.108627811889638,0.1067183094775955
7.023339999999999,2.125621109391125,0.1063607700461487
7.025744,2.141031615026776,0.1060205505968189
7.028131999999999,2.1536486239830914,0.1057471479588942
7.030512,2.1705493736859616,0.105281165982175
7.032916,2.189172684881528,0.1047810714637057
7.035304,2.2041638816365974,0.1045139370967555
7.0376840000000005,2.219806704697726,0.1042732250275918
7.04008,2.2385225636919093,0.103922304500085
7.042468,2.2555158611933965,0.1036061816380689
7.044848,2.2738596331352423,0.1032087619619645
7.047243999999999,2.293274340263727,0.1027806161929868
7.049631999999999,2.3133406736982693,0.1023762450656099
7.052012,2.333826316013392,0.1019070679974825
7.054416,2.353800101649317,0.1013985683838966
7.056799999999999,2.378057628031797,0.1007293653138185
7.059184,2.4008721321753006,0.1000287647624937
7.061579999999999,2.4195426651991108,0.0994760748644504
7.063967999999999,2.436862723782561,0.0990161715974419
7.066348,2.4481764801267607,0.0987498865044408
7.068744000000001,2.4572085964708235,0.0985875233650286
7.071132,2.466380482441747,0.0984071240182497
7.073511999999999,2.474621202852892,0.0982496276964948
7.075908,2.484212397704395,0.09800870052799
7.078296,2.489939160689925,0.097868859104356
7.080691999999999,2.496364771809757,0.0976324706824975
7.083084,2.502930152556448,0.0973785840746312
7.085471999999999,2.5087041373702217,0.097126467857784
7.087852,2.513826495877937,0.0968608369334949
7.090247999999999,2.5153639617733994,0.0966479762878792
7.092635999999999,2.5176928236017795,0.0964396683492932
7.095015999999999,2.517228188750825,0.0962857265445229
7.09742,2.5139700572205355,0.0961848327248568
7.104583999999999,2.4956281811365586,0.0961741713697254
7.106976,2.491671201471968,0.0961665126106118
7.109356,2.4909270273672925,0.0960504195710637
7.11176,2.4906021621431984,0.0958788598887214
7.114144,2.4962835991583545,0.0955510684593143
7.116524,2.5014531794943133,0.0951822794357422
7.118928,2.5039690327777966,0.0948453559750986
7.121316,2.5042032460611434,0.0945969902543123
7.123692,2.5058804815834663,0.0943704924253261
7.126096,2.511422148971762,0.0940557689203609
7.1428080000000005,2.5004823755377683,0.0940233255938544
7.145187999999999,2.502996332963382,0.0940088270084917
7.16668,2.515938207143793,0.0939835589702861
7.169079999999999,2.52352730124888,0.093840681008235
7.171467999999999,2.535260366473661,0.0935912241180306
7.173848,2.546993431698442,0.0933495773867817
7.1762440000000005,2.5579351009903046,0.0930997309615094
7.178628,2.5768851732678346,0.0926602869197114
7.181011999999999,2.5949040799855863,0.0922382992034932
7.183408,2.614925087449755,0.0917641985602032
7.185791999999999,2.630941893421089,0.0913831681449539
7.188176,2.654687563124371,0.0908342153862215
7.190567999999999,2.671775304282345,0.0904059951295916
7.192956000000001,2.685790009507263,0.0900695527792111
7.195335999999999,2.6978026139857643,0.0897804341991985
7.197732,2.709023822531347,0.0894896889514378
7.20012,2.7219675925696265,0.0891960529440491
7.202500000000001,2.7383564855932985,0.0888782901059809
7.204896,2.757399105669446,0.0885415665699585
7.207284,2.77695358242479,0.0882385248565349
7.231171999999999,2.858796020455188,0.0880600190756695
7.233584,2.866198123105171,0.088058918645629
7.235968,2.8728088298222367,0.0880561992340451
7.238351999999999,2.8867763132189115,0.0878745445589635
7.240748,2.9015351925485047,0.0876967954004448
7.243136,2.919506877438013,0.0874379090406892
7.245516,2.93868926714102,0.0871395715500736
7.247911999999999,2.9509341890449994,0.0869692827793836
7.250299999999999,2.963598419829558,0.0867575253238858
7.25268,2.9714670531883653,0.0866193370344683
7.255075999999999,2.979615225800892,0.0864494580660938
7.257464000000001,2.9904171254658944,0.0862603363626936
7.259848,3.0036404347578944,0.0859907146082036
7.262243999999999,3.0199367799829497,0.0856511985178499
7.264631999999999,3.037583599648364,0.0852467394602428
7.267011999999999,3.0536476274479423,0.0848312192513728
7.269408,3.071062129687879,0.0843597398485528
7.271799999999999,3.0807477681958693,0.0840225941143635
7.274175999999999,3.0881517667037217,0.0837572203031182
7.276572,3.095835304465295,0.0834637888498265
7.27896,3.1076628133465616,0.0830809210829606
7.28134,3.11827961741433,0.0827450495849611
7.283732,3.12796525592232,0.0824251728435392
7.28612,3.134298319243534,0.0822001418086169
7.288499999999999,3.13983998663183,0.0819712052571315
7.290896,3.145521423646985,0.081733118214336
7.293279999999999,3.1498523862217827,0.081548393569498
7.29566,3.1603294206626917,0.0812470556942681
7.298067999999999,3.168944123984043,0.0809692889537897
7.300456,3.1826339639848658,0.0806041078940903
7.302832,3.200467775105384,0.0801689498469308
7.305228,3.2148564632405083,0.0797421553407081
7.307615999999999,3.2278946769352745,0.0793724790130165
7.309996,3.243586617682515,0.078995576195523
7.312391999999999,3.2628634510420085,0.0786021163777442
7.314779999999999,3.287727277760172,0.0781637255645936
7.317159999999999,3.307376198172003,0.0778163883183223
7.319556,3.3288874497033905,0.0774490487216828
7.321944,3.352540571608055,0.0770407787036939
7.324323999999999,3.3732604272065254,0.0766708950021794
7.32672,3.391978182058578,0.0763369589453157
7.329108,3.409764771350852,0.0760125465673398
7.331488,3.4283427565760443,0.0756982339615288
7.333888,3.445710036987738,0.0754156709018884
7.336271999999999,3.466429892586208,0.0750636086401715
7.338656,3.483657403371041,0.0748027912080023
7.341051999999999,3.505168654902428,0.0744660076125604
7.343439999999999,3.525469201620317,0.0741681325602468
7.34582,3.545210669830765,0.0739216003258946
7.348215999999999,3.560016770988601,0.0737389808935949
7.350604000000001,3.5698875050938264,0.073620503152586
7.352983999999999,3.5864161677443587,0.0734457836140159
7.35538,3.5990803985289177,0.0733084071988241
7.357768,3.6101618374476407,0.0731626732046574
7.360148000000001,3.619800254127388,0.0729964593263403
7.362544,3.623711907821604,0.0728810062452401
7.364932,3.635771734128348,0.0726559081257971
7.367312,3.649833661181509,0.0724086097577326
7.369707999999999,3.659099990808918,0.0722034622115338
7.372092,3.6734414571158,0.0719343342053736
7.374476,3.687643153795821,0.071677791239379
7.37688,3.7031953249162015,0.0713821131620626
7.379263999999999,3.713300272304772,0.0711080285048723
7.381644,3.7259663989472,0.0707628197068241
7.384043999999999,3.7354197200297135,0.0704756640064739
7.386431999999999,3.747154681112364,0.0701413718600473
7.388812,3.7558166062619582,0.0698532932005506
7.391207999999999,3.764758070665273,0.0695444474776484
7.393596,3.775189779135807,0.0691850819966424
7.395975999999999,3.789625689099175,0.0687829854123289
7.398379999999999,3.804061599062543,0.0683796967727496
7.400767999999999,3.811699810853742,0.0680389272235739
7.403148,3.822550828204856,0.0676459891628235
7.405543999999999,3.829257874436277,0.0673062422271681
7.407931999999999,3.833683280667561,0.0670120537816523
7.410316,3.840250557272121,0.0666837360484485
7.412711999999999,3.843884567570487,0.0663867650133598
7.415096,3.844725081189517,0.0661046148573297
7.417479999999999,3.851432127420938,0.0657730670182366
7.419876,3.856137072905943,0.065466334349002
7.422264,3.860050622458029,0.0651520850233198
7.424659999999999,3.863684632756394,0.0648626009207865
7.427059999999999,3.8747679675329856,0.064541087163928
7.429444,3.886642698242496,0.0642314680397553
7.431823999999999,3.896375558578729,0.0639500826830885
7.434227999999999,3.904385857422266,0.0636664231357863
7.436612,3.9106735947731055,0.0633801912357949
7.438991999999999,3.912957130631112,0.0631299105749488
7.441395999999999,3.9153804361159783,0.0628706772030597
7.443783999999999,3.9178037416008458,0.0626145938463869
7.446164,3.922880774138187,0.0623601401317945
7.448568,3.929168511489028,0.0620792209335396
7.450951999999999,3.9391809110789815,0.0617895872303009
7.453332,3.953197512161769,0.0614640922146654
7.455728000000001,3.970426918804472,0.0610993609048248
7.458116,3.989378886939871,0.0607429417060652
7.460495999999999,4.006188984701993,0.0604150362246854
7.462892,4.022999082464115,0.0600864805931451
7.46528,4.034873813173625,0.0597955491835657
7.467656,4.042604572763441,0.0595469066599847
7.47006,4.049264397166619,0.0593102280279233
7.472448,4.055924221569796,0.0590752714953146
7.474828,4.056857282987444,0.0588686151075971
7.477228,4.056719409218452,0.058676785127359
7.479611999999999,4.058583636195878,0.0584681674839932
7.481992,4.061099489479362,0.0582778436746746
7.484396,4.064127199442043,0.0581163826907774
7.486784,4.070879571643839,0.057943657825327
7.489163999999999,4.075070764591775,0.0578295493248133
7.491564,4.075257756046879,0.05774711838821
7.493948,4.072791020449508,0.0576618030876334
7.496331999999999,4.07283824227775,0.0575904047733827
7.498728,4.067158701120463,0.0575438803487554
7.508284,4.029447443878376,0.057532146314357
7.510664,4.026002320892983,0.0575199428153612
7.513064,4.023767902721089,0.0574850010628599
7.515447999999999,4.028470952348225,0.0574054230419898
7.517832,4.040111469774389,0.0572830899833108
7.520235999999999,4.049889656080995,0.0571651424861732
7.52262,4.063672043880436,0.0570202181949531
7.525003999999999,4.073310460560182,0.0569120997998696
7.5274,4.0830886468667895,0.0567940931359966
7.529788,4.094077537986895,0.056654917385573
7.532168,4.104414802800943,0.0564968750224809
7.534564,4.113960671682073,0.0563311806613215
7.536947999999999,4.123646310190062,0.0561535966108163
7.539348,4.136125445377387,0.0559699816197515
7.541739999999999,4.151677616497768,0.0557626768242752
7.544127999999999,4.165646995752312,0.0555405354622622
7.546507999999999,4.18199056280561,0.0553426111130922
7.548907999999999,4.1983341298589085,0.0551456189939202
7.551292,4.216819567285484,0.0549249646140412
7.553675999999999,4.236375939898697,0.0546936214579155
7.556072,4.253418355086297,0.0544487143795911
7.558456,4.264734007288366,0.0542267276384784
7.560836,4.276701285796494,0.054023323671985
7.563231999999999,4.28387296687887,0.0538391599589626
7.565619999999999,4.285038345721994,0.0536942499394266
7.568016,4.2869951204980365,0.0535576021470693
7.570416,4.288020729714301,0.0534233632935944
7.572804,4.292259144490481,0.053255374164964
7.575184,4.300641530386356,0.0530564541821978
7.577579999999999,4.307813211468732,0.0528787032859823
7.579967999999999,4.317918158857301,0.0526895504023288
7.582348,4.330164976619148,0.0524816226149313
7.584743999999999,4.345904139194633,0.0522253739074875
7.587132,4.360991675464059,0.0519524601086208
7.589516,4.37179547098693,0.0517209889568095
7.59192,4.3835304320695805,0.0514905867399629
7.594303999999999,4.393962140540115,0.0512240107147561
7.596684,4.408398050503482,0.0509401173941596
7.599083999999999,4.421763025280211,0.0506670190784206
7.601471999999999,4.431263568190968,0.0504044963929389
7.603852,4.438622240728447,0.0501599344621499
7.606247999999999,4.4429078773328685,0.0499330689035305
