Time,Force,Position
7.14906,0.929114773815514,0.1609630121893527
7.151403999999999,0.941125482436146,0.1602492479246248
7.158432,0.9552761655721852,0.160126080066021
7.1631160000000005,0.964353607886622,0.1597955388333621
7.165464,0.968031048297492,0.159696892050836
7.167808000000001,0.9754331509474756,0.1592334936238804
7.170152,0.9862803765828518,0.1584520800992684
7.172499999999999,0.999129702964645,0.15740454516244
7.174844,1.0143532171451926,0.1561806975330112
7.177200000000001,1.0295767313257398,0.1550607047464046
7.179536000000001,1.0489442166259817,0.1533335844704032
7.18188,1.0693826371128612,0.151540305885096
7.184224,1.0918231583461582,0.1496250400176617
7.186564000000001,1.109468082153703,0.148297957758125
7.1889,1.1329795385736383,0.1463736275714585
7.191244000000001,1.1509040016349037,0.1449060214345767
7.200616,1.1788805026828884,0.1443022390557528
7.202956,1.191403067982718,0.1438446795106997
7.205296000000001,1.206207273282685,0.1431229095594758
7.207636000000001,1.2179384426495965,0.1427252339607208
7.20998,1.2315319431360645,0.1421234710994891
7.21232,1.248198479555588,0.1412852483367727
7.214664000000001,1.2591382529895814,0.140932674797818
7.238104,1.313553789190089,0.140717694881464
7.240451999999999,1.324028927773128,0.1401704261755869
7.242788000000001,1.3315708000499715,0.1398195487883229
7.245132,1.3449792049392053,0.1390053521111559
7.247476000000001,1.3586671490821598,0.1380708623194282
7.24982,1.3619725024406923,0.1379335036834671
7.252172,1.3648585469186445,0.1379243492393966
7.254507999999999,1.3723078713968708,0.1374539777383779
7.256856000000001,1.3823183751289552,0.1366945056121461
7.259208000000001,1.386974202927847,0.1364198088671229
7.261547999999999,1.4001502903916037,0.1356342871444631
7.263892,1.4077393844966903,0.135188137130999
7.266236000000001,1.415980104907835,0.1347728176390159
7.268575999999999,1.4278057179312331,0.1342020330280433
7.27092,1.441912970954768,0.1334046408264748
7.27326,1.4582546421501967,0.1326236598515426
7.275608,1.482464946704433,0.1313221207145636
7.277948,1.5078859560721682,0.1298793019786973
7.280292000000001,1.5334467350667635,0.1284774970581235
7.282640000000001,1.5611493844346356,0.1269035629770444
7.284976,1.5859187674963129,0.1256315052167261
7.287320000000001,1.607475344998075,0.1246440139917775
7.289664,1.6354575336196675,0.123202273002814
7.292012,1.6612978518679833,0.1219941465376273
7.294348000000001,1.693796098661608,0.1205467389265173
7.296692,1.732021108440762,0.118777086063971
7.29904,1.7663816863539423,0.1171867240777324
7.301375999999999,1.7988327113193237,0.1159316956851199
7.303724000000001,1.8299332618443451,0.1148582162407277
7.306064000000001,1.864526157183004,0.1135359329188501
7.308408,1.8926008936032133,0.1125248284731696
7.310748,1.926402393008953,0.1113190243955841
7.313092000000001,1.957969474242799,0.1101175083781893
7.315444000000001,1.98688282842417,0.109015119728483
7.317784,2.020452010404433,0.1078171383574666
7.320132000000001,2.051507234959081,0.1066808800446275
7.322476,2.081491524327091,0.1056675265649524
7.324816,2.1141295407475758,0.1046262715988323
7.327152,2.141832190115448,0.1037598088662781
7.329496000000001,2.1661822642965443,0.1030557794903009
7.383412,2.299089559198544,0.1026722393126331
7.385752,2.3010916599449605,0.1026101110463191
7.3881,2.3049560918109337,0.1025048362856726
7.39044,2.3118935596099623,0.1023003602742467
7.39278,2.3161773003565167,0.1021404248040717
7.39512,2.321252437035989,0.1019801448701456
7.397468,2.328329674461878,0.1017589613565755
7.399804,2.3368971559549863,0.1014269732298581
7.402148,2.3405292703954825,0.1012398801692937
7.404496,2.3490967518885904,0.1009059894216339
7.406836,2.355801902262142,0.1006144681578311
7.409176,2.359434016702638,0.1004286464741499
7.411519999999999,2.3612038000235778,0.1002832223043246
7.413868000000001,2.3697712815166865,0.0999593927943995
7.416204,2.380992490062269,0.0995910427263914
7.418547999999999,2.393564173048212,0.0991366307998299
7.420896000000001,2.40213165454132,0.0988109647717018
7.423232,2.4102798271538477,0.0985537155158264
7.42558,2.42150103569943,0.0981971179597923
7.42792,2.428298733871599,0.0980161745508537
7.430268,2.439100633536601,0.0977142284927456
7.432603999999999,2.445898331708769,0.0975408791337007
7.434944,2.454558361000495,0.09733208543507
7.437296,2.4570723184261096,0.0973145100189061
7.439640000000001,2.4595862758517244,0.0972973525600002
7.441984,2.463171168463978,0.0972428701764724
7.444328,2.465685125889592,0.0972262180205912
7.446671999999999,2.4723430544349005,0.0970819418114793
7.449008000000001,2.4879405515256545,0.0967095284015276
7.451352,2.498742451190657,0.0964442038741844
7.453692,2.5100562075348565,0.0962131985047961
7.456036000000001,2.51964740238636,0.0959919415799299
7.458375999999999,2.5309611587305607,0.0957486621947426
7.46072,2.5345460513428137,0.0956960300560201
7.46306,2.5385502528356474,0.095588115788199
7.465403999999999,2.544277015821178,0.0954660399545497
7.467752000000001,2.554007980299541,0.0952404589769467
7.470096,2.5613647569791507,0.0950124593351028
7.472448,2.5652291888451244,0.0949260345770742
7.474792000000001,2.573377361457652,0.0946933109976474
7.477136,2.5805943685104014,0.0944830932936743
7.479476,2.5875318363094304,0.0943097364205022
7.481812,2.59474884336218,0.0941055798690844
7.484164,2.60811192228104,0.0937309058547203
7.486504,2.622126627505958,0.0933782389131948
7.488848000000001,2.6350703975442373,0.0930628968962914
7.491192,2.64629160608982,0.0927572526831734
7.495884,2.6512269731424327,0.0926408652833342
7.49822,2.6513667427692926,0.0926230833454634
7.500567999999999,2.65420746127687,0.0924687952045312
7.50292,2.6626351731431184,0.0922219371581215
7.505256000000001,2.6701317194495884,0.0919880367953093
7.5076,2.678279892062116,0.0917688754375458
7.509944000000001,2.683215259114728,0.0916519241652024
7.512288,2.6884301654210603,0.0915031040123112
7.514628,2.6897806398614192,0.0914351028678449
7.516972000000001,2.692713906167614,0.0913721243373522
7.51932,2.7019330139667805,0.0911323014665776
7.521652,2.7119435176988653,0.0908996787323855
7.523996,2.7196723814308124,0.0907475384167598
7.526344,2.7294033459091764,0.0905503381136692
7.531024,2.737736614118937,0.090524280769902
7.53342,2.7410419674774698,0.0905184742952067
7.535804000000001,2.746349421582419,0.0904691522556698
7.538192,2.7555213075533422,0.0903487732188353
7.540588,2.76776622945732,0.090155227926204
7.542975999999999,2.782944417667494,0.0898982533553011
7.54536,2.799845167370364,0.0896344861757933
7.547764000000001,2.8153954426328758,0.0894415943833231
7.550152000000001,2.8310854875222464,0.0892415396949364
7.552536,2.848917402784895,0.0889838294314
7.55494,2.868099792487902,0.088662043212279
7.557323999999999,2.8904949877508246,0.0882517988228802
7.559712000000001,2.907815046334276,0.0879547439101347
7.612396,2.7320741356824736,0.0878538648898179
7.614792,2.7251385637413144,0.0877022568710577
7.617188,2.7237899851588248,0.087481725973765
7.619576,2.7273767736289467,0.0871774903365863
7.621971999999999,2.738971965084737,0.0867155405291984
7.624364,2.752289718033223,0.0862532486124241
7.626752,2.7702632987806006,0.0857399122779835
7.629148000000001,2.79345178583431,0.0851234651831695
7.631544,2.820364935127134,0.0844699314063574
7.633932,2.8503511203530127,0.0837669881423159
7.636328000000001,2.879778227071451,0.0831245182242211
7.638724,2.91958792457431,0.0823666730699073
7.641112,2.9669867161822565,0.0815200230281902
7.643496000000001,3.017690861148736,0.0806790214616237
7.645892,3.074913165033663,0.0797676820555114
7.64828,3.13199569929173,0.0789077717722977
7.65066,3.190800795042494,0.0780391109293354
7.653055999999999,3.2511886826590937,0.0771971597319321
7.727136,3.3951849999112933,0.0764862175162711
7.729516,3.381451729797965,0.0764193498186929
7.731911999999999,3.370791495617692,0.0763034383412482
7.734300000000001,3.3650666284900312,0.0761234925694863
7.73668,3.364696437295563,0.0758410415998892
7.739079999999999,3.363627397966793,0.0756223769260101
7.741468000000001,3.366422790503998,0.0753613503801055
7.743848,3.3702891182278405,0.0750753135271987
7.746248,3.3737361370711025,0.0748312678655814
7.748635999999999,3.3758326814740056,0.074632470126003
7.751016,3.378720621809827,0.0744406034304226
7.753412000000001,3.38067739658587,0.0742580079167957
7.755800000000001,3.3824944017350527,0.0740908403134597
7.758184,3.390597248377206,0.0738210416968351
7.760580000000001,3.4053580235646685,0.0734907756212901
7.762968000000001,3.418256467632574,0.0731785973058202
7.765352,3.4331570124468964,0.0728485899896064
7.767748000000001,3.451130593194274,0.0724734984956204
7.770136000000001,3.470454648382011,0.07206124100141
7.772515999999999,3.4979268761822757,0.0715348074273756
7.774908,3.5255388736093995,0.070997020574758
7.777292000000001,3.552871331782804,0.0704983249095022
7.779684,3.576199588463374,0.0700496090150203
7.78208,3.59659457883775,0.0696315531429823
7.784464,3.6154993251449055,0.069274973576527
7.786860000000001,3.638175955519418,0.0688196115507636
7.789251999999999,3.6588504851475134,0.0683924574051524
7.791640000000001,3.682598050708665,0.0679259686475445
7.794016000000001,3.7078358603370343,0.067415176279965
7.796419999999999,3.738288576271737,0.066835608718356
7.798808000000001,3.769160601087021,0.0662303272968631
7.801188,3.7995207692231054,0.0656024545950915
7.803584000000001,3.830160476612912,0.064963790876094
7.805968,3.855585277696386,0.064402250397178
7.808364000000001,3.88128961803358,0.0638318045515888
7.81076,3.905643483930415,0.0632982285857963
7.813143999999999,3.9234319690805584,0.0628656208402629
7.815524,3.9392183534842857,0.062452544614963
7.817928,3.9507209971414574,0.0621002976611407
7.820316,3.9599420007984936,0.0617933501540134
7.822696,3.970233939642167,0.0614738879278312
7.825088000000001,3.977313072925926,0.0611986912150261
7.827476000000001,3.98746524214274,0.0608913495398037
7.829872,4.000271138412028,0.060584332237798
7.832268000000001,4.012145869121538,0.0602815375928465
7.834656000000001,4.021599190204051,0.0600318863173842
7.860927999999999,3.98779958665618,0.0599370852698874
7.863312,3.985145859603705,0.0599345577906931
7.865708,3.983702837364729,0.0599079185830182
7.868104000000001,3.982539354379473,0.0598600490785365
7.870488,3.982307036953996,0.0598099107572796
7.872868,3.983425193968878,0.0597255083902438
7.875264,3.986405682103316,0.0596374058279446
7.877648000000001,3.9896657094914754,0.0595292335648795
7.880044,3.992274110573576,0.0594025571740149
7.882440000000001,3.996093216469176,0.0592535389575375
7.884828000000001,4.006058394230886,0.0590505581077387
7.887208000000001,4.017234276806095,0.0588289832221725
7.889604,4.029760633821663,0.058575066529697
7.891992,4.046151422703204,0.0583008336737853
7.894372000000001,4.059097088599353,0.0580145884564658
7.896776000000001,4.0736727681895815,0.0576764232233497
7.89916,4.091181714086004,0.0573214453394414
7.901543999999999,4.113114170355842,0.0569110293541277
7.903948,4.142403403305289,0.0564238732526073
7.906332000000001,4.16955076588146,0.0559629773306331
7.908711999999999,4.198280920323465,0.0555240645358141
7.911116,4.220725233272501,0.0551509787641706
7.913504,4.248104913274148,0.0547549041442332
7.915884,4.275484593275796,0.0543638505272365
7.918280000000001,4.299791237344388,0.053999575523753
7.920668000000001,4.326099982159397,0.0536278294577509
7.923048,4.346402424735154,0.0532943261625141
7.925444000000001,4.3697779032439685,0.0529451989553077
7.927832,4.391802907312423,0.0526244571497982
7.930212000000001,4.414619307313795,0.0523161758960041
