Time,Force,Position
8.677284,1.6757913839390617,0.1256281793301946
8.679684,1.6822623210292669,0.1255388468691426
8.682072,1.6919460636793875,0.1252635433539334
8.684452,1.7039114463296454,0.1248227253220769
8.686848,1.7146661241664047,0.1244785643335745
8.689232,1.731846413122995,0.1237484613460978
8.691612000000001,1.750237406893084,0.1229260792267088
8.694016,1.7717014365962285,0.121918279343358
8.6964,1.7915826744335368,0.1209102891626207
8.69878,1.8086704155915103,0.1200022237535705
8.701184,1.8250593086151825,0.1192511513243619
8.703568,1.8403772664522164,0.1185765452802914
8.705948,1.8573252379833296,0.1177105666095082
8.708344,1.87655484951458,0.1166960258552545
8.74658,1.8911739592173125,0.1159563902922639
8.748956,1.893967455896648,0.1158666008502268
8.758524,1.897784665934378,0.1158649205203825
8.760912,1.8993674578002144,0.1158568528446776
8.763292,1.9029523504124672,0.1157665972579342
8.765692,1.915616581197026,0.115287458471251
8.76808,1.9296312864219445,0.114701440942637
8.77046,1.9417836605273056,0.1141494271158017
8.772864,1.9570090705657224,0.1134354564981952
8.775248,1.9721872587758955,0.1128636732483278
8.777628,1.989367547732486,0.1121967985239836
8.780032,2.0073392326219945,0.1115388100482799
8.78242,2.018792758593055,0.111110269638222
8.7848,2.035181651616727,0.1104877882504707
8.787196,2.047147034266985,0.1101099850346135
8.789584,2.0593919561709635,0.1096812684443089
8.815868,2.113346649236255,0.1093415015624526
8.818252,2.1244734141253523,0.1091766392363161
8.820628000000001,2.1358797182681686,0.108971189858899
8.823036,2.1509181368514825,0.1085651564696482
8.82542,2.165816785807936,0.1081858226617636
8.8278,2.1782014773387743,0.1078372310097455
8.830204,2.194310831108726,0.1073866565501472
8.832588,2.204693421893148,0.1071081148256034
8.834968,2.218940444543543,0.1067025462975439
8.837372,2.232907927940218,0.106340950734133
8.839756,2.243662605776977,0.1061251977878364
8.842136,2.259352650666348,0.1057481881570382
8.84454,2.276113630742358,0.10532049138536
8.846928,2.290872510071951,0.1049668695295186
8.849308,2.307633490147961,0.1045493609720797
8.851712000000001,2.325465405410609,0.1040887108508237
8.854096,2.342505924740339,0.1036355113184273
8.856476,2.3674150774288765,0.1029397688395361
8.858880000000001,2.3921844604905536,0.1022625812678977
8.861268,2.416674304298511,0.1016377031232669
8.863648,2.443166248852884,0.1009891218050708
8.866052,2.4645830567277858,0.1005456478057244
8.868436,2.4858600949758265,0.1001296964885871
8.87082,2.5029931621041737,0.0998533604952094
8.873224,2.520405768486241,0.0995440549441783
8.875608,2.540472101920784,0.0992024948511143
8.877988,2.562540536101744,0.0988191465528746
8.880384,2.5860519925216785,0.0984439594355003
8.882768,2.6126364848746686,0.0979938848500321
8.885148000000001,2.6415026172277973,0.0974632279044769
8.887552,2.669437584021147,0.0969420527783485
8.88994,2.6967209245084387,0.0964244245115223
8.89232,2.726006365742147,0.0958646246945872
8.894716,2.7554315766027155,0.0952849109257531
8.897104,2.782854686716868,0.0947614184509823
8.899484,2.8093466312712416,0.0942578166755706
8.956836000000001,2.920563266618226,0.0940114175531693
8.959236,2.9256384032976985,0.0938991163013476
8.96162,2.9297823744173925,0.09379854106545
8.964,2.934997280723725,0.0936698647526216
8.9664,2.943285222963113,0.0934730216472581
8.968784,2.953155957068337,0.0932827915355972
8.971168,2.9653083311736985,0.0930214581765995
8.973564,2.984817481958669,0.0925750885182448
8.975948,3.00460617199736,0.0921048767759715
8.978328,3.028538833155745,0.091538437200168
8.980732,3.0550326735679887,0.0908677813851485
8.98312,3.078313708420316,0.0902835993455995
8.9855,3.1037366136459204,0.0896428342866141
8.987896000000001,3.1292992884983843,0.0889883346989923
8.990284,3.151928697044654,0.0883866062163659
8.992664,3.169482968911451,0.0878917486196871
8.99506,3.1862458448453297,0.087406284203994
8.997448,3.200075454473013,0.0869721608272372
8.99984,3.2086901577943654,0.0866589559414649
9.002236,3.2158618388767404,0.0863292711529459
9.004624,3.223033519959116,0.0860015549419752
9.007008,3.230205201041491,0.0856806893282333
9.009412,3.2393789828702837,0.0853200640547386
9.011796,3.2466904335795186,0.0849834819777354
9.01418,3.2524190924229184,0.0846467480277131
9.016584,3.2557735634675637,0.0843008472710753
9.018968,3.260850596004905,0.0839535580480258
9.021352,3.2647169237287472,0.0836512604155356
9.023756,3.2645790499597567,0.0834155152038385
9.02614,3.262439075444349,0.0832146980594549
9.02852,3.258297000182524,0.0830468852880174
9.03092,3.2567161041745574,0.082790798546668
9.033304,3.252062172233535,0.0825905631046825
9.035688,3.2423331036130403,0.0824801729510032
9.038084,3.2355373012987405,0.0823254433279168
9.040468,3.2381003764104674,0.08198628141073
9.042852,3.237962502641477,0.081750150540642
9.045248,3.238755794432264,0.0815021784409608
9.047636,3.244763992529384,0.0811474601122929
9.081076,3.2040760388685974,0.0810438876393452
9.083464,3.213946772973822,0.0808961576154591
9.088264,3.2261916948777998,0.0807656957305885
9.090648,3.229264730810855,0.0807120482317831
9.093032,3.238344068983161,0.0805685873913073
9.095428,3.243279436035773,0.0804996613848648
9.097816,3.2535694790215777,0.0803199415008562
9.100196,3.2652099964477417,0.0800913742010523
9.102592,3.2694011893956776,0.0799296862335641
9.10498,3.279458914956005,0.0796939196622102
9.10736,3.287514539769916,0.0794878341141392
9.109756,3.2967808693973253,0.0792428179617941
9.112144,3.312193270890845,0.078894377524753
9.114524,3.3303991690637003,0.0785186686773029
9.11692,3.354331830222085,0.0780723070272963
9.119308,3.381337527313526,0.0775807034609601
9.121692,3.405270188471911,0.0771440969717051
9.124096,3.4305533240706554,0.0766677999772968
9.126484,3.45448598522904,0.0762497146905099
9.128864,3.478278876760565,0.0758458620321923
9.13126,3.494854761239341,0.0755747351863732
9.133648,3.512501580904756,0.0752875326174853
9.136028,3.532150501316586,0.0749738821169867
9.138432,3.555803623221251,0.0746124880381838
9.14082,3.57037740695361,0.0743788142098085
9.1432,3.5893747010593837,0.0740571882976051
9.145596,3.608511764792017,0.0737318477123293
9.14798,3.624715562218455,0.0734380654123192
9.150364,3.64850845374998,0.0730776123367034
9.152768,3.668576683042391,0.0727540686498934
9.155152,3.691578178640998,0.0723999243159631
9.157536,3.719375271665356,0.0720074921048955
9.159936,3.7422369976371033,0.0716754569340308
9.162324,3.766169658795488,0.0713301249531789
9.164704,3.787448592901398,0.0709926192919229
9.1671,3.80751682219381,0.0706911293944606
9.169488,3.828935525926581,0.0703489232381973
9.171868,3.847932820032354,0.0700675926735415
9.174264,3.8594807896599,0.0698259758313313
9.176648,3.8719599248472254,0.0695795464874901
9.179044,3.8864411607809672,0.0693126169476844
9.18144,3.897849360781653,0.069085952105481
9.183824,3.9101887263421182,0.0688569228583882
9.186208,3.918104581529168,0.0687073143667276
9.188604,3.933097674142108,0.0684749874320392
9.190992,3.9453898178743287,0.0683232462469157
9.193372,3.9541896167929145,0.068243901473894
9.195768,3.968064552390972,0.0681072387734949
9.198156,3.979145991309695,0.0679875132676555
9.200536,3.9868748550416417,0.0679264297023241
9.202928,3.996233732467669,0.0678083955043504
9.205316,3.9998658469081647,0.0677295706059126
9.207712,4.005360292468218,0.06764165986107
9.210112,4.007130075789157,0.0675720601600255
9.2125,4.009691255043014,0.0675087430804282
9.21488,4.010669642431036,0.0674331206021997
9.217276,4.012439425751976,0.0673643080519062
9.21966,4.015419913886414,0.0672699468574191
9.22204,4.029202301685855,0.0670858363047081
9.224436,4.042333063179238,0.0668859132320745
9.226824,4.0505284576200085,0.0667278905892027
9.22922,4.062216196874416,0.0665053720655566
9.231612,4.070179273889709,0.0662998516157268
9.234,4.081634695718639,0.066029916272802
9.23638,4.090948247174292,0.0657924790006846
9.238776,4.100820877137385,0.0655129507796655
9.24116,4.113114916727476,0.0651835071048815
9.243556,4.121264985197873,0.0649035736466113
9.245952,4.132348319974465,0.0646052741558242
9.24834,4.142919798071858,0.0642750333925054
9.25072,4.14813660023606,0.0640177811263213
9.253124,4.15456410721376,0.0637345030472456
9.255508,4.158477656765847,0.0634408094586239
9.257888,4.164253537437489,0.0631389845760145
9.260284,4.173102454042186,0.0628085389487885
9.262672,4.181811601020025,0.0624895234134507
9.265052,4.190660517624722,0.0621627044065448
9.267444,4.198857807923362,0.0618205938941396
9.269832,4.200117630422973,0.0615339495184373
9.272228,4.202168848855503,0.0612555126062894
9.274624,4.208364038407725,0.0609334332368535
9.277012,4.211206652773173,0.0606623555520571
9.279392,4.214980432698399,0.0603868675928576
9.281796,4.216612342250348,0.0601391197692005
9.284184,4.2177323951230985,0.0598646898034871
9.286564,4.218712678368989,0.0596006778848955
9.28896,4.2195531919880205,0.0593481653232175
9.291348,4.2213248711668285,0.0590925882579247
9.293732,4.217090248106387,0.0588820374683125
9.296128,4.219513553591254,0.058645076240521
9.298512,4.223007794262759,0.0583941903972892
9.300896,4.230086927546518,0.0581455776040517
9.303292,4.239680018255891,0.0579099313491611
9.305676,4.252066605644598,0.0576698661130326
9.30806,4.259657595607554,0.0574521344792582
9.310456,4.266037880757011,0.057255816724456
9.31284,4.268134425159914,0.0571069579973964
9.315224,4.267530020682099,0.0570216011816745
9.31762,4.268136321017784,0.0569135044370655
9.320004,4.267811455793689,0.0568078583070428
9.322404,4.268277986502513,0.0567108677027115
9.3248,4.268744517211336,0.0566134466636992
9.327188,4.2709336094128565,0.056521985818056
9.329568,4.2720517664277375,0.0564423476006038
9.331972,4.270748513815623,0.0564063364651424
9.33436,4.272378527509702,0.0563549625842393
9.33674,4.272146210084225,0.0563073604983235
9.339136,4.276057863778442,0.0562239187772961
9.34152,4.283322092659435,0.0560956224253774
9.3439,4.287792824861093,0.0559744626003703
9.3463,4.293194722622528,0.0558517446796563
9.348684,4.293940792585072,0.0557371715461626
9.351068,4.296688963294033,0.055611136419907
9.353464,4.29585224139074,0.0554819693258394
9.355848,4.298879951353422,0.055338074016077
9.358228,4.306191402062657,0.0551520956096154
9.360628,4.31578449277203,0.0549329324701387
9.363012,4.33515576978801,0.0546118305327268
9.365412,4.357041004229604,0.0543076368267667
9.367804,4.383861605723812,0.0539848406319444
9.370192,4.408028480165543,0.0536586911689917
9.372576,4.434197455353692,0.0533217738475533
9.374972,4.4605062001687,0.0529777857968955
9.37736,4.489748211289904,0.052622959888438
9.37974,4.523273963157662,0.0522287624879478
9.382136,4.550933182413029,0.0518602774708127
9.384524,4.577521466481759,0.0515001750790881
9.386904,4.597312052378319,0.0511676520229872
9.389304,4.614541459021023,0.0508817477194872
9.391688,4.629489225663588,0.0506253587317179
