Time,Force,Position
10.5476,1.105750732410434,0.1534178504977347
10.549996,1.1144560876725331,0.1531900812316437
10.552384,1.125023774054189,0.1528065099430771
10.554764,1.1337291293162883,0.1525477484020166
10.557164,1.1508621964446355,0.151391478788743
10.559552,1.1693457380133414,0.1499362622613985
10.561936,1.1838722999174571,0.1485975952998586
10.564332,1.1954655955153777,0.1475080562672237
10.56672,1.207710517419356,0.1464363962804254
10.569104,1.2220973096966117,0.1450937300587036
10.5715,1.242071095332537,0.1432239895052449
10.573888,1.258832075408547,0.1418762553293331
10.576272,1.2791779480968095,0.1403184216677427
10.578668,1.3072526845170196,0.1381021704939146
10.581059999999995,1.3339769464968705,0.136144623955904
10.58344,1.359770042916943,0.1343265832564221
10.585839999999996,1.37676334041843,0.1333570219865031
10.588227999999996,1.3942684945991148,0.1324652202329051
10.590608,1.408700612846744,0.1318262853718689
10.593007999999998,1.4212703999748166,0.131353911952357
10.595395999999996,1.43425949598347,0.1307729554051811
10.59778,1.4415218290065932,0.1305912085707034
10.600175999999998,1.4512055716567138,0.1301718874794127
10.602567999999998,1.4607495446799743,0.1297681145348713
10.604948,1.4681516473299576,0.1295639278851217
10.607347999999998,1.4792784122190543,0.1291709584210806
10.609735999999998,1.4949212352801826,0.1285601464866815
10.612116,1.513637094274366,0.1277044073262232
10.61452,1.5344948236418263,0.1267136805879624
10.616903999999998,1.5553525530092869,0.1257485743207155
10.619287999999996,1.5726253897644944,0.1249614558240279
10.621683999999998,1.5881756650270051,0.1242318628579632
10.636011999999996,1.6188531149557084,0.1239325198417186
10.638396,1.627698239844668,0.1237442453694491
10.640776,1.6351928902932684,0.1237026242658914
10.643172,1.643618706301647,0.1236229591400445
10.647939999999998,1.6630768435426362,0.1235488215923221
10.650336,1.6740166169766295,0.1234090563694258
10.652724,1.6860273255972615,0.1232092167408987
10.65512,1.6943133719787802,0.1231820330445427
10.657519999999998,1.7078143246666313,0.1228804841306772
10.659907999999998,1.722525982167981,0.1225049171860458
10.662288,1.730300171870302,0.1224544394687155
10.664683999999998,1.7382141311994832,0.1223810242900397
10.667071999999996,1.7498527527677774,0.1221735350069686
10.669452,1.765216036575185,0.1218365174207906
10.671848,1.7879360970622025,0.1211170382095616
10.674236,1.812658258295636,0.1203149465814339
10.676616,1.8425953258354024,0.1192654870021433
10.679012,1.876676364494863,0.1180522474048684
10.6814,1.9158325398337956,0.1165999320114029
10.683795999999996,1.9554080240533085,0.1150892540021615
10.686191999999998,1.9904674501007904,0.1137476498205869
10.688579999999998,2.025806415401993,0.1123439943920712
10.69096,2.060353984770277,0.1109869702917184
10.693355999999998,2.093178992645865,0.1096832539603656
10.695743999999998,2.127354474961812,0.1082808577261782
10.698124,2.16003971321054,0.1070180334365012
10.700523999999998,2.1895121458993505,0.1059219708953265
10.75308,2.2859226800885004,0.1050371323798955
10.757859999999996,2.2831764052374086,0.1049780189409132
10.760247999999995,2.286808519677905,0.1047965174683545
10.762632,2.288158994118264,0.1047158185531612
10.765027999999996,2.2913717996781795,0.1045934692748943
10.767415999999995,2.29723833229057,0.1044297506404367
10.769811999999998,2.3080402319555717,0.1041203469485584
10.772208,2.3207044627401308,0.1037691007694473
10.774591999999998,2.33923522613708,0.1032509830387596
10.776975999999998,2.358976694347528,0.1026789499448401
10.779372,2.3809998025581134,0.1019928525997563
10.781755999999998,2.408098047448171,0.1011454503158439
10.784139999999995,2.433753270099253,0.1003096720761146
10.786535999999998,2.460619197563833,0.0994353056504037
10.788923999999998,2.484412089095358,0.0986405705177024
10.791304,2.5043405487609105,0.0979491789665629
10.793708,2.5142585046943777,0.097563528068403
10.796096,2.5266904180534597,0.0971616419384001
10.798475999999996,2.543778159211432,0.0966702619380117
10.800871999999998,2.5636593970487405,0.0961291234089735
10.803259999999998,2.5843320308189663,0.0956008538354397
10.865388,2.545600851934222,0.0953022689351852
10.86778,2.547091096001441,0.0952116318482166
10.870159999999998,2.550024362307637,0.0951430430148735
10.872556,2.552445771934635,0.0950350590689379
10.874944,2.555146720815352,0.0948933052941309
10.877323999999998,2.555705799322793,0.0948205202648405
10.87972,2.5566841867108145,0.0946919604900544
10.882108,2.5585937396586145,0.0945457173323247
10.884487999999996,2.558361422233137,0.0944717463900158
10.886883999999998,2.5621333063004936,0.0942977153382489
10.889271999999998,2.5672556648082083,0.0940543281466314
10.891655999999998,2.5699566136889267,0.093913394528646
10.894052,2.5766617640624783,0.0936649072547454
10.896439999999998,2.587231346302003,0.0933312616754578
10.898836,2.5933774181681137,0.0931544522346119
10.901232,2.5973816196609474,0.0930522405047513
10.90362,2.606321188206393,0.0928325301277988
10.906,2.6151209871249783,0.0926302857257303
10.908396,2.6179144838043142,0.0925813449333303
10.910784,2.6255035779094005,0.0924361403478385
10.913168,2.63844734794768,0.0921203467753062
10.915564,2.6437548020526296,0.0920611927140016
10.917952,2.6474794642917425,0.0919978872238192
10.920331999999998,2.654789019143109,0.0918913009325954
10.922728,2.65902553806142,0.0918677885684121
10.925116,2.667126488845705,0.0917664663099836
10.927499999999998,2.6789521018691027,0.0916084899054101
10.929896,2.693059354892638,0.0913727302962737
10.932284,2.702231240863561,0.0912422495737468
10.934663999999998,2.712334292394262,0.0911034606706454
10.93706,2.721506178365185,0.0909809878103158
10.939448,2.7357532010155805,0.090738466610622
10.941827999999996,2.752933489972171,0.0904437031809082
10.944228,2.768111678182344,0.0901971120691832
10.946616,2.790506873445268,0.0897741183741547
10.949012,2.8139730038948283,0.0893302627597099
10.951407999999995,2.835437033597972,0.0889396566094887
10.953796,2.857180602554838,0.0885169002476565
10.956176,2.8837197689374547,0.0880089085277549
10.958572,2.904532172334542,0.0876012200753898
10.96096,2.925856432410826,0.0872430858310008
10.963344,2.953606303606941,0.0867136055984333
10.96574,2.984801297788449,0.0861717195354665
10.968128,3.012271629730845,0.0856845010333976
10.970508,3.042675227979436,0.0851498812536914
10.972904,3.069354163988912,0.0846685139500786
10.975292,3.093099833692194,0.0842459462319695
10.977676,3.11377246746242,0.0838922883124196
10.980072,3.1367267412327835,0.0834608421962275
10.98246,3.154745647950536,0.0831197008803669
10.984844,3.1726247850414278,0.0827948120568517
10.987247999999996,3.188501821385902,0.0825146056742111
10.989635999999996,3.2015853610510416,0.0822725907541759
10.99202,3.214668900716181,0.0820305758341406
10.994415999999998,3.226961044448402,0.0817957155489664
10.996803999999996,3.237251087434206,0.0815976531345405
10.999184,3.247680900046871,0.0813877502270423
11.00158,3.263185849339008,0.0810971454493027
11.003968,3.2789703378848656,0.0807856509270987
11.006348,3.29675692717714,0.0804404238953084
11.008751999999998,3.310818854230301,0.0801339106056774
11.011143999999998,3.3211561190443493,0.0798672467298784
11.013524,3.3259063904997275,0.0796517124211999
11.015919999999998,3.331587827514884,0.0794267185898836
11.018311999999998,3.338060660462958,0.0792107782496387
11.020692,3.347606529344088,0.078944627638401
11.023087999999998,3.358083563784996,0.0786711279319163
11.025475999999998,3.370702468599181,0.0783556554427591
11.02786,3.386254639719561,0.0780056742444792
11.030259999999998,3.403948681213218,0.0776099894419085
11.032643999999998,3.423644823453293,0.0771886899026179
11.035028,3.4425495697604487,0.0767648148392101
11.037423999999998,3.4613145464407444,0.076354990543217
11.039811999999998,3.482081623867457,0.0759202661466414
11.042196,3.496562859801199,0.0755986805002276
11.044591999999998,3.5101129301751626,0.0752837199335907
11.046979999999998,3.522592065362488,0.0749912993733374
11.049364,3.530507920549537,0.074812385591883
11.051759999999998,3.533488408683976,0.0746956973647036
11.054147999999998,3.5369807534976125,0.0746101104862335
11.056531999999995,3.5435461342443038,0.0744781652534281
11.058932,3.551694306856831,0.0743578374591858
11.061319999999998,3.564917616148831,0.0741634890890821
11.063699999999995,3.5782806950676918,0.073957000210966
11.0661,3.5871277158145194,0.0737745187813673
11.068488,3.5939726358149318,0.0736207423741512
11.070867999999995,3.596953123949369,0.0735060133757562
11.073263999999998,3.600445468763005,0.0734231682010396
11.075647999999996,3.603006648016864,0.0733483316343517
11.078028,3.608361323950056,0.0732552589488368
11.080431999999998,3.612784834323469,0.0731698322876992
11.082819999999998,3.619070675816441,0.0730731330762489
11.0852,3.627218848428969,0.0729650330322671
11.087604,3.6304316539888855,0.0729108738762479
11.089992,3.6389991354819937,0.0727662098228099
11.092371999999996,3.646495681788463,0.0726380028737456
11.094767999999998,3.653992228094933,0.0725097959246814
11.097151999999998,3.659114586602648,0.0723631405588804
11.099536,3.666890672162837,0.0722079246031291
11.101927999999996,3.677227936976885,0.0719819553513756
11.104315999999995,3.683421230671239,0.071817661467778
11.106696,3.689894063619313,0.0716308603455936
11.109095999999996,3.692362695074554,0.0714926893844403
11.11148,3.699906463209267,0.0712931439545323
11.11386,3.711174893583093,0.0710716047889496
11.116263999999996,3.7233744895166976,0.0708460849887909
11.118651999999996,3.742651322876191,0.0705367634324574
11.121036,3.756341162877016,0.0702577062555417
11.12344,3.769751463624118,0.0700049348077221
11.125827999999998,3.779297332505248,0.0697875483589836
11.128207999999995,3.783768064706905,0.0696304038050965
11.130612,3.785305530602368,0.0695018583874371
11.133,3.785399974258854,0.0693500186118224
11.135379999999998,3.792431885714369,0.0691273673464761
11.137776,3.796111221983108,0.0689674382278019
11.140159999999998,3.805936630117959,0.068732732319645
11.14254,3.8160415775065295,0.0684759217789285
11.144948,3.829871187134213,0.0682001216368793
11.147332,3.8459824367620334,0.0678826613519186
11.149711999999996,3.8580894848970217,0.0676108788743445
11.152112,3.873409338591925,0.0672907474430362
11.1545,3.886727091540411,0.0669928269076713
11.156879999999996,3.9040490459817305,0.0666550730204184
11.159275999999998,3.9121518926238847,0.0664271257811473
11.161659999999998,3.914388206653648,0.0662473205116975
11.164044,3.912480549563717,0.0661185692003367
11.166439999999998,3.904566590234536,0.0660505183061923
11.168823999999995,3.902798702771466,0.0659104591148761
11.171208,3.899959880121757,0.0657863677119173
11.173603999999996,3.8994026974721856,0.0656198662967362
11.175988,3.906202291502223,0.065355572606192
11.178368,3.9131416551591216,0.0650788548035017
11.180784,3.9225949762416334,0.0648154330613905
11.183172,3.928183865458173,0.0645829847935175
11.185551999999998,3.936845790607768,0.0643172259415142
11.187956,3.939780952771832,0.0640882218821626
11.19034,3.9417849493761183,0.063862988953798
11.192719999999998,3.942066384487708,0.0636355704239365
11.19512,3.9392747836662414,0.0634409142288293
11.197508,3.9363434132179167,0.0632562134925689
11.199887999999998,3.9332722731427294,0.0630830320475718
11.202284,3.929921593813824,0.062930700531429
11.204672,3.924568813738501,0.0627962586964729
11.207051999999996,3.927364206275705,0.0625818090570547
11.209452,3.9363056706790194,0.0623038391577741
11.21184,3.950462041388666,0.0619652968436392
11.214219999999996,3.9706247143375646,0.0615783264675555
11.216615999999998,3.99171855284624,0.0611975332777465
11.219003999999998,4.014302635422136,0.0607739613507757
11.221384,4.036607178744311,0.0603764815381743
11.223783999999998,4.054488211693072,0.0600461421171524
11.226171999999998,4.074371345388249,0.0597018021930876
11.228552,4.089319112030815,0.0593922550938095
11.230947999999998,4.104406648300241,0.059073838981983
11.233335999999998,4.115629752703693,0.0587763117376159
11.23572,4.1292270449059,0.0585018234800238
11.238115999999998,4.144407128973943,0.0582438683211747
11.240503999999998,4.157445342668709,0.0580110327432934
11.242884,4.171694261176973,0.0577553307272951
11.245283999999998,4.188224819685374,0.0574653277173965
11.247671999999998,4.203684443007138,0.0571891836507467
11.250052,4.221146167075317,0.0568975998933148
11.252456,4.238468121516637,0.0566168506763528
11.254844,4.251785874465123,0.0563700548385329
11.257223999999995,4.2628219874134725,0.0561601093826455
11.259619999999998,4.271855999615405,0.0559661505695831
11.262003999999996,4.273812774391448,0.0558264249114047
11.264399999999998,4.272696513234435,0.0557131003172711
11.266796,4.271440482450563,0.0556101272144397
11.269184,4.266180250173857,0.0555330537604473
11.271567999999998,4.263201657897287,0.0554230699391121
11.273964,4.258081195247441,0.0553358721093029
11.276352,4.258175638903928,0.0552017608065796
11.278731999999998,4.2578507736798334,0.0550970760365579
11.281128,4.26367198032185,0.0549454879517091
11.283511999999998,4.270052265471307,0.0547562597756391
11.285895999999996,4.277643255434263,0.0545481923067211
11.288291999999998,4.288167511703413,0.0543263374605168
11.290679999999998,4.299483163905483,0.0541142271092591
11.293076,4.309308572040332,0.0539426079940652
11.295472,4.319273749802043,0.0537617211115438
11.297856,4.329518466817475,0.0535632319843161
11.30024,4.341625514952462,0.0533633952869792
11.302636,4.352521858273951,0.0531831597502844
11.305024,4.3635579712223,0.0529937568107976
11.307403999999998,4.375525249730427,0.0528043148903935
11.3098,4.392427895291166,0.0525901885885952
11.312188,4.409051001598185,0.0523949757824728
11.314571999999998,4.425394568651483,0.0522203014098034
11.316976,4.44388000607806,0.0520229344673061
11.319364,4.462085904250914,0.0518462759784458
11.321744,4.483364838356824,0.0516492466133845
11.32414,4.50049980134304,0.0514862357632315
11.326528,4.516983138023199,0.0513050053402658
11.328907999999998,4.527180633210387,0.0511771302480256
11.331304,4.539100689890272,0.0510594349826107
11.333692,4.547947710637099,0.0509628093966546
11.336071999999998,4.554792630637511,0.0508767880321328
11.338468,4.562708485824561,0.0507821791289055
11.340856,4.571974815451971,0.0506602649289477
11.343239999999998,4.580449749146462,0.0505301900898882
11.345636,4.587993517281175,0.050401629322136
11.348024,4.594234032803772,0.0502392056073766
11.350403999999996,4.600614317953229,0.0500669440084248
