Time,Force,Position
11.570752,1.2683458024695289,0.1676397485043287
11.573131999999998,1.2757479051195124,0.16725516740466
11.575536,1.284500482209855,0.1666761571127105
11.577924,1.2928809722478598,0.1659976522194658
11.580303999999998,1.3041947285920596,0.1650655934548851
11.582707999999997,1.3157880241899802,0.1639949838264855
11.585092,1.329802729414898,0.1626621655623894
11.587471999999998,1.3378111324005657,0.1619027260661194
11.589875999999997,1.3444690609458738,0.1613311588648808
11.59226,1.3552709606108762,0.1603242650145565
11.594639999999998,1.368447048074633,0.1591890021733448
11.597043999999997,1.3844166322177245,0.157868557976542
11.599431999999997,1.397685267480098,0.156902193071659
11.601812,1.406670161995918,0.1564144845755898
11.604215999999996,1.4185883228179326,0.1556285036841875
11.606599999999997,1.4245001814006968,0.1554532327102658
11.60898,1.4357667159166538,0.1546902972699138
11.611383999999996,1.4455902281936346,0.1539763323950919
11.613767999999997,1.4544825749108372,0.1533297629424908
11.616152,1.4647253960683986,0.1525737081273294
11.618555999999998,1.4748284475991,0.1518530224463241
11.623323999999997,1.482555415473178,0.1518061107550354
11.628111999999998,1.4946114500641836,0.1517293293998319
11.630491999999997,1.5025254093933644,0.1514801183303501
11.632896,1.5081577287224084,0.1514700371230047
11.635279999999998,1.520727515850481,0.150954973135686
11.637659999999997,1.5394433748446643,0.1499990230353838
11.640059999999998,1.558159233838848,0.1490984836183802
11.642447999999998,1.5780857976465303,0.1481046409365154
11.644827999999997,1.5933565336553208,0.1473789659587522
11.709332,1.7289496105750837,0.14691167701638
11.721287999999998,1.755947724235048,0.1468934338197114
11.723667999999996,1.7619993524446729,0.1468107726364894
11.726063999999996,1.7669800454676583,0.1468007894180282
11.728451999999995,1.7741026088639216,0.1466268742795857
11.730832,1.7853691433798784,0.1461674228459075
11.733227999999997,1.7983582393885318,0.145631192281485
11.735615999999997,1.8093452346507684,0.1451928574419925
11.737996,1.8223343306594215,0.1446330050333035
11.740392,1.840678102601268,0.1437025683932327
11.74278,1.8605121186103328,0.1426035825338498
11.745159999999998,1.8842105664853717,0.1413012126437626
11.747559999999996,1.9076294751066896,0.1400492281874306
11.749944,1.931979549287786,0.1388102152332907
11.752323999999998,1.949904012349052,0.138083061194665
11.754727999999997,1.9596803027977887,0.1378552432405572
11.757112,1.971598463619804,0.1374993317365284
11.759491999999998,1.9853789555613752,0.1370805535916596
11.761883999999998,2.002464800861479,0.1365742022707383
11.764271999999998,2.0211334380274195,0.1360519213810885
11.766651999999995,2.0458083774326106,0.1352430686656756
11.769063999999997,2.072345647957358,0.1343907980115634
11.771451999999996,2.100745249601662,0.1334982755739434
11.773832,2.135151153485217,0.1323480431226385
11.776235999999995,2.1735612588616053,0.1310593122677161
11.778623999999995,2.2053134356926853,0.1300253696955752
11.781004,2.236413986217708,0.1289798780406147
11.783399999999997,2.276733644541896,0.127508860152316
11.785787999999997,2.312629792492669,0.1262825160226568
11.788168,2.3423798685773325,0.1253889268485953
11.790571999999996,2.369568765408138,0.1246656559871135
11.792955999999997,2.393544856679027,0.1241229301270047
11.79534,2.422596084629389,0.1233833970280454
11.797732,2.445641010340501,0.1228878794078084
11.80012,2.4688257056784733,0.1223629371132783
11.802499999999998,2.4950834369495,0.1216875398232268
11.835971999999998,2.64567529405581,0.1211714189869612
11.838351999999997,2.656382750064327,0.1210411010524039
11.843131999999995,2.67290951685699,0.1208372716567387
11.845512,2.683664194693749,0.1206034691299676
11.847915999999998,2.6946984117842283,0.1203321953390549
11.850303999999998,2.7048014633149298,0.1200868960234247
11.852683999999996,2.71052822630046,0.1199224079147937
11.855079999999996,2.715463593353072,0.1197620659529331
11.857467999999995,2.720259190778824,0.1196227950660803
11.859848,2.72933852895113,0.1193105660580064
11.902856,2.724964136263828,0.1190323134597929
11.905259999999998,2.729060885555279,0.1189904334831112
11.907652,2.7334371741004504,0.1189162253413381
11.910031999999998,2.734228570033369,0.1189121617213178
11.912436,2.7383725411530624,0.1187764289397021
11.91482,2.745449778578952,0.1185525549595054
11.917199999999998,2.755600051937896,0.1182308823230265
11.9196,2.7677524260432573,0.1178383743586388
11.921983999999998,2.7862831894402063,0.1173109840238332
11.924363999999995,2.8010892905980422,0.1168675570962181
11.926759999999998,2.81482445656924,0.1164610726635298
11.929147999999998,2.8285596225404377,0.1160545882308416
11.931527999999997,2.847230155564247,0.1155079103195714
11.933932,2.866971623774695,0.1149228543795004
11.936319999999998,2.8823368034399723,0.1144224073984941
11.938703999999998,2.8975622134783894,0.1139383594784516
11.9411,2.9147897242632226,0.113385266007554
11.943483999999998,2.931086069488278,0.1128574826867102
11.945867999999995,2.9467307884072755,0.1123194513370647
11.948263999999998,2.960513176206716,0.1118253622291172
11.950651999999998,2.970710671393904,0.1114064083676585
11.953028,2.9756932602747588,0.1111663528370316
11.955423999999995,2.9771835043419776,0.1110766498287459
11.960203999999996,2.978254439528617,0.1110380456014879
11.962599999999998,2.9841209721410067,0.1108859837718044
11.964987999999998,2.98770586475326,0.1108246598272393
11.969772,2.9902198221788736,0.1107983170498009
11.972155999999998,2.996877750724182,0.1106489718493733
11.974539999999998,3.0078194200160446,0.1103625643767417
11.976944,3.022765290800741,0.1099788630947728
11.979328,3.032915564159686,0.1097069841271957
11.981707999999998,3.045207707891907,0.1093761871713828
11.984104,3.0554977508777115,0.1090904708778032
11.986487999999998,3.0680694338636543,0.1087266191645739
11.988867999999997,3.0794304120360976,0.1084084108722471
11.991272,3.0886495198352635,0.1081530157509269
11.993659999999998,3.09772885800757,0.1079140196905703
11.996039999999995,3.108670527299432,0.1076393733130303
11.998435999999998,3.1194724269644345,0.107378414052843
12.000823999999998,3.131065722562355,0.1071087309026181
12.003203999999997,3.146942758906829,0.1067046252191177
12.005608,3.1638907304379438,0.106274057952257
12.007996,3.1849826730887503,0.1057222323735412
12.010375999999995,3.197135047194111,0.1054062426562726
12.012771999999998,3.2104981261129706,0.1050435830298732
12.015159999999998,3.2267944713380268,0.1046166761516092
12.03428,3.243043594734838,0.1042618107215147
12.036663999999998,3.247327335481392,0.1041410288894717
12.039047999999998,3.2558948169745,0.1038993422605976
12.041443999999998,3.266604168840885,0.1036010200261954
12.043831999999998,3.279455391080548,0.1032505739544668
12.046211999999995,3.297241980372822,0.1028047611718325
12.048607999999998,3.31931231041165,0.1022480939032186
12.050995999999998,3.337378438957645,0.1017837496198623
12.053379999999995,3.35544456750364,0.1013291584371438
12.055775999999998,3.37057742974344,0.1009322160905172
12.058159999999996,3.3866414575430177,0.1005147377920527
12.06056,3.39949267978268,0.1001789280641541
12.062956,3.411272966835704,0.099875672607363
12.065344,3.433063757620812,0.0993702356844559
12.067723999999998,3.4597899154585323,0.0987761980740103
12.07012,3.4880063173634714,0.0981163254529737
12.072508,3.519807611880663,0.097414251277544
12.074887999999998,3.5534712375174125,0.0966943744471704
12.077288,3.58792625908708,0.0959857907235072
12.079676,3.6271768780824982,0.095205707777642
12.082055999999998,3.662935152264282,0.0945430776798626
12.084452,3.695340851259289,0.0939853200346942
12.08684,3.72560467988102,0.0934856540153504
12.089219999999996,3.753447098875753,0.0930661597760081
12.091615999999998,3.779147647497208,0.0927053191185408
12.094003999999998,3.799773059439191,0.0924451083592371
12.0964,3.815323334701702,0.0922805727853221
12.098795999999997,3.8318047755239912,0.0921039242740357
12.10118,3.844282014853448,0.0919973047377521
12.103564,3.860623686048876,0.0918355865857322
12.10596,3.88124909799086,0.0915834235514228
12.108348,3.906949646612315,0.0912396295688661
12.110732,3.93265019523377,0.0908989732513544
12.113135999999995,3.952344441615975,0.090669233411137
12.115523999999995,3.966032385758929,0.0905389657411983
12.117904,3.979440790648163,0.0904348023165422
12.120303999999996,3.9919180299776182,0.0903415795792711
12.122687999999997,4.0023931685606575,0.0902814463143437
12.127467999999997,4.01482318606187,0.0902629053649692
12.129852,4.019990870539959,0.0902395080609459
12.132236,4.026881116510745,0.0902085726159824
12.134632,4.03456275841445,0.0901795609112912
12.13702,4.042523939571874,0.0901270130321265
12.139399999999998,4.0474120847962425,0.0901262004077266
12.1418,4.054162561140168,0.0901054087181956
12.144188,4.065848404536705,0.090012619057382
12.146567999999998,4.0793965790528,0.0899013454410276
12.148971999999995,4.09494685431531,0.0897571557339244
12.151359999999997,4.107703632898486,0.0896450588221982
12.15374,4.118178771481525,0.089589142047172
12.156135999999996,4.126791578945007,0.0895535921344539
12.158524,4.138617191968405,0.0894602874014291
12.160899999999998,4.150442804991803,0.0893669826684043
12.163303999999997,4.162547957268921,0.0892487790649129
12.165691999999996,4.172651008799623,0.0891596571677758
12.168072,4.181171268464487,0.0890664294915069
12.170471999999997,4.188480823315854,0.0890039448271219
12.172859999999996,4.194067816674523,0.0889474971351745
12.17524,4.198723644473415,0.0889009585329954
12.177636,4.204450407458945,0.0888342709899423
12.180024,4.210456709698196,0.0887463850656472
12.182403999999998,4.216742551191167,0.08863696294612
12.184804,4.224099327870777,0.0885081246024113
12.187188,4.238673111603136,0.0882642912935068
12.189567999999998,4.253666204216075,0.0879898100533788
12.191968,4.26586580014968,0.0877446314672626
12.194356,4.278065396083283,0.0875025204448897
12.196748,4.28826289127047,0.0872862686551029
12.199143999999997,4.300462487204075,0.0870449179478661
12.201531999999997,4.309868586458346,0.0868279513889376
12.203912,4.319414455339475,0.0866025246987952
12.206307999999996,4.320812151608077,0.0864961248244544
12.208699999999997,4.322489387130399,0.086368608605902
12.21108,4.326308493025999,0.086203018439907
12.213483999999998,4.331617842988819,0.0859864461065783
12.215871999999996,4.336927192951637,0.0857691407569666
12.218252,4.345449348474372,0.0854956328995594
12.220647999999995,4.357835935863079,0.0851772909956857
12.223032,4.372224623998203,0.0848351618766576
12.225412,4.384611211386911,0.0845202980432195
12.227811999999997,4.390339870230311,0.0842706657919054
12.230199999999996,4.397279233887208,0.0839946893725855
12.23258,4.40249603605141,0.083724529852612
12.234983999999995,4.400915140043444,0.0835315154074416
12.237371999999995,4.397332143289059,0.0833641111763112
12.239752,4.392817980974898,0.083203856075363
12.242155999999998,4.387931731608398,0.0830099087971574
12.244539999999995,4.387329222988453,0.0827452625131268
12.246924,4.38458484399523,0.0825168080908445
12.249327999999998,4.384913500935063,0.0822458420648695
12.251715999999998,4.3841712226882565,0.0819930608522596
12.254095999999995,4.389854555561282,0.0816350390951886
12.256491999999998,4.394327183620808,0.0813043905683525
12.258879999999998,4.399730977240114,0.0809684145081338
12.261259999999996,4.405646627538617,0.0806578171457782
12.263655999999996,4.415566479329954,0.0803025227130702
12.266039999999997,4.424974474442092,0.0799278201741318
12.268424,4.435453404740869,0.0795404591225561
12.270819999999995,4.443930234293229,0.079178412132413
12.273204,4.455619869405506,0.0787700095668705
12.275599999999995,4.473176037130172,0.0783010533363191
12.277995999999998,4.487519399294923,0.0778831159616585
12.280383999999998,4.501583222205953,0.0774838805453784
12.282763999999997,4.519511476982957,0.0770516788491963
12.285163999999998,4.5385106669466,0.0766039214970106
12.287551999999998,4.557509856910242,0.0761549224503417
12.289931999999997,4.57222530612733,0.0757698475878708
12.292327999999998,4.582936553851585,0.0754300588326806
12.294711999999995,4.593135944896642,0.0750663804587124
12.297096,4.60226440075506,0.0747202686669123
12.299491999999995,4.6104616910537,0.0743796601145944
12.301879999999995,4.614235470978925,0.0741120437161438
12.30426,4.622013452396985,0.0738040443525999
12.306655999999997,4.630722599374823,0.073493855663307
12.309043999999997,4.638640350419743,0.0731802956595379
12.311424,4.642553899971828,0.072909476154847
12.313827999999996,4.6431148743371375,0.0726928442239509
12.316215999999995,4.643675848702447,0.0724782844815055
12.318599999999996,4.643445427134839,0.0722588855905804
12.321004,4.641073135193955,0.0720692277151801
12.323391999999998,4.640563174372627,0.0718717036043625
12.325771999999995,4.642474623178296,0.0716277139198919
12.328167999999998,4.650392374223215,0.0713314416480581
12.330555999999998,4.654305923775301,0.0710718865466919
12.332935999999997,4.659010869260305,0.0708182254471176
12.335331999999998,4.666649081051504,0.0705435794253336
12.337719999999996,4.6800140558282335,0.0702343648446568
12.3401,4.69431019616474,0.0699193831947701
12.342495999999995,4.709909589113364,0.0696336118988295
12.344883999999997,4.727790622062125,0.0693153471081599
12.347279999999998,4.748465151690221,0.0689864649011605
12.349684,4.771281551691594,0.068629283170363
12.352072,4.787300253520798,0.0683193929217477
12.354451999999998,4.800245919416946,0.0680414356017885
12.356848,4.811189484566677,0.0677797479129602
12.35924,4.823855611209106,0.0675195247608222
12.361619999999998,4.839455004157729,0.0672377753122557
12.364019999999996,4.85132973486724,0.066973287731081
12.366404,4.864787257442586,0.0667199739800658
12.368783999999998,4.88038665039121,0.066443381125484
12.371184,4.894123712220277,0.0661782075313274
12.373568,4.9082328611016806,0.0659484034317372
12.375951999999998,4.915684081437776,0.0657544665360318
12.378348,4.926068568080067,0.065541262639352
12.380736,4.93566165878944,0.0653237695681554
12.383119999999998,4.943392418379258,0.065114614703402
12.38552,4.947538285356821,0.0649107931007982
12.387911999999996,4.957410915319913,0.0646820274926564
12.390292,4.968634019723366,0.0644261580332314
12.392688,4.974083139313046,0.0642536792027342
12.395076,4.979811798156444,0.0640661186002142
12.39746,4.990336054425595,0.0638584341019344
12.399856,5.008589174426692,0.0636121030773574
12.402244,5.030846495920624,0.0633398289315924
12.404623999999998,5.059901515586725,0.0630346427030034
12.40702,5.089236074506546,0.0627153314063752
12.409408,5.120572734172784,0.0623871241948178
12.411787999999998,5.1552147471975545,0.0620739022902962
12.414184,5.189856760222326,0.0617621321844924
12.416572,5.2202150325005405,0.0614944871349955
12.418951999999996,5.249083060711539,0.0612626568312041
12.421356,5.2750178226163404,0.0610465045841273
12.423744,5.303326772319897,0.0608473609377803
12.426123999999998,5.330564786836815,0.0606598021391785
12.428524,5.35952536284643,0.0604778735302872
12.430912,5.3909998962816585,0.0603073493604144
12.433291999999998,5.428061423075557,0.0601270574058242
12.435688,5.4581854820704265,0.0599880953144029
12.438076,5.4853762747591,0.059865290540307
12.440455999999998,5.519272217821327,0.0596662445827648
12.442856,5.549024189763859,0.0595010388346126
12.445244,5.575191269094138,0.0593407607568348
12.447623999999998,5.597354146931584,0.0592059638022422
12.450024,5.617514924022613,0.0590847853825684
12.452407999999998,5.634090808501389,0.0589662281482699
12.454791999999998,5.650526923353304,0.0588564249701069
12.457196,5.663890002272164,0.0587677240316487
12.459584,5.674878893392269,0.0586620165886706
12.461968,5.684564531900261,0.0585304703988111
12.464375999999998,5.697183436714447,0.0583862258497971
12.466759999999995,5.709430254476295,0.05821349904545
12.46914,5.72316731630536,0.058009394967452
12.471543999999998,5.735321586268591,0.0577935800199276
12.473931999999998,5.74882633067218,0.057554900256406
12.476311999999997,5.757395708023156,0.0573385463495819
12.478716,5.766384394254716,0.0571028363786261
12.481099999999998,5.764571180821271,0.0569126883379589
12.483479999999997,5.76825241294788,0.0566716528702515
12.485875999999998,5.772864810634267,0.0564290042297575
12.488263999999996,5.774124633133878,0.0562213252491238
12.490644,5.775244686006628,0.0560195693294892
12.493047999999998,5.773291702946323,0.0558364633431062
12.495431999999996,5.771618259139739,0.0556387075342536
12.497815999999997,5.769013649773377,0.0554426083867405
12.500211999999998,5.7644069396605975,0.0552563355919086
12.502599999999996,5.759939999174679,0.0550633339831517
12.50498,5.753750497196064,0.054864767501881
12.507375999999995,5.749423326337005,0.0546638317733498
12.509763999999995,5.7463994080900616,0.0544897752513164
12.512144,5.745936669096977,0.0542788233404489
12.514539999999997,5.746544865290531,0.0540596114088172
12.516927999999997,5.746873522230364,0.0538550019290351
12.519308,5.749344049543473,0.0536345500309746
12.521704,5.75367690797614,0.0534144445323085
12.524092,5.765366543088415,0.0531474526300215
12.526471999999998,5.771189645588302,0.0528995948138931
12.528875999999997,5.784089985514077,0.0526162579696041
12.53126,5.794289376559134,0.0523793768966547
12.533644,5.807561803537246,0.0521285052765069
