Time,Force,Position
13.011011999999996,2.3891588264623924,0.1247495025984215
13.013392,2.3999588302695263,0.1246775553320822
13.015795999999998,2.411829769263297,0.1245546678840122
13.018183999999998,2.4250511826974277,0.1243379763221013
13.020564,2.437760739452361,0.1240925743051032
13.022959999999998,2.449678900274376,0.1238538813442928
13.025344,2.463040083335367,0.1236191653572889
13.030123999999995,2.4814745072179605,0.1235186108191519
13.032512,2.49017986248006,0.1234353673431005
13.034892,2.5010270881154364,0.1232613516297564
13.037295999999998,2.508149651511699,0.123199439700256
13.039683999999998,2.522489221960712,0.1228532198095613
13.042064,2.5389706627830004,0.1224262925041211
13.044463999999998,2.5577337436054277,0.1219117169665635
13.046851999999998,2.580081717040107,0.1213305914178113
13.049232,2.599636193795452,0.1208333576266751
13.051635999999998,2.625476512043768,0.1200957532562639
13.054023999999998,2.654250096598279,0.1192690450902669
13.056404,2.6784604011525146,0.1186393885731641
13.058799999999998,2.7086770079460014,0.1178177977217433
13.061183999999995,2.7376829099259896,0.1170883260039224
13.063564,2.7648264807864207,0.1164056711926804
13.065967999999998,2.790899116460213,0.1157710627745038
13.068355999999998,2.8177631480669243,0.1151465759560673
13.070736,2.843696014113857,0.114536578257411
13.073131999999998,2.867906318668094,0.1139484334517151
13.075519999999996,2.891604766543133,0.113330923595643
13.0779,2.9180967110975065,0.1126359602120199
13.118536,2.958829990728668,0.1123061713816343
13.120912,2.963253501102082,0.112153062490776
13.123316,2.96432443628872,0.1121181388011244
13.125704,2.9647437451693004,0.1120697283770737
13.13048,2.965814680355938,0.1120351460902222
13.132863999999998,2.967956550729216,0.1119645096437441
13.135247999999995,2.9781068240881607,0.1116762137764798
13.137639999999998,2.9901194285666626,0.1113496916585159
13.140027999999996,3.007346939351496,0.1108516149348793
13.142408,3.022292810136193,0.1104436774178704
13.144811999999998,3.034957040920752,0.1101289350419982
13.147199999999998,3.0476212717053106,0.1098177030892371
13.14958,3.058283401743453,0.1095571201427612
13.151984,3.070807862901151,0.1092629693502743
13.154367999999998,3.084403259245488,0.1089290803199759
13.17588,3.121785859547744,0.10867099611535
13.178259999999998,3.1290954143991105,0.1085397288104912
13.18066,3.137336134810255,0.1083955843713111
13.187832,3.1482759082442477,0.1083859257359245
13.190216,3.154095219028395,0.1083435762763658
13.192595999999998,3.160054299439402,0.1082856735702288
13.194992,3.164942444663771,0.1082601120986132
13.19738,3.174626187313891,0.1081348958963908
13.199759999999998,3.181236894030957,0.1080912736137527
13.202156,3.1902690103750198,0.1079561296631503
13.204539999999998,3.2003720619057208,0.1077889730451147
13.20692,3.2148986238098365,0.1074824157728706
13.209324,3.232777760900728,0.1070743376651361
13.211712,3.2510762068722,0.1066163223467507
13.214091999999996,3.271796062470669,0.106057804017507
13.216496,3.293167544375197,0.1055020999621455
13.218884,3.3161218181455605,0.1049642046215509
13.221263999999998,3.336282595236589,0.1044848862085626
13.223668,3.359748725686151,0.1039918748106448
13.226052,3.380421359456377,0.1035550592198946
13.228431999999998,3.3972295613606303,0.1031986879740186
13.230836,3.413386136958825,0.1028270449431488
13.233224,3.4298222518107404,0.1024266230696776
13.235604,3.4457465099834588,0.1020064132390924
13.238007999999995,3.4608793722232587,0.1015894401478686
13.240392,3.479085270396113,0.1011080014033798
13.242772,3.498501873382467,0.1005862592208834
13.245175999999995,3.515404518943206,0.1000875802149767
13.247564,3.5353802004370007,0.0995213056164141
13.249944,3.553865637863576,0.0990321227304548
13.252347999999998,3.577286442342764,0.0984633874053322
13.254735999999998,3.598844915702395,0.0979337793303676
13.257116,3.616259417942332,0.0975006256438151
13.259511999999996,3.6375383520482414,0.097011114702655
13.261896,3.65960868208707,0.0965252210293021
13.26428,3.683960652126036,0.0959749410812803
13.266676,3.7007235280599136,0.0955362174203142
13.26906,3.715344533620516,0.0951446382866067
13.271444,3.728522516942143,0.0947449762925025
13.27384,3.74048979545027,0.0943815945337502
13.276224,3.7533882395181752,0.0940048511721151
13.278603999999998,3.768149014705637,0.0936053023643189
13.281004,3.7818388547064616,0.093229860479122
13.283388,3.792036349893649,0.0929543294321565
13.285771999999998,3.804235945827254,0.0926458422332325
13.288168,3.810429239521608,0.092446655079008
13.290551999999998,3.816622533215962,0.0922494234062975
13.292935999999996,3.826540489149429,0.0920113814740356
13.295331999999998,3.835667049149978,0.0917756898514525
13.312068,3.797772592168525,0.0917593709436825
13.314448,3.795677943623491,0.0917296591649907
13.316855999999998,3.794654230265096,0.091676970285084
13.319243999999998,3.790697250600505,0.0916682994283073
13.321624,3.7898133068689694,0.0916032626894144
13.324019999999996,3.7900002983240735,0.0915156221773627
13.326407999999995,3.787254023472982,0.0914715484080678
13.328788,3.787441014928085,0.091383983909684
13.331187999999996,3.7937740782493,0.0911862722453754
13.333572,3.79596317045082,0.0910664680871147
13.335952,3.8020166945183136,0.0908919532663287
13.338355999999996,3.806999283399168,0.0907408221053318
13.340743999999995,3.805835800413913,0.0907005747866252
13.343124,3.805323943734715,0.0906745180777003
13.34552,3.809188375600689,0.0906222352468304
13.347908,3.817755857093797,0.0904423067750724
13.350292,3.825531942653988,0.0902581964620292
13.352688,3.835542446386072,0.0900925342627672
13.355076,3.848625986051211,0.0898718220951906
13.35746,3.8615697560894895,0.0896655584665667
13.359855999999995,3.871580259821575,0.0895033195030636
13.362244,3.8797284324341024,0.0893642339880374
13.364624,3.890809871352825,0.0891845192906778
13.367027999999998,3.903334332510524,0.0890190753237881
13.369415999999998,3.9129255273620274,0.088896439497238
13.371796,3.924658592586808,0.0887344569438175
13.374191999999995,3.944260291170396,0.0884665736818205
13.376579999999995,3.962930824194205,0.0882124074874419
13.37896,3.975734824605624,0.0880385109429212
13.381356,3.9916118609501,0.0878137726570219
13.383744,4.010561933227629,0.0875452668837713
13.386124,4.033655976624853,0.0872145809750163
13.38852,4.061964926328409,0.0867972454807359
13.390908,4.090553415285687,0.0863655153331618
13.393287999999998,4.119421443496684,0.0859178580436841
13.395688,4.149592724319797,0.0855025774283798
13.398072,4.184699372195522,0.0850283575872767
13.400455999999998,4.219154393765189,0.0845434695055747
13.402852,4.249744983468882,0.0841025035050088
13.40524,4.281546277986075,0.083638589667043
13.407636,4.314418507689905,0.0831553999935347
13.410031999999998,4.347011198140016,0.082696936877543
13.412419999999996,4.381745758963404,0.0822154285878711
13.4148,4.419832894973567,0.0816744907073846
13.417196,4.460993066916786,0.0810943446005086
13.419584,4.496798562926812,0.0806060526711277
13.421964,4.522733324831614,0.0802355954009887
13.424363999999995,4.548668086736416,0.0798689297262607
13.426752,4.5826112516268855,0.0794146751296121
13.429132,4.615623250957578,0.0789704388587519
13.431528,4.645050357676015,0.0785521768940841
13.433912,4.670613032528479,0.0781777018181717
13.436291999999998,4.691380109955191,0.0778468839260915
13.438696,4.706001115515793,0.0775905364650798
13.441084,4.71903932921056,0.0773296894958873
13.443464,4.7304947510394895,0.0770627457945937
13.44586,4.74087923768178,0.0768154810191096
13.448248,4.749680932458234,0.0765611214669183
13.450632,4.761695432794605,0.0762610764992972
13.453028,4.769705731638141,0.0760034740765021
13.455416,4.778926735295177,0.0757228412805268
13.457812,4.789637983019432,0.0754014706186175
13.460216,4.796484798877713,0.0751150074144559
13.462604,4.798536017310242,0.0748649908287935
13.464983999999998,4.800587235742771,0.0746174305816731
13.46738,4.803057763055881,0.0743399040282446
13.469767999999998,4.810463657421602,0.074016100075571
13.472147999999995,4.814796515854269,0.0737259108599155
13.474543999999998,4.808047935368213,0.0735490134683363
13.476931999999998,4.801019815628437,0.0733907760463407
13.479312,4.79250145182144,0.0732745783344793
13.48172,4.781841217641168,0.0731867798354251
13.484104,4.773043314580451,0.0730882937134064
13.486487999999998,4.769600087452928,0.0729164042789821
13.488884,4.765737551444824,0.0727727608950229
13.491272,4.762945950623358,0.0726148571854565
13.493651999999996,4.758152249055475,0.0724767424932882
13.496056,4.754149943420511,0.0723426972583686
13.498444,4.748797163345188,0.072241536713773
13.500823999999998,4.748659289576196,0.0720794674236217
13.50322,4.749173042113262,0.071932309242652
13.505608,4.74354072278422,0.0718491473686133
13.507987999999996,4.738420260134372,0.0717890555439156
13.510383999999998,4.7411684308433335,0.0716663782216981
13.512767999999998,4.738981234499683,0.0715837069567319
13.515152,4.740518700395145,0.0714836500216582
13.517547999999998,4.74098523110397,0.0713972320831076
13.519935999999998,4.74373340181293,0.0712745558663268
13.522316,4.756631845880835,0.0710545435419336
13.524715999999998,4.771160303642821,0.0707863922999381
13.527103999999998,4.784897365471888,0.0705111249024437
13.529487999999995,4.7994258232338725,0.0702383525418746
13.531883999999998,4.815816612115414,0.0699589875447434
13.534267999999996,4.831788092116375,0.069709446362983
13.536652,4.846828406557558,0.0694635186603791
13.539047999999998,4.859726850625464,0.0692448851218602
13.541432,4.871973668387311,0.0690122837577173
13.543812,4.886222586895576,0.0687644567926479
13.546211999999995,4.899400570217202,0.0685288893832626
13.548596,4.9062927120458575,0.0683638593011073
13.550991999999995,4.909320422008539,0.0682241330101731
13.553392,4.919145830143388,0.0680377094500631
13.55578,4.9243154104793465,0.0678700946652576
13.558159999999996,4.918263782269722,0.0678116287382724
13.560555999999998,4.918078686672488,0.0677105354613555
13.562943999999998,4.919244065515612,0.0675797190458801
13.565324,4.919618048425819,0.0674435789137114
13.567719999999998,4.92292529764222,0.0672883311075734
13.570107999999998,4.917944604619234,0.0672164881480199
13.572488,4.913615537902306,0.0671585767097297
13.574883999999996,4.910217636745156,0.0670968680876688
13.577271999999995,4.911103476334561,0.0669860898462228
13.579656,4.9102667544312695,0.0668739852879127
13.582051999999996,4.9107805069683375,0.066733182409242
13.584436,4.913296360251822,0.0665771205321696
13.586835999999998,4.919956184654999,0.0663830693468645
13.589232,4.927267635364234,0.0662029859871833
13.591615999999998,4.933647920513691,0.0660278602556805
13.593995999999995,4.946314047156119,0.0657939821579344
13.5964,4.96405531047802,0.0655191253666175
13.598788,4.983007278613419,0.0652230233353916
13.601171999999998,5.000376454882982,0.0649200932927253
13.603568,5.0248228685784335,0.0645627569803116
13.605956,5.055834663020578,0.0641248403774033
13.608339999999998,5.079908989663692,0.0637332723707037
13.610736,5.099699575560254,0.0633910026652423
13.613124,5.122563197389868,0.0630258232404822
13.615503999999998,5.144355884032844,0.0626779617635994
13.6179,5.165496944369766,0.0623097153775035
13.620288,5.185567069520047,0.0619562871690764
13.622667999999996,5.21085210097666,0.0615602990321731
13.625063999999998,5.229199664634244,0.0612080919757198
13.627451999999998,5.248478393851606,0.0608556930912111
13.629835999999996,5.264544317509054,0.0605373707072017
13.632231999999998,5.277956514114027,0.0602182834478166
13.634619999999998,5.289506379599442,0.0599079970598474
13.637,5.303337885084996,0.0595708829070034
13.639395999999998,5.315167289824132,0.059247105517679
13.641783999999998,5.320059226764239,0.0589649550805184
13.644168,5.323088832584789,0.0586883304887332
13.646563999999998,5.330774266204232,0.0584042854942431
13.648951999999998,5.334455498330841,0.0581432113437906
13.651332,5.337205564897672,0.0578869049666839
13.65374,5.340607257770561,0.0576465867879024
13.656123999999998,5.354298993629253,0.0573379526860476
13.658503999999995,5.370132599861223,0.0570112986536847
13.660908,5.385035040533414,0.0566897163523547
13.663296,5.397143984526271,0.0563739878404517
13.665679999999998,5.419263432251211,0.0560094796296479
13.668076,5.442453815162791,0.0556393041585459
13.670464,5.459498126208259,0.0553094273786167
13.672843999999998,5.482269200239258,0.054963977446505
13.675244,5.502898403896979,0.0546367597300452
13.677632,5.523667377181562,0.0543011484089088
13.680015999999998,5.550163113451673,0.0539544642125347
13.682412,5.57344604416187,0.0536342767377659
13.6848,5.59458710449879,0.0533337865740764
