Time,Force,Position
14.250012000000002,0.9929460631781254,0.1331769232561678
14.252392,0.9996493176938076,0.1330972746708836
14.254788,1.0115674785158224,0.132440535390628
14.257172,1.021902847472001,0.1318857382198159
14.259568000000002,1.034752173853794,0.1312431524327671
14.261964,1.046530565048949,0.1307818286750968
14.264352,1.0596594306844629,0.1301117588481285
14.266732,1.0739990011334748,0.1292851751099906
14.269127999999998,1.088338571582487,0.1284585913718528
14.271512,1.101095350165663,0.1276148538614292
14.273892,1.1149230639354777,0.1267800065514464
14.276296,1.1268884465857358,0.1260978049591408
14.278683999999998,1.143928965915466,0.1249725795896226
14.281064,1.160829715618336,0.1238488002659283
14.283460000000002,1.1797325660676228,0.122640231647103
14.285848,1.1991472731961073,0.1214591653775353
14.288228,1.2212157073770666,0.1202090366954461
14.290624,1.244866933423862,0.1189684431318599
14.293008,1.272382591336631,0.1175533632791249
14.295404,1.3032508244361756,0.1158758065594442
14.2978,1.3388221071628552,0.1138088501754485
14.300188,1.3713203539564796,0.1120593048555046
14.302568,1.3958101977644362,0.110850943227
14.304963999999998,1.419089336758894,0.1097789891053624
14.307352000000002,1.437992187208181,0.1088573608503159
14.309732,1.4559638720976893,0.1080133428262846
14.312128,1.4750064921738364,0.1071310274945989
14.314512,1.4928384074364849,0.1063582698122236
14.316908000000002,1.5134638193784675,0.1054977735295984
14.417252,1.750601164142311,0.1047474136933421
14.419652,1.7572118708593767,0.1046852446085424
14.42204,1.7687579446290538,0.1044320059432335
14.42442,1.7770912128388154,0.1043520452398858
14.426816,1.785424481048577,0.1042751759539123
14.429204,1.798041490004893,0.1039948676978289
14.431596,1.812008973401568,0.1036062227679599
14.433992,1.821180859372491,0.1033696876747269
14.43638,1.835148342769166,0.102976638299338
14.438756,1.8539114235915928,0.1024326689852589
14.441164,1.8709519429213224,0.1019085025973832
14.443548,1.8861301311314964,0.1014327142062593
14.445928,1.9002373841550315,0.1009986733458162
14.448332,1.9210025657238752,0.1003466387994749
14.45072,1.939253789867104,0.0997426670389056
14.4531,1.9593673451298892,0.0991197590241968
14.455496,1.9777583388999789,0.0985358766557751
14.45788,1.996940728602986,0.0979541957421069
14.460264,2.018637075731608,0.0973528633936821
14.462656,2.037819465434615,0.0967711824800138
14.465044,2.051135322525232,0.0963922983873104
14.46744,2.063752331481548,0.0961323435024762
14.469836,2.073715613385389,0.0959301131010341
14.472224,2.079814463423257,0.0958377642716005
14.474604,2.0859133134611243,0.095747666888128
14.479388,2.0947584383500835,0.0957368661216949
14.481768,2.105373346559982,0.0955662129655071
14.484164,2.116407563650462,0.0953431852805102
14.486552,2.125160140740804,0.0952323146227336
14.488931999999998,2.1432243734289296,0.0949426772858876
14.491328,2.16571211649047,0.0944848357339405
14.493712,2.187408463619092,0.0940059271086014
14.496108,2.202446882202405,0.0936837867782265
14.498504,2.217345531158858,0.0933845648292147
14.500888,2.225586251570003,0.0932383881607705
14.503267999999998,2.234478598287205,0.0931170623659728
14.505672,2.240856987578793,0.093008120199129
14.50806,2.247235376870381,0.0929017240610574
14.51044,2.2590609898937792,0.0927113652478649
14.512836,2.273819869223372,0.0924428436641288
14.51522,2.2919313237397407,0.0920417733396295
14.517604,2.3092041604949483,0.091760675310903
14.52,2.3336940043029046,0.0912539621670328
14.522388,2.3561817473644444,0.0908021600477138
14.52478,2.377598555239345,0.0903904538538451
14.527176,2.399434671994828,0.0899264943076116
14.529564,2.42127078875031,0.0894870334884082
14.541519999999998,2.45790921494789,0.089355556255374
14.543907999999998,2.46717364871743,0.089316354960577
14.546288,2.4804422839798037,0.0891841192045568
14.548684000000002,2.498506516667929,0.0889542375336307
14.551072,2.5157793534231367,0.0887214644038449
14.553452,2.535705917230819,0.0884608001827436
14.555848,2.556191559545942,0.0881381605951565
14.558236,2.5708106692486745,0.0879417881652272
14.560616,2.585429778951408,0.0877484895821451
14.563020000000002,2.5964639960418867,0.0875995312244705
14.565404,2.611270097199723,0.0872878728234229
14.567788,2.6239343279842817,0.0870519963445298
14.570184,2.6379490332092,0.0867508487677861
14.572568,2.654105608807395,0.0863931493484457
14.574948,2.66984287552501,0.0860916538293514
14.577352,2.68143617112293,0.0858929276600113
14.579736,2.702667883400597,0.0854304493370102
14.582116,2.726972631611319,0.0849025327501341
14.58452,2.752488084635541,0.0843188850461964
14.586908,2.772276774674232,0.083818934286029
14.589284,2.793136399899562,0.0833072281863081
14.59168,2.8170690610579467,0.0827427722323147
14.594068,2.834064254417304,0.0823142424602815
14.59646,2.849336886283963,0.0818977568562659
14.598864,2.8667513885239004,0.0814328788733561
14.601252,2.8840261211369773,0.0809871387664286
14.603632,2.8970171130034994,0.080651151197715
14.606027999999998,2.913220910429938,0.0802315758423934
14.608415999999998,2.927422607109959,0.0798491453231033
14.610796,2.94134476453626,0.0794972341085632
14.6132,2.9499122460293683,0.0792826167857939
14.656196,2.906011486808665,0.0791747812919767
14.658584,2.904568464569689,0.0791480261468438
14.660964,2.9055468519577103,0.0790410481281799
14.66336,2.9094585056519264,0.0788893572475583
14.665748,2.915791568973141,0.0786615200717643
14.668144000000002,2.928270704160466,0.0783140987687473
14.67054,2.9352553937877377,0.0781045694716524
14.672923999999998,2.941029378601512,0.077936553012378
14.675308,2.9469431330421445,0.0777537298769726
14.677704,2.953927822669417,0.0775451206515919
14.680091999999998,2.9566287715501347,0.0774349764097986
14.682472,2.958258785244214,0.0773507467644863
14.684876,2.96189089968471,0.0772345953979466
14.687264,2.96938744599118,0.0770684398746627
14.689644,2.980888193790484,0.0768390801677536
14.69204,2.9956017471497027,0.0765410018927287
14.694427999999998,3.0127367101359197,0.0761662360927669
14.696808,3.032665169801471,0.0757692343928827
14.699212,3.050451759093745,0.0754189813143003
14.7016,3.0658169387590224,0.0751448142410893
14.70398,3.080250952864521,0.0748755058856256
14.706376,3.0920312399175445,0.0746249988725764
14.708764,3.106465254023043,0.0743700670076964
14.711144,3.119036937008985,0.0741311265396585
14.713539999999998,3.1273248792483725,0.0739837579533672
14.715928000000002,3.133470951114484,0.0738819444342752
14.718308,3.144040533354009,0.0736768455615471
14.720704,3.1556810507801725,0.0734513456227166
14.723092,3.1633173667135024,0.073282002153339
14.725488,3.1732353226469696,0.073057441715189
14.727884,3.185434918580574,0.0727719353161226
14.730272,3.197634514514179,0.072490100998219
14.732652000000002,3.207971779328227,0.0722266435433462
14.735052,3.2183090441422744,0.0719683467837987
14.737436,3.2250614163440687,0.0717274810507782
14.739816,3.228740752612808,0.0715359045196324
14.742208000000002,3.232420088881548,0.0713465257563958
14.744596,3.238241295523564,0.0711228719280637
14.746992,3.247275307725496,0.0708423649599854
14.749396,3.258730729554425,0.0704966843063395
14.75178,3.2781945543690227,0.0700588810428808
14.75416,3.2963079047432604,0.0696684913114835
14.756564,3.3119072976918837,0.0692765230021806
14.758952,3.327786229894228,0.0688575643639925
14.761332,3.346877967656487,0.0683856765964707
14.763736000000002,3.368251345418884,0.0678706030936265
14.76612,3.3905558887410585,0.0673595015459102
14.768504,3.409787396130178,0.0668875184476111
14.770896,3.4359563713183268,0.0663404847375525
14.773284,3.459843706506338,0.0658486679962662
14.775664,3.484662207254128,0.0653557161108588
14.778068,3.507478607255501,0.0648861664415438
14.780456,3.5264305753909,0.0644435799707152
14.782836,3.5396557805407696,0.0640409061401043
14.785232,3.553532611996697,0.0636588720994758
14.787616,3.5684803786392623,0.063258734473424
14.79,3.582496979722049,0.0628673940870068
14.792396,3.591578213752224,0.0625293719614523
14.794784,3.5987971166628427,0.0622035708766475
14.797164,3.605084854013683,0.0618842680092411
14.79956,3.604574893192354,0.0616214427553115
14.801948,3.605555176438245,0.0613078342273687
14.804328000000002,3.605045215616917,0.0610453531217388
14.806724,3.6063975859151447,0.0607764031554355
14.809112,3.6060273947206767,0.0605041652031297
14.811495999999998,3.6015132324065147,0.0602801718730203
14.813892,3.594996969345936,0.060074772699382
14.816275999999998,3.5919730510989925,0.0598010100270645
14.818672,3.5860158665458544,0.059549202297498
14.821076,3.581129617179355,0.0592835908019945
14.82346,3.5761035981859948,0.0590307354310934
14.82584,3.5704259528865774,0.058755340159802
14.828236,3.5714062361324683,0.0584492400682927
14.830624,3.576390720871192,0.0581062326157357
14.833004,3.585658946356471,0.0577117574128759
14.8354,3.594927171841749,0.0573181725633991
14.837788,3.605917958819724,0.0569348624183793
14.840167999999998,3.613556170610923,0.056599209222998
14.842572,3.6209148431484017,0.0562875713407932
14.84496,3.6299960771785766,0.0559857225139915
14.84734,3.63958916788795,0.0557159259644274
14.849736,3.647831784156964,0.0554847522679029
14.852124,3.6562141700528383,0.0552403663267833
14.854504,3.666179347814549,0.0550181028879473
14.8569,3.676656382255456,0.0548298265368085
14.859288,3.690858078935477,0.0546336385735072
14.861668000000002,3.705059775615499,0.0544384757338931
14.864072,3.71870239378808,0.0542916069697061
14.86646,3.734067573453356,0.0541538188520794
14.86884,3.747570421999076,0.0540204058198551
14.871236,3.760561413865599,0.0538568759517787
14.873624,3.778859859837071,0.0537082088271686
14.876003999999998,3.796506679502485,0.0535435618901815
14.878404,3.8166674565935135,0.0533991380958696
14.880788,3.833475658497768,0.0533052973828034
14.883171999999998,3.854288061894854,0.0531892642012858
14.885568,3.874029530105302,0.0530862432082801
14.887956,3.902198710181998,0.0529026669130951
14.890352,3.9334409261917496,0.0526985204120489
14.892748,3.961749875895306,0.0525089423989489
14.895132,3.989407199292805,0.0522990402981769
14.897516,4.018135457876942,0.0520792206858629
14.899908,4.051007687580773,0.0518287398922954
14.902296,4.0830885213516845,0.0515729893243565
14.904675999999998,4.114238189562819,0.0513186862341844
14.907072,4.145807166654535,0.0510393488297048
