Time,Force,Position
13.885424,1.121112866047685,0.1299435375567511
13.887807999999998,1.149095054669278,0.1275373257681993
13.890192,1.1798707399702058,0.1252296227173305
13.892592,1.2086443245247165,0.1231624440112799
13.89498,1.236346973892589,0.1213621571410023
13.89736,1.256273537700271,0.1203735660376087
13.899764,1.2782022022543702,0.1191707168319068
13.902152,1.295288047554474,0.1185332820588444
13.904531999999998,1.316238324720552,0.1176510961553353
13.906928,1.3401218681928246,0.1165283400507679
13.909311999999998,1.3647968075980157,0.1153994771436373
13.911692,1.3890996599508691,0.1140559796659815
13.947528,1.466327804437011,0.1134235680628522
13.949924,1.4728459633554591,0.11314385315855
13.952312,1.4795038919007677,0.1128535802738745
13.954707999999998,1.486022050819216,0.1125999496493216
13.957112,1.4948218497378012,0.1121980243268051
13.959496,1.509348411641917,0.111572487144983
13.961875999999998,1.5273200965314253,0.1108860189567867
13.964272,1.549016443660047,0.1100536455427939
13.96666,1.571504186721587,0.1092216742085009
13.969039999999998,1.5949230953429057,0.1083747178026272
13.971436,1.6143378024713904,0.107698992281873
13.973824,1.633100883293817,0.1070200270152609
13.976204,1.653074668929742,0.1062560304399482
13.978599999999998,1.6669023826995566,0.1058169624846215
13.980987999999998,1.6836633627755664,0.1052563731639404
13.983372,1.7002845732247158,0.1047215551585325
13.985767999999998,1.7238432514728943,0.1038287204496452
13.988151999999998,1.7453998289746555,0.1030306135083958
13.990536,1.770681068715531,0.1021137553293514
13.992928,1.796474165135603,0.1012767940855228
13.995316,1.8241295926752323,0.1003931314741817
13.997711999999998,1.846430344281669,0.0998552143783491
14.000108,1.8637957288354932,0.0995260385098514
14.002491999999998,1.8825115878296763,0.0991039071552896
14.004875999999998,1.8988060371968627,0.0988606442706121
14.007276,1.9120274506309936,0.0987617546633784
14.009664,1.9244574681322055,0.098671358235384
14.012043999999998,1.9350251545138617,0.0986296380448707
14.01444,1.9469433153358764,0.0984980601940916
14.016828,1.9565798361577544,0.0984839892864907
14.019211999999998,1.9742247599652996,0.0981925194539628
14.021608,1.9898675830264276,0.0979733595978862
14.023991999999998,2.007372737207112,0.0977251181848637
14.026388,2.0288820928806306,0.0973361430871107
14.028784,2.051322614113927,0.0969456412418124
14.031172,2.0746943009070025,0.0965321644512158
14.033551999999998,2.0960638869536603,0.0961895327933616
14.035948,2.1205065089333743,0.0957419147007324
14.038332,2.141084699047114,0.0954059015258103
14.040712,2.160080097295018,0.0950687566837
14.043107999999998,2.177352934050226,0.0947583300587897
14.045495999999998,2.193834374872515,0.0944374943786827
14.047892,2.214180247560777,0.0940098573435948
14.050288,2.232384249875764,0.0936784176711649
14.052676,2.2491452299517736,0.0933196588537111
14.055056,2.264323418161947,0.0929574825205891
14.057452,2.275916713759868,0.0926551006998393
14.059836,2.293004454917841,0.0921482003570077
14.062219999999998,2.307810556075676,0.091750069064089
14.064616,2.324758527606789,0.0912693482123053
14.067004,2.336910901712151,0.0909187053332477
14.069383999999998,2.351065376563929,0.0905141172539607
14.148244,2.3883101030971927,0.0902508802756938
14.150648,2.3984131546278937,0.0901132262844697
14.153035999999998,2.411729011718511,0.089881405779424
14.155416,2.436358625153328,0.089455055385827
14.15782,2.4679257063871733,0.0888766993184478
14.160203999999998,2.498841161314961,0.0882721923104111
14.162584,2.5253803276975786,0.087715114179343
14.164979999999998,2.551779724453336,0.0871851108830429
14.167367999999998,2.578318890835952,0.0866323784457484
14.169748,2.609700876472563,0.0858713249878378
14.172152,2.6406635532285945,0.0851677630000817
14.17454,2.670695064424848,0.0844878047373423
14.17692,2.6869914096499032,0.084096055281614
14.179315999999998,2.7017975108077383,0.0837894153443118
14.181703999999998,2.7151605897265987,0.0834513916538003
14.184084,2.7274527334588208,0.0831506384800563
14.186488,2.7398374249896587,0.0829428243271241
14.188871999999998,2.7510586335352425,0.0826693648521614
14.191256,2.760277741334408,0.0824452809517749
14.193651999999998,2.7730817417458278,0.082181434877598
14.196035999999998,2.783232015104772,0.0819454275905393
14.19842,2.788027612530524,0.0818650870474912
14.219912,2.7666127005134915,0.0818229028740862
14.222308,2.765821304580573,0.08181732470474
14.224692,2.7714555197674864,0.0816522455437796
14.227088,2.7778811308873177,0.0814905490154099
14.229484,2.789242109059761,0.0812466531765095
14.231872,2.79836866906031,0.0809714049865524
14.234256,2.8097768690609963,0.0806294216122007
14.236651999999998,2.823047400181239,0.0802668854418891
14.239036,2.833384664995287,0.0799477102997576
14.241416,2.846003569809472,0.079566918981553
14.243812,2.856620373877241,0.0792202222571147
14.246196,2.873103710557399,0.0787874472616533
14.248592,2.888236572797199,0.078411264239636
14.250987999999998,2.90243826947722,0.078050660685882
14.253376,2.9203646283963547,0.077650640171023
14.255756,2.935497490636155,0.0772872135671557
14.258152,2.9446240506367034,0.0770218717969741
14.260536,2.956032250637389,0.0766936700779881
14.262916,2.963855558025823,0.0763913291767998
14.265312,2.972330491720314,0.0761126989264332
14.2677,2.981736590974583,0.0758260324078402
14.270096,2.9903512942959343,0.0755362115144635
14.272491999999998,2.999338084669624,0.0753002604923277
14.274879999999998,3.0096753494836714,0.0750107736473639
14.27726,3.0158686431780253,0.0748044874815413
14.279656,3.0237844983650755,0.0745975300133127
14.28204,3.028906856872792,0.0744170397282062
14.284424,3.0357517768732034,0.0742376329365404
14.28682,3.047951372806809,0.0739469258023041
14.289208,3.05507583206094,0.0737407363003304
14.291603999999998,3.064993787994407,0.0735102232218357
14.294,3.0685333546362865,0.0733226727505999
14.296388,3.0732836260916647,0.0730980369169983
14.298768,3.077614588666462,0.0729169698778813
14.301168,3.079012284935063,0.0727732165968255
14.303556,3.079199276390167,0.0726653990659018
14.305939999999998,3.0863237356442994,0.0724584553797743
14.308344,3.090235389338516,0.072319346795727
14.310732,3.0958696045254293,0.0721797603430753
14.313112,3.0987103230330075,0.0720625924390337
14.315508,3.099688710421029,0.0719607325050282
14.317896,3.103181055234665,0.071866554663928
14.320275999999998,3.1058820041153825,0.0717656142097984
14.32268,3.110585053742517,0.0716382661479084
14.325064,3.1160794993025704,0.071517140328191
14.327443999999998,3.1212944056089027,0.0714251848308124
14.329848,3.1280921037810714,0.0713471862508868
14.334616,3.134982349751857,0.0713470218185686
14.33702,3.1415005086703056,0.0713001645828687
14.339408,3.146156336469197,0.071266701934749
14.341788,3.1542572872534804,0.0712347492529816
14.34418,3.1642205691573224,0.0711911152629739
14.346564,3.1713903543818285,0.0711655527072517
14.348943999999998,3.1836352762858064,0.0710674237734928
14.35134,3.198022068563062,0.0709288666652698
14.353723999999998,3.2134797960269554,0.0707759681038681
14.356104,3.2309396242372665,0.0705963279410047
14.358508,3.248678991701298,0.0703931953415265
14.360896,3.272284891777719,0.0701307095218278
14.363276,3.3017573244665317,0.0698133321830135
14.365667999999998,3.329507195662648,0.0695012106293818
14.368056,3.357257066858763,0.0691890890757502
14.370447999999998,3.382865067681601,0.0689211534647774
14.372844,3.409544003691078,0.0686350038178294
14.375232,3.438364810073832,0.0683174831815823
14.377612,3.46560282459075,0.0679855294960746
14.380016,3.491258047241831,0.0676391496238542
14.382404,3.520126075452828,0.06724124043147
14.384783999999998,3.544570593290411,0.0669311451197799
14.38718,3.574881643740384,0.0665724424465701
14.389563999999998,3.601328262324383,0.0662454496896305
14.391944,3.626843715348605,0.065929159775019
14.394348,3.655292434679022,0.0655806820848732
14.396736,3.6789455565836864,0.0652761405339135
14.399116,3.70380938330185,0.0649497393916539
14.40152,3.722666907780763,0.0646881254406425
14.403904,3.740872805953618,0.0644094278391386
14.406283999999998,3.757867999312974,0.0641613210297654
14.40868,3.7679257248733022,0.0639805833227459
14.411063999999998,3.771325521888321,0.0638434329683765
14.41346,3.773933922970421,0.0636994972947218
14.415856,3.777753028866021,0.0635290612087416
14.418244,3.781851674015341,0.0633368481974412
14.420623999999998,3.78730079360502,0.0631088135979126
14.423016,3.790235955769084,0.0628715761104995
14.425404,3.7991774201723993,0.0625842262184836
14.427784,3.81119192050877,0.0622672563475739
14.430188,3.820273154538945,0.0619729211866618
14.432576,3.83112417189006,0.0616091339582558
14.434955999999998,3.837319361442284,0.0612662920373361
14.43736,3.850871327674116,0.0608432206440778
14.439748,3.862281423532672,0.0604472597710556
14.442128,3.874902224204726,0.0600290254412187
14.444532,3.88766279450364,0.0595993510645899
14.446916,3.902145926295251,0.0591842619873198
14.449296,3.9226353603261126,0.0587231894203798
14.451692,3.9428452551032542,0.05828467672252
14.45408,3.963986315440173,0.0578448853324058
14.456459999999998,3.991413217270064,0.0573402584487718
14.458856,4.02163361577929,0.0568289815590823
14.461239999999998,4.050643309475016,0.0563418105673028
14.463624,4.080584168730521,0.0558599893170708
14.46602,4.106660596120053,0.0553974763002868
14.468403999999998,4.128872591643611,0.0549574910308021
14.4708,4.149734112726811,0.0545517908324423
14.473204,4.16337862675726,0.054215137304504
14.475592,4.172739400041155,0.0539273229491627
14.477972,4.185033439631247,0.0536261809079263
14.480368,4.197699566273673,0.0533667599516098
14.482756,4.209434527356324,0.0531097196109454
14.485136,4.211670841386087,0.052947262897957
14.48754,4.21525762985621,0.0527527305856646
14.489924,4.21991535351297,0.0525490791102605
14.492304,4.2252247034757895,0.0523643494333844
14.4947,4.224667520826218,0.0522072837643434
14.497088,4.222108237430229,0.0520635761056978
14.499467999999998,4.220619889220878,0.051909347889355
14.501864,4.218619684332332,0.0517268787031334
14.504248,4.213266904257008,0.0515869465282958
14.506631999999998,4.207774354554824,0.0514572241468537
14.509036,4.203212970412419,0.051326479703417
14.51142,4.195578550336959,0.0512173586080736
14.513799999999998,4.191529022873751,0.051114616699189
14.516204,4.190924618395936,0.0510285748477536
14.518592,4.1933932498511775,0.0509215898195449
14.520972,4.197863982052835,0.0508030443740383
14.523368,4.208480786120604,0.0506430655523373
14.525756,4.215884784628456,0.0505143905471286
14.528135999999998,4.2235683223900296,0.0503675328794887
14.53054,4.2317637168308,0.050248867095313
14.532928,4.245174017577904,0.0500874205074531
14.535308,4.258304779071287,0.0499460338058222
