Time,Force,Position
14.646676,1.143199395520314,0.1196045472404581
14.649072,1.15935407526064,0.1191038435074975
14.651459999999998,1.1817945964939365,0.1181230559089936
14.65384,1.2002309162343996,0.1174140942424966
14.65624,1.2140114081759708,0.1169644932409314
14.658627999999998,1.2339379719836532,0.1160839169462651
14.661008,1.2560064061646123,0.1150397642188713
14.663403999999998,1.2750018044125164,0.114233791643905
14.665791999999998,1.2958595337799768,0.1133178387189607
14.668172,1.3175086590803555,0.1124279520723537
14.670568,1.3416717418063486,0.1115175566624067
14.672956,1.3669057597189804,0.1105305046503329
14.67534,1.390417216138916,0.1095449576969608
14.677735999999998,1.410576097372075,0.1088872617270768
14.680124,1.4295242737917355,0.1083572619901875
14.682504,1.4494036157711752,0.1077496486387178
14.684903999999998,1.4702141233103927,0.1070720277509255
14.720752,1.57611951283669,0.1067674604692212
14.72314,1.583242076232953,0.1067524501508072
14.725523999999998,1.5915753444427143,0.1066463873264321
14.72792,1.6000483822793363,0.1065093228595501
14.730308,1.611082599369816,0.1061719563206356
14.732691999999998,1.6222565860871558,0.1058032552957057
14.735088,1.6403680406035244,0.1051722593594466
14.737476,1.6569892510526738,0.1046720217543525
14.739859999999998,1.6723997566883246,0.1042267892054703
14.742256,1.6859479312044188,0.1038504960917182
14.744644,1.7042917031462643,0.1033028843033424
14.747027999999998,1.7238461799016094,0.1026868313933487
14.749424,1.737813663298284,0.1022730392794739
14.751812,1.7519209163218197,0.1018382193185503
14.754196,1.771103306024827,0.1011724356166106
14.756592,1.79363827091461,0.100317425441174
14.75898,1.817523710244752,0.0993809753764514
14.761364,1.842619854388393,0.0983976641577647
14.76376,1.86357202741234,0.0975826357373626
14.766144,1.878378128570176,0.0970193043846826
14.768524,1.8923928337950937,0.0964587367055204
14.770928,1.9025431071540384,0.0960418732511201
14.773316,1.9096203445799276,0.0957507962551906
14.775695999999998,1.921493179431568,0.0953214405713687
14.7781,1.9309446046562115,0.0950539612965247
14.780488,1.9433292961870496,0.094699722399442
14.782868,1.9466346495455824,0.0946829795352517
14.785272,1.9543635132775292,0.0944565170411718
14.787656,1.968098679248727,0.094020366205677
14.790036,1.9834166370857609,0.0935874968258146
14.792432,1.994218536750763,0.0932537252298134
14.79482,2.001016234922932,0.0930547103128017
14.797199999999998,2.0095364945877967,0.0928373320659724
14.811528,2.039564214068311,0.0926791426694729
14.813923999999998,2.054043554144184,0.0924347401063522
14.816311999999998,2.067451959033418,0.0922287846596035
14.818708,2.084585026161765,0.0919487150954437
14.821112,2.108003934783083,0.0914478166001677
14.823496,2.125696080418871,0.0911005792229176
14.825876,2.1424570604948814,0.0907651053428223
14.828272,2.1558654653841147,0.090576811587091
14.830656,2.173557611019903,0.0902214637750299
14.84978,2.2436216578551464,0.0900712169481939
14.852164,2.2584730849833563,0.0899109950084158
14.854548,2.267225662073699,0.0898147397485356
14.856944,2.2803545277092123,0.0896724030803027
14.859328,2.2980466733450005,0.0893495556621449
14.861712,2.3050766889426466,0.089278930917555
14.864108,2.3169023019660444,0.089109210690243
14.87844,2.352609562603846,0.0890456958194162
14.880824,2.361082600440468,0.0890051339768281
14.883207999999998,2.365458888985639,0.0889657131793746
14.885604,2.3707663430905885,0.088910225391397
14.887992,2.383802660927485,0.0886927052206737
14.890388,2.3972582876449624,0.0884158074723579
14.892784,2.412716015108856,0.0880910475718822
14.895168,2.436833771864475,0.0875863911977967
14.897552,2.460299902314037,0.0870579153049648
14.899948,2.4756178601510705,0.0867728839978021
14.902336,2.49251860985394,0.0864878364058102
14.907116,2.509651676982288,0.0862839735800334
14.909504,2.520266585192187,0.0861835062925869
14.911884,2.527436370416693,0.0861080858300276
14.91428,2.534326616387479,0.0860693132415596
14.916668,2.5433587327315417,0.0859689785372466
14.919052,2.552018762023267,0.0858051091233406
14.921448,2.561098100195572,0.0855893927137024
14.923836,2.574181639860712,0.0852894660690742
14.92622,2.5890349628467906,0.0848674260724747
14.928624,2.60360874657915,0.0844923764727655
14.931012,2.6186943869907067,0.0841526961761716
14.933392,2.6329886314693454,0.0838091583604492
14.935788,2.641695882589313,0.0835515209472205
14.938176,2.654547104828976,0.0832033313756814
14.94056,2.662462960016026,0.0829466495859705
14.942963999999998,2.663161808150327,0.0828609140909922
14.945348,2.6619983251650714,0.082798958022138
14.947728,2.659763906993177,0.0827668850370629
14.950124,2.6595315895677,0.082692358545488
14.952512,2.6626518473289984,0.0825101856865307
14.954892,2.6709870113966296,0.082198313716517
14.957292,2.6782512402776217,0.081918175543454
14.95968,2.6863068650915323,0.0816462498971006
14.96206,2.693710863599385,0.081350790194236
14.964456,2.696831121360684,0.0811723359296557
14.966844,2.7027448758013173,0.0809576093866581
14.969224,2.7085188606150905,0.0807633691316585
14.97162,2.708938169495672,0.0807126399532168
14.976404,2.707355377629836,0.080701393787454
14.978796,2.7077746865104158,0.0806515287629086
14.981184,2.710335865764274,0.0805476186315175
14.98596,2.7124777361375507,0.0804924080100245
14.988348,2.714759376137688,0.0804221182760955
14.990728,2.7233268576307954,0.0802057420640639
14.993128,2.735619001363017,0.079946633966005
14.995512,2.751403489908874,0.0795759194141007
14.997896,2.768398683268231,0.0791701436665923
15.000292,2.778968265507756,0.0789182468393464
15.002676,2.781808984015334,0.0787828308261864
15.005076,2.788514134388886,0.0785932977715831
15.007471999999998,2.795079515135577,0.0784219596613789
15.009859999999998,2.803367457374965,0.0782472978543924
15.01224,2.816870305920685,0.0779604879321183
15.014636,2.8320957159591016,0.0776766626653511
15.017024,2.8450394859973813,0.0774583112935273
15.019404,2.8619874575284947,0.0771677913361525
15.0218,2.877073097940051,0.0768968097823638
15.024188,2.8890857024185523,0.076681663959536
15.026568,2.90296063801661,0.0764531638507137
15.028964,2.9148334728682506,0.0762638895039744
15.031352,2.92763747327967,0.0760683707295327
15.033736,2.9433747399972847,0.0758257490421586
15.036132,2.9566905970879014,0.0756654721005173
15.03852,2.971868785298075,0.075498100797256
15.040916,2.9862555775753306,0.0753280031637379
15.043311999999998,2.9983607298524486,0.0752223734939951
15.045699999999998,3.007392846196512,0.0751717711949874
15.048084,3.0257838399666004,0.0749466118209548
15.05048,3.0511123015357184,0.0746201728191669
15.052867999999998,3.075789136798779,0.0742893322441984
15.055252,3.096741309822725,0.0739861790886578
15.057648,3.118904187660171,0.073653449945452
15.060035999999998,3.139996130310978,0.0733526693767452
15.062419999999998,3.160576216282588,0.0730271892404701
15.064816,3.184508877440973,0.0726279080155821
15.067203999999998,3.2088608474799387,0.0721980516549863
15.069587999999998,3.233352587145765,0.0717523632525231
15.071992,3.2639903986777017,0.0712122696497177
15.07438,3.289832612783887,0.0707223735567823
15.076759999999998,3.31646622282299,0.0702426821604427
15.07916,3.3384440050632014,0.069793502956884
15.081548,3.359909930624215,0.0693131217999333
15.083927999999998,3.384448892118284,0.0687885578093382
15.086324,3.4001880546937677,0.0683634813517401
15.088712,3.4188604835754464,0.0679172541681912
15.091091999999998,3.437532912457125,0.0674710269846424
15.093492,3.4592783772718594,0.0669845196940304
15.095876,3.4766003317131795,0.0665945910230479
15.098259999999998,3.4929911205947204,0.0662196998628447
15.100656,3.503235837610151,0.065927584179988
15.103044,3.5192073176111123,0.0655927182853351
15.105424,3.533036927238796,0.0652965045649717
15.107828,3.5420709394407286,0.0650372220693567
15.110212,3.550034016456022,0.0647995184541812
15.112592,3.5550638271651205,0.064589589109607
15.114988,3.5590227026875803,0.0643991923000373
15.117375999999998,3.5668460100760138,0.0641818158432837
15.119756,3.571736051158252,0.063991330471423
15.12216,3.58249262485288,0.0637553044319002
15.124548,3.593668507428089,0.0634867829162171
15.126927999999998,3.6095002178021898,0.0631983422936634
15.129324,3.627194259295847,0.0629067922409532
15.131711999999998,3.646099005603003,0.062595871126937
15.134095999999998,3.6710100541494097,0.0622279286948053
15.136492,3.6892631741505073,0.0618992192884152
15.138875999999998,3.706585128591827,0.0615729134652248
15.14126,3.7199028815403135,0.0612842157822479
15.143651999999998,3.735362504862077,0.0609677390756247
15.14604,3.748540488183703,0.0606942549155255
15.14842,3.762789406691968,0.0604013907986983
15.150828,3.7742448285208967,0.0601218075064428
15.153211999999998,3.7867711855364647,0.0598289228500533
15.155596,3.801951269604507,0.0595347689163647
15.157991999999998,3.8136390088589134,0.0593066474452732
15.160379999999998,3.8270493096060174,0.059083997410326
15.16276,3.837246804793205,0.0589054455633599
15.165155999999998,3.845302429607115,0.058758728306755
15.167543999999998,3.856291320727221,0.0585940314567287
15.169924,3.861413679234936,0.0584706799329136
15.172323999999998,3.8671876640487097,0.0583685696434963
15.174708,3.872310022556425,0.0582483708099267
15.186664,3.862393962480827,0.0581795820287757
15.189051999999998,3.866258394346801,0.0581591597333755
15.191432,3.868400264720079,0.0581330056370166
15.193827999999998,3.8720323791605744,0.0580618381936701
15.196215999999998,3.878737529534126,0.0579626479104929
15.198612,3.886234075840596,0.0578725269110422
15.201004,3.89065758621401,0.0578101418436132
15.203392,3.898433671774201,0.0576996672963753
15.205775999999998,3.9077000014016097,0.0575425681233037
15.208168,3.9151039999094617,0.0573898098678732
15.210556,3.9254412647235095,0.0572189650461652
15.212939999999998,3.931914097671584,0.0570667140924516
15.215344,3.932520398007268,0.0569497478017448
15.217728,3.9360599646491465,0.0568151893892478
15.220112,3.936666264984831,0.0566983407591811
15.222508,3.939134896440071,0.0565788635701986
15.224896,3.940532592708673,0.056471195717957
15.227275999999998,3.94034749711144,0.0563447991036334
15.229676,3.9424440415143422,0.0561815780117
15.232064,3.947893161104022,0.055970539014032
15.234443999999998,3.9502692447606456,0.0557869936401763
15.23684,3.948920666178157,0.0556122537407535
15.239228,3.947292548341946,0.0554589900192753
15.241611999999998,3.94231185531896,0.0553537141266593
15.244008,3.937843018975172,0.0552791779526409
15.246396,3.928858124459352,0.0552021475230023
15.248779999999998,3.924296740316947,0.0550643207017414
15.251176,3.917453716174404,0.0549623153590354
15.253564,3.912473023151418,0.0548569800163327
15.255947999999998,3.9116363012481257,0.0547146688930615
15.258344,3.910147953038776,0.054553253873953
15.260732,3.914805676695536,0.0543421898965192
15.263111999999998,3.924398767404909,0.0541036071497665
15.265508,3.933060692554504,0.0538675329810033
15.267896,3.943864488077376,0.0536088786320876
15.270292,3.949732916547636,0.0533780444777312
15.272688,3.960676481697367,0.0531114319565268
15.275076,3.980699385019405,0.0527883072305327
15.27746,3.996578317221749,0.0524990762797107
15.279856,4.006311177557982,0.0522574639837292
15.282244,4.019768700133328,0.0520121100085657
15.284624,4.033086453081814,0.0517762702023053
15.287028,4.048685846030438,0.0515104790860999
15.289416,4.068429210098755,0.0512111529988576
15.291796,4.086729551928097,0.0508850127847927
15.294195999999998,4.108475016742831,0.0505728774442685
15.29658,4.127799071930569,0.0503071039274789
15.298964,4.146471500812247,0.0500234975461136
15.30136,4.164492303387868,0.0497231909682152
15.303744,4.178508904470656,0.0494483940383461
15.306128,4.1891729303666665,0.0492133749926855
15.308524,4.195832754769845,0.049002222566745
15.310912,4.196346507306911,0.0488323235947105
15.313296,4.197000029470838,0.0486526225262014
15.315692,4.191647249395514,0.0485031330954367
15.31808,4.187365404506829,0.0483421503872784
15.32046,4.178148192565533,0.0482025475300824
15.32286,4.160643038384848,0.0481241565559075
15.325248,4.146210920137219,0.0480248391700604
15.327628,4.135922773009282,0.0478941753328912
15.330024,4.126985100321706,0.0477344469201179
15.332412,4.118838823567048,0.0475845207309988
15.334796,4.106408806065836,0.0474741307480663
