Time,Force,Position
14.132108,1.7148222015889394,0.1056863730459458
14.134504,1.723807096104759,0.1056191443816443
14.136892,1.7340026954340777,0.1054584495814314
14.14406,1.754626211518191,0.1052487231121849
14.146439999999998,1.765752976407288,0.105061201143852
14.148836,1.7800925468563005,0.1047172039364538
14.151228,1.7935009517455345,0.1044009694453356
14.153607999999998,1.8030449247687947,0.1042285363196025
14.156004,1.814311459284752,0.104030612244003
14.158392,1.826928468241068,0.1037160838821732
14.160775999999998,1.838614311637605,0.103433184942268
14.163172,1.849928067981805,0.1030718858608439
14.16556,1.860962285072285,0.1027699198976556
14.167944,1.8713448758567064,0.1024298978205866
14.170347999999995,1.8806565314544896,0.1021250941950523
14.172735999999995,1.8851725896265208,0.1020039509397889
14.17512,1.888617712611914,0.1019427269094593
14.187071999999995,1.9068198190690304,0.1018862141359487
14.189455999999996,1.9162240224654308,0.1017523349197847
14.191855999999998,1.92683893067533,0.1015413753643275
14.194243999999998,1.9365226733254504,0.1013696952997564
14.196623999999996,1.943924775975434,0.1013255004577007
14.199023999999998,1.952537583438916,0.1012117361530371
14.201411999999998,1.9654341316489523,0.1009186836370486
14.203795999999995,1.9787499887395692,0.1005691604589078
14.206195999999998,1.9951388817632416,0.1001229982941712
14.208583999999998,2.0133901059064705,0.0996421317751087
14.210963999999995,2.0335036611692563,0.099132466452421
14.213368,2.052686050872264,0.0986426056253761
14.215756,2.0775952035608007,0.0980197921233248
14.218135999999998,2.109441824048367,0.097188886046104
14.220532,2.1423593797225715,0.0963039736013871
14.222919999999998,2.174206000210138,0.0954655433884763
14.225299999999995,2.205261224764786,0.0946361369141797
14.227704,2.2378066933866534,0.0936902829928276
14.230088,2.270631701262241,0.0926849093663039
14.232471999999998,2.300663212458494,0.0917850252013725
14.234863999999998,2.3297635580949687,0.0909239664273501
14.237251999999998,2.3548597022386097,0.0901937508722653
14.239631999999997,2.3799558463822503,0.0894736101384506
14.242027999999998,2.402910120152614,0.0888411541277876
14.244415999999998,2.426143933176698,0.0881764220253541
14.246796,2.449237976573922,0.0875431430216723
14.249199999999998,2.4716331718368445,0.0870350368488846
14.251587999999998,2.489093000047155,0.086648707895477
14.253967999999997,2.5034797923244105,0.0863590179286653
14.256363999999998,2.515073087922331,0.0861176918133109
14.258751999999998,2.523593347587196,0.0859619037471528
14.261131999999996,2.5343952472521982,0.0857225984106734
14.263535999999998,2.5404015494914494,0.0855800603539364
14.265923999999998,2.5426831894915862,0.0854976167691499
14.268303999999995,2.5431024983721677,0.0854425036012832
14.270699999999998,2.5428701809466903,0.085364466752194
14.273087999999998,2.544500194640769,0.0852593472342063
14.275467999999996,2.5507860361337404,0.0850918529503299
14.277872,2.5586546694925474,0.0849338173811743
14.280259999999998,2.5645212021049377,0.0848202613674696
14.282639999999995,2.5706672739710488,0.0846737695643332
14.285044,2.57709288509088,0.0844900783568828
14.287432,2.58472920102421,0.0842628221934933
14.289811999999998,2.590642955464844,0.0840403344715981
14.292208,2.595765313972559,0.0838153550093224
14.294596,2.5970232406143,0.0836560955724342
14.296975999999995,2.592973713151093,0.0835376363050495
14.299371999999998,2.5947907183002754,0.0833075889883861
14.301759999999998,2.594745392329901,0.0831013359189637
14.304139999999997,2.596562397479084,0.0828694405800632
14.306535999999998,2.6015922081881824,0.0825474165258444
14.308923999999998,2.604759687777724,0.082254694377581
14.311304,2.608066936994126,0.0819422798614615
14.313707999999998,2.6153783877033616,0.0815548615842431
14.316095999999998,2.626554270278571,0.08110387701137
14.318475999999997,2.638661318413559,0.0806410219409704
14.320871999999998,2.648626496175269,0.0802400437182185
14.323255999999995,2.6516542061379504,0.0799744590725878
14.325639999999996,2.6552409946080724,0.0796443882190906
14.328043999999998,2.657756847891556,0.0793381647452554
14.330431999999998,2.661064097107958,0.0790424265558285
14.332811999999995,2.6691669437501115,0.0786829326182633
14.335212,2.67433652408607,0.0783736859014488
14.337595999999998,2.6833705362880016,0.0780083365499847
14.339979999999995,2.688912203676298,0.077751486749121
14.342375999999998,2.699529007744067,0.07739240019993
14.344763999999998,2.71293930849117,0.076996514523292
14.347147999999995,2.722205638118579,0.0766971525668634
14.349543999999998,2.7362675651717403,0.07633203583433
14.351931999999998,2.750469261851761,0.0759549694200267
14.354311999999997,2.7645311889049227,0.0756043235857687
14.356707999999998,2.7781738070775037,0.075303335053627
14.359095999999996,2.790326181182865,0.0750714373903021
14.361479999999997,2.7963324834221157,0.074965814168138
14.363875999999998,2.801407620101588,0.0748718462032703
14.366263999999996,2.8062032175273397,0.0748099165451458
14.368647999999997,2.8091364838335338,0.0747654857393006
14.371043999999998,2.815003016445924,0.0746757032206021
14.373431999999998,2.821241636110652,0.07464308023689
14.385375999999995,2.8569035707780794,0.0745589110197255
14.387759999999997,2.8688689534283376,0.0744638123698832
14.390155999999998,2.87762153051868,0.0744413983845064
14.39256,2.890378309101856,0.0743585433384615
14.404491999999998,2.928134892314317,0.0743493142508758
14.406888,2.938517483098739,0.0742465861392222
14.409275999999998,2.951833340189356,0.0741032688994649
14.411655999999995,2.9639384924664745,0.0739988761432022
14.414051999999998,2.978185515116869,0.0738500024547945
14.416439999999998,2.9985786096333755,0.073598144393568
14.418823999999995,3.02018240896338,0.0733153961873938
14.421228,3.0391324812409097,0.0730411445507467
14.423612,3.057151387958661,0.0727826167215801
14.425991999999995,3.0773121650496904,0.072480763954095
14.428396,3.0946794454613835,0.0721976778243046
14.430784,3.1139090569926338,0.0719024299497623
14.433163999999998,3.128854927777331,0.0716937880179877
14.435564,3.1410073018826923,0.0715107669288782
14.437952,3.1591659782273043,0.0712484824739368
14.440331999999998,3.169595790839969,0.0710701030031229
14.442728,3.177092337146439,0.0709260298761378
14.445116,3.190734955319019,0.0706858981164368
14.447495999999996,3.2073108397977945,0.0704070981207829
14.449896,3.2257490553961268,0.0701143244764707
14.452279999999998,3.242045400621182,0.0698636400953387
14.454663999999998,3.2552687099131816,0.0696688737129757
14.457059999999998,3.268631788832041,0.0694627400093716
14.459447999999998,3.282414176631482,0.0692162698588413
14.461827999999995,3.296336334057783,0.0689622412761116
14.464223999999998,3.30625428999125,0.0687645859082103
14.466611999999998,3.3141701451783008,0.0685941863602407
14.468995999999995,3.324227870738629,0.0683872403768955
14.471391999999998,3.334425365925816,0.0681717257688968
14.473779999999998,3.342480990739727,0.0679926836770871
14.476176,3.3548203563001917,0.0677418035391666
14.478572,3.365157621114239,0.0675154276094974
14.48096,3.38084956186148,0.0672003739709621
14.483339999999998,3.397612437795359,0.066870735262317
14.485736,3.4075776155570696,0.066605521412897
14.488124,3.422198621117672,0.0663128424924428
14.490507999999998,3.4413829066785477,0.0659298393517308
14.492904,3.4585650914930066,0.065576193503474
14.495292,3.47961170817344,0.0651976149395169
14.497671999999998,3.498656224107456,0.0648395486897621
14.500075999999996,3.522915646347805,0.0644156950957973
14.502464,3.547175068588153,0.0639966264907127
14.504848,3.571574260455362,0.0635711948906682
14.507243999999996,3.5984874097481865,0.063163441669634
14.509631999999996,3.6221877534810942,0.0628057293083373
14.512016,3.643746226840725,0.0624775478774158
14.514411999999997,3.6620918946404406,0.0621935662918509
14.516799999999996,3.681089188746214,0.0619336715449174
14.519184,3.697013446918932,0.0617113048150225
14.521579999999997,3.717221445838203,0.0614295480279537
14.523967999999996,3.73421663919756,0.0611970120185307
14.526348,3.74962904069108,0.0609467478763334
14.528744,3.761828636624685,0.0607459867958596
14.531132,3.771886362185012,0.0605762099130815
14.533516,3.784737584424674,0.0603955912162438
14.535912,3.7977285762911968,0.060205016871444
14.538296,3.806947684090363,0.0601074852031507
14.540679999999998,3.816306561516389,0.0600001789757894
14.543076,3.822220315957023,0.0598847576738174
14.545464,3.83241781114421,0.0597144984295773
14.547843999999998,3.836609004092147,0.059595826279802
14.550247999999996,3.839869031480305,0.0594804476240636
14.552636,3.8417785844281056,0.0594010328841075
14.555015999999998,3.840103244763652,0.0593214106101574
14.557412,3.840709545099336,0.0592040117126921
14.5598,3.8443888813680753,0.0590568396144627
14.562179999999998,3.856356159876202,0.0588256823708028
14.564583999999996,3.861805279465881,0.0586102760690371
14.566972,3.86725439905556,0.0583937564020797
14.569352,3.8664176771522687,0.0582474085770105
14.571755999999995,3.867583055995393,0.058085178736578
14.574143999999997,3.8734042626374094,0.0579114973026152
14.576524,3.8772233685330098,0.0577525947584627
14.578927999999998,3.881973639988388,0.0575908111487528
14.581315999999998,3.887003450697486,0.0574083385142831
14.583696,3.8943149014067218,0.0571918739576951
14.586091999999995,3.902045660996538,0.0569426578108794
14.588479999999995,3.908705485399716,0.0567079220298859
14.59086,3.914806231295452,0.0565167470378758
14.593255999999997,3.918904876444772,0.0563431319345146
14.595643999999997,3.9280786582735647,0.0561294957433302
14.598024,3.937252440102356,0.0559164970862798
14.600423999999997,3.947916465998368,0.0556608459003912
14.602808,3.958580491894379,0.0554046483743305
14.605192,3.971106848909947,0.0551492808285345
14.607588,3.985635306671932,0.0548843585766727
14.609976,3.994157462194666,0.0546629281689798
14.612355999999998,4.012270812568904,0.0544086828864017
14.614755999999996,4.033457198876198,0.0541320176334995
14.61714,4.060929426676462,0.0537975216071689
14.619519999999998,4.086259784103449,0.0534859335532314
14.62192,4.109076184104821,0.0531629564184093
14.624304,4.137247260039388,0.0527870807049025
14.6267,4.168631141533869,0.0523832887190312
14.629095999999995,4.199083857468572,0.0519849363241025
14.631483999999997,4.224181897470081,0.0516437110620931
14.633864,4.246486440792257,0.0513039449686937
14.636259999999996,4.266788883368014,0.0509747370980329
14.638647999999996,4.287650404451214,0.0506070999150718
14.641028,4.304507724041579,0.0502616919529864
14.643424,4.313216871019417,0.0499702952892694
14.645812,4.321786248370395,0.0496891433189605
