Time,Force,Position
15.159019999999998,0.9941775261110408,0.1123954533223683
15.161407999999998,1.0139624244339938,0.1122359732313076
15.163791999999995,1.0337473227569465,0.1120391232069397
15.166187999999998,1.049155932534728,0.1120382891398888
15.173355999999998,1.0860247802999154,0.1120241270343202
15.175743999999998,1.1059041222793546,0.1113098906389743
15.178124,1.127925334632071,0.1103123873982249
15.180519999999998,1.1478046766115098,0.1095937980130018
15.182907999999998,1.1668454008297875,0.109145282673809
15.185288,1.18853985210054,0.1086134334304938
15.190071999999995,1.2251763824402506,0.1084698695021803
15.192467999999998,1.2429591800167867,0.108455670825666
15.194864,1.263395704645797,0.108359106413535
15.197252,1.288115970021362,0.1079447412432384
15.199631999999998,1.3123243787177292,0.1074446041224552
15.202028,1.33494999554826,0.1069646743465079
15.204415999999998,1.3510574534603426,0.1068023444637903
15.206799999999998,1.3654423498797288,0.1066847716172481
15.209196,1.3771735192466403,0.1066624581595649
15.211583999999998,1.391186328613689,0.1064589214213263
15.213963999999995,1.4078528650332125,0.1061743034848275
15.216359999999998,1.4261021933185722,0.1058956316041546
15.218747999999998,1.4471450182832668,0.1054974320633982
15.221128,1.4715404184347372,0.1048710245421224
15.223523999999998,1.4916520778396536,0.1045976086096771
15.225911999999996,1.514836773177625,0.1041816442465224
15.228296,1.5322947055300669,0.1039585891567595
15.230691999999998,1.5511031123228674,0.1035971722402106
15.233075999999995,1.5691201231827494,0.1032639568204209
15.235475999999998,1.5878359821769328,0.1027467156175927
15.237872,1.6021755526259456,0.1023292488964852
15.24026,1.6163753534480976,0.1019403392450542
15.249807999999998,1.6425386410626386,0.1016883150510903
15.252212,1.6516633052053182,0.1015704667452484
15.2546,1.664931940467692,0.1012475489289652
15.25698,1.6780608061032056,0.1009520659797626
15.273712,1.7057596637553394,0.1009004674435804
15.28088,1.712882227151602,0.1009002930431877
15.283268,1.7180499116296917,0.1008246371755716
15.285647999999998,1.728292732787253,0.1005421722516367
15.288044,1.739606489131453,0.1002084707252376
15.290432,1.7523632677146288,0.0999010411594594
15.292811999999998,1.7676812255516627,0.0993848518310862
15.295208,1.7783433555898052,0.0990093390619535
15.297596,1.7922182911878626,0.0984731089069051
15.299975999999996,1.805301830853002,0.0979531979760296
15.302371999999998,1.8085146364129177,0.0977946119695628
15.304759999999998,1.8098651108532768,0.0976861074995616
15.307143999999996,1.8141488515998312,0.0974788998765799
15.309539999999998,1.818153053092665,0.0973216676383181
15.311927999999998,1.8241593553319155,0.0970908527385025
15.314308,1.8269528520112504,0.0970137532060435
15.316707999999998,1.835752650929836,0.0966917104404929
15.319095999999998,1.845995472087398,0.0963887612010607
15.321479999999998,1.8560985236180991,0.0961209774662196
15.323875999999998,1.859543646603492,0.0960708423495586
15.326263999999998,1.8663413447756605,0.0958396325235662
15.338212,1.8656897184696024,0.0957955048371044
15.340599999999998,1.8661090273501832,0.0957216257821519
15.342979999999995,1.8703927680967372,0.0955355127360879
15.419459999999996,2.001906158445873,0.0954236764566408
15.42184,2.0144759455739454,0.0953677246463314
15.424239999999998,2.0301187686350737,0.095214639161945
15.426624,2.045249735017004,0.0950147806020495
15.429008,2.0608000102795145,0.0947443150736987
15.4314,2.0797028607288017,0.0943333786089406
15.433788,2.094089653006057,0.0939945989654609
15.436168,2.108895754163893,0.0935890140319652
15.438564,2.1279855960682834,0.0930214666013472
15.440952,2.1521505746521465,0.0922954696778933
15.443336,2.17496507879565,0.0916561560687579
15.445732,2.2007128492453485,0.0909505964757302
15.44812,2.22976597305358,0.0902131739064409
15.450516,2.2586793272349515,0.089522883971765
15.452911999999998,2.2895947821627387,0.0887581333473278
15.455299999999998,2.321860711530885,0.0879310082336426
15.45768,2.3493310434732804,0.0872475037620267
15.460075999999995,2.3737283394826205,0.0866839144377906
15.462463999999995,2.4001277362383773,0.0860863983718254
15.464844,2.425735737061216,0.0854834916287651
15.46724,2.4482707019509986,0.0849962874925342
15.469628,2.469083105348085,0.0845372568350974
15.472012,2.489755739118311,0.0841098427888662
15.474415999999998,2.512011164754374,0.0836974887654746
15.476803999999998,2.537199856696632,0.0832374796204142
15.479184,2.559315512705834,0.08285893403378
15.481588,2.58529560058101,0.0824130116700547
15.483971999999998,2.6131380195757425,0.08195177289677
15.486355999999995,2.63776763301056,0.0815858184552938
15.48876,2.662537016072237,0.0812223443595841
15.491148,2.69079874394755,0.0807484696635233
15.493527999999998,2.71547557921061,0.0803099056352615
15.495924,2.742853363354388,0.0797598278821639
15.498312,2.769439751565248,0.0792145601395846
15.500691999999995,2.796957305335886,0.0786615567880946
15.503087999999998,2.823264154293025,0.0781632974456788
15.505475999999998,2.850502168809943,0.0776574875553063
15.507856,2.8738757514608877,0.0772018867082617
15.510251999999998,2.8932451326189974,0.076823233808154
15.512639999999998,2.916199406389362,0.0764261876148848
15.515024,2.937431118667029,0.0760383169422526
15.517419999999998,2.9542393205712822,0.0757636353167772
15.519803999999995,2.9691851913559786,0.0755110762903031
15.522188,2.982548270274839,0.075248836515271
15.524583999999995,2.989905046954448,0.0750894027136445
15.526971999999995,3.0009864858731707,0.0748941160155495
15.529352,3.0111367592321154,0.0747121434644446
15.531751999999996,3.02142680221792,0.0745204160111666
15.534139999999995,3.035581277069698,0.0742803191527663
15.53652,3.045731550428642,0.074107557894214
15.538916,3.0536001837874496,0.0739995799271928
15.541304,3.066264414572009,0.0738411589799849
15.543684,3.0755760701697925,0.0737660171147863
15.546084,3.083677020954077,0.0737271888381534
15.548472,3.0948510076714166,0.0736411910557678
15.550867999999998,3.1041626632692,0.0735695533153776
15.553264,3.1126829229340656,0.0734919706190517
15.555651999999998,3.126138549651542,0.0733503622432092
15.558031999999995,3.1418758163691565,0.073153309784662
15.560427999999998,3.1561700608477947,0.0729346694215629
15.562815999999998,3.1684622045800164,0.0727424145300758
15.565199999999995,3.185177858685652,0.0724502516501561
15.567595999999998,3.198820476858232,0.0722025056153823
15.569988,3.213394260590591,0.0719501238334744
15.572367999999996,3.233043181002422,0.0716175791238736
15.574763999999998,3.252971640667974,0.0712678019771116
15.577151999999998,3.2679647332809134,0.0709765843181323
15.579532,3.2766719844008816,0.0707946427848865
15.581927999999998,3.283005047722096,0.070595210704897
15.584315999999998,3.288267175856672,0.0704141425355501
15.586696,3.2916669728716905,0.0702469699614398
15.589095999999998,3.2901314028340973,0.0701431203710612
15.591479999999995,3.288875372050225,0.070011710200629
15.593864,3.2880386501469325,0.0698389988638168
15.596259999999996,3.2813353956312503,0.0697337295477583
15.598647999999995,3.2767740114888446,0.0695878562827044
15.601043999999998,3.27221262734644,0.0694417243845203
15.60344,3.2657889120844774,0.0693083694150515
15.605828,3.258294261635877,0.0691941104053449
15.608211999999998,3.2465158704407227,0.0691570196248312
15.610608,3.2376707455517626,0.0690879896580145
15.612991999999998,3.229477246968861,0.0690393303273369
15.615375999999998,3.226638424319153,0.0688942382926621
15.617772,3.223799601669444,0.0687497622855066
15.620159999999998,3.2192382175270384,0.0686036418022615
15.622539999999995,3.2078791352124654,0.0685214316647142
15.624935999999998,3.204528455883558,0.0683427727686902
15.627323999999998,3.2106764236075387,0.0680120392202862
15.629704,3.216265312824078,0.0677344881193578
15.632103999999998,3.2258584035334508,0.0674098119470008
15.634491999999998,3.2375933646161004,0.0670496237665668
15.636872,3.2491885560718905,0.0666996020385434
15.639267999999998,3.26064397790082,0.0663633693278138
15.641655999999998,3.272890795662667,0.0660380602120851
15.64404,3.289141814917348,0.0656676622022866
15.646435999999998,3.3052530645451688,0.065315172892485
15.648823999999998,3.323226645292547,0.0649571177195856
15.651208,3.343062557159481,0.0645939043579709
15.653603999999998,3.362758699399555,0.0642443969317296
15.655991999999998,3.386319273505604,0.0638597299590719
15.658372,3.406806811678596,0.0635137945990157
15.660788,3.427573889105308,0.0631490816230429
15.663176,3.44820119690516,0.0628065091586675
15.665556,3.468828504705013,0.0624680493829448
15.667952,3.491178373997562,0.0621388472869947
15.670336,3.5183238407158623,0.0617743026347515
15.672719999999998,3.5442586026206646,0.06145121996981
15.675116,3.563488214151915,0.0612524822989372
15.677504,3.584999465683303,0.0610130158405295
15.679887999999998,3.602646285348717,0.0608001749495308
15.682284,3.6190824002006328,0.0606165046396318
15.684672,3.637008759119767,0.060382545253886
15.687051999999998,3.65600605322554,0.0601348890866715
15.689452,3.673001246584896,0.0599063092931255
15.69184,3.689065274384474,0.0596855450642457
15.694219999999998,3.703127201437635,0.0594831394837471
15.696616,3.7133246966248223,0.0593048873189997
15.699004,3.719657759946037,0.0591504538186957
15.701387999999998,3.727992924013668,0.0589798226060015
15.703784,3.73525715289466,0.0588238218264706
15.706172,3.7475965184551256,0.0586196780310908
15.708551999999996,3.755931682522757,0.0584506880512663
15.710952,3.7630561417768895,0.0583092822971312
15.71334,3.766176399538188,0.058200802881378
15.715719999999996,3.7643612902468746,0.0581285556832203
15.71812,3.7642687424482575,0.0580630505335132
15.720508,3.760171993156807,0.0580308685192355
15.722887999999998,3.7586364231192135,0.0579370099817632
15.725288,3.754958982708343,0.0578711248742513
15.727676,3.757008305283003,0.0577793021917581
15.730059999999998,3.759057627857663,0.0576874795092648
15.732456,3.762410203044439,0.0576358619628824
15.734839999999998,3.7656230086043534,0.0575956832679547
15.737223999999998,3.769627210097188,0.0575639411415293
15.739628,3.775214203455858,0.0575501297060225
15.742012,3.784665628680501,0.0575167087961079
15.744395999999998,3.79691055058448,0.0574763419393936
15.7468,3.8160929402874864,0.0573899102346225
15.749188,3.832342063684299,0.0573215481528938
15.751568,3.8520835318947473,0.0571957806030986
15.753964,3.868751964172141,0.0570994044475958
15.756352,3.888213893128868,0.056996833238214
15.758731999999998,3.905022095033121,0.0568896825336902
15.761128,3.927696829549765,0.056749511172766
15.763516,3.9563778663056586,0.0565663018546496
15.765899999999998,3.983755650449436,0.0563501458839922
15.768296,4.012204369779852,0.0561201112027817
15.770684,4.03958215392363,0.055905545754057
15.773063999999998,4.069241578067546,0.0556597977472274
15.77546,4.095176339972348,0.055424969326836
15.777848,4.122321806690649,0.0551700903265813
15.780231999999998,4.148955416729751,0.0548888845727492
15.782628,4.177870666768992,0.0545796099682941
15.785016,4.210278261621868,0.0542207941337374
15.787412,4.23896119423563,0.0538692738277491
15.789807999999995,4.264990399796919,0.0535166418639016
15.792195999999995,4.288226108678873,0.0531669597987473
15.794576,4.304384580134937,0.0528685834881229
15.796972,4.319472116404363,0.0525786927639016
15.79936,4.332278012673651,0.0523250536547569
15.801744,4.347225779316217,0.0520519274284434
15.80414,4.365386351518699,0.0517516385709926
15.806528,4.388202751520071,0.0514484881991424
15.808908,4.408365424468968,0.0511422233265842
15.811304,4.425594831111671,0.0508512369656295
15.813692,4.440263058500515,0.0506097771786067
15.816076,4.455210825143082,0.050350403249535
15.818472,4.468016721412369,0.0501099370931357
15.82086,4.479472143241299,0.0499005423502069
15.823239999999998,4.48999639951045,0.0496918329572534
15.825636,4.496516454286768,0.0495034004047076
15.828024,4.501825804249586,0.0493347965180318
15.83042,4.501128851973156,0.0491967513848355
15.832815999999998,4.495077223763531,0.0491068066786611
15.835203999999996,4.490236300367405,0.0489977196933461
15.837584,4.484184672157782,0.048907012866916
15.839979999999995,4.483347950254489,0.0487784981092304
15.842368,4.484792868351335,0.0486214560459007
15.844748,4.493454793500929,0.0484191694730837
