Time,Force,Position
16.234128,1.1205238030513125,0.1046856777661404
16.324931999999997,1.4183625255086345,0.1046242099574632
16.327312,1.4240892884941645,0.1044132135098641
16.329707999999997,1.433680483345668,0.1040349540567188
16.332096,1.448346814876644,0.1034039865233891
16.334476000000002,1.465946412713815,0.1026563641644922
16.336872,1.4801934353642103,0.102136596188078
16.339259999999996,1.492438357268189,0.1016968447826075
16.341639999999998,1.5041714224929696,0.1012070928490201
16.344036000000003,1.5160442573446105,0.1006997833270548
16.346424,1.530058962569528,0.1000708407797695
16.348808,1.5410006318613907,0.0995983469395391
16.351204000000003,1.5551551067131686,0.0989484364019427
16.353592,1.5711719126845036,0.0982312882292295
16.355987999999996,1.595988517574424,0.0971232796863217
16.358384,1.619873956904566,0.0960590641252303
16.360771999999997,1.6433400873541273,0.0951440459735862
16.363155999999996,1.6665266785499682,0.0942992186743724
16.365552,1.6857090682529758,0.0936293185426517
16.367939999999997,1.707684954635318,0.0928814987643836
16.37032,1.7300801498982408,0.0920318378196259
16.372715999999997,1.7435357766157178,0.0915729285755475
16.375104,1.754849532959918,0.0912557852246203
16.377488,1.7695158644908937,0.09078285702603
16.379883999999997,1.782971491208371,0.0904050148630994
16.382272,1.7925626860598745,0.090141140500883
16.384656,1.806577391284792,0.089672137544681
16.387051999999997,1.8284607298685176,0.0889824289373348
16.38944,1.8494129028924644,0.088325589564349
16.391816,1.871016702222469,0.0877146268092859
16.394211999999996,1.891270027112115,0.0871985202532234
16.3966,1.9147361575616764,0.0865593724901503
16.398995999999997,1.9369915831977391,0.0860028589564918
16.401387999999997,1.9576642169679652,0.085435522487986
16.403776,1.97340148368558,0.0850178710218836
16.406155999999996,1.9899301463361123,0.084607124210461
16.40856,2.0053878738000064,0.0842443846154348
16.410947999999998,2.02070583163704,0.0839026301743175
16.413323999999996,2.039748451713187,0.0834864077164374
16.41572,2.054926639923361,0.0831617666479358
16.418107999999997,2.073410181492067,0.0828442507414857
16.420488,2.1000418956733005,0.0822843661290703
16.422891999999997,2.1233210346677587,0.0818656410344702
16.44916,2.233842613596181,0.0816061696622618
16.45156,2.24417798255236,0.0815660158022138
16.453944,2.256003595575758,0.0814371245181226
16.456324000000002,2.264104546360042,0.0813571729011128
16.458723999999997,2.2754183027042423,0.0811816485136074
16.461107999999996,2.283286936063049,0.081018391753307
16.463507999999997,2.296230706101329,0.0807333519214515
16.465904000000002,2.3075916842737723,0.080441737020372
16.468288,2.310804489833688,0.0803479142427989
16.470672,2.31736987058038,0.0801407748752405
16.473067999999998,2.320722445767155,0.0800247398389083
16.475451999999997,2.3251459561405694,0.0798751973963623
16.477835999999996,2.333573668006818,0.0796375589264157
16.480232,2.342932545432844,0.079383759118162
16.482619999999997,2.35229142285887,0.0791249104198687
16.518456,2.352338644687113,0.0789605612334858
16.52084,2.3539686583811927,0.0788542457402288
16.523235999999997,2.3577405424485494,0.0786893450418549
16.525624,2.357508225023072,0.0786074267965662
16.528019999999998,2.359557547597732,0.0784493086784641
16.530416000000002,2.364819675732308,0.0782051767410621
16.532804,2.373434379053659,0.0778555437845082
16.535184,2.3797674423748734,0.0775817043972287
16.53758,2.3971819446148097,0.0770893778090504
16.539968000000002,2.414084590175549,0.0765571941799221
16.542352,2.4276346605495123,0.0761373736351598
16.544748,2.4423954357369744,0.0756669574265371
16.547136000000002,2.459018542043993,0.0751790507659543
16.549515999999997,2.4765728139107903,0.0746700723334534
16.551920000000003,2.493056150590949,0.0742063118958959
16.554304000000002,2.512612523204163,0.0736799698531265
16.556683999999997,2.5325409828697145,0.0732139251919661
16.55908,2.5518178162292084,0.0727281325648742
16.561467999999998,2.5681613832825065,0.0722880509735127
16.563848,2.587438216642,0.0717971902678428
16.566248,2.606435510747773,0.0713449584713112
16.568632,2.622592086345968,0.0710403864911847
16.571016,2.635535856384247,0.0708184518431743
16.573411999999998,2.6527633671690807,0.0704964498770273
16.575795999999997,2.66598667646108,0.0702466279845816
16.578192,2.6778595113127217,0.0700610750472633
16.580588,2.6891732676569213,0.0699463447430213
16.587756,2.708727744412266,0.0697753432160671
16.590144000000002,2.71231263702452,0.0697610274519095
16.59252,2.716177068890493,0.0697144173523766
16.594920000000002,2.720972666316245,0.0696618243124633
16.597304,2.7300520044885506,0.0695180173170283
16.599688,2.735127141168024,0.0694346269425222
16.602083999999998,2.73712924191444,0.0694046355733205
16.604472,2.7409011259817966,0.0692735320059969
16.606868,2.744113931541712,0.0692055517645114
16.609263999999996,2.751051399340741,0.0691100008609975
16.611652,2.761201672699685,0.0689521588350419
16.614032,2.7713519460586293,0.0687943168090863
16.616428,2.7831322331116537,0.0685528035336632
16.618816000000002,2.7982650953514536,0.068232985135322
16.621195999999998,2.809905612777617,0.068013085359026
16.623596,2.824339626883116,0.0677733161156578
16.62598,2.839332719496056,0.0674769533333164
16.628363999999998,2.853534416176076,0.0671720050335642
16.630760000000002,2.868527508789016,0.0668806663261064
16.633148,2.8875248028947884,0.0665323486536966
16.635528,2.9121090903592317,0.066153943912054
16.637923999999998,2.93976641375673,0.0657430743522172
16.640312,2.968075363460286,0.0653606062599573
16.642696,2.996384313163843,0.0649878874577911
16.6451,3.021620226934344,0.0646692810828659
16.647488000000003,3.053933378130734,0.0642671253391226
16.649867999999998,3.086386298953984,0.0638457032694764
16.652264000000002,3.1157661838441792,0.0634752363160851
16.654652,3.145844916868674,0.063036251675459
16.657032,3.1772741243335294,0.0625647000146949
16.659428,3.202836799185994,0.0621559601178491
16.661816,3.2256059773591232,0.0617554726136708
16.6642,3.249585860345752,0.0613353045757127
16.666596,3.2742173696384382,0.060950052127015
16.668984000000002,3.2984767918787874,0.0605140088253026
16.67138,3.3230157533728564,0.0600569957577031
16.673775999999997,3.347275175613205,0.0596339330049548
16.676164,3.372605533040192,0.0591970813526048
16.678544000000002,3.396492868228204,0.0587344675382679
16.680943999999997,3.419449037856437,0.0582787415954742
16.683332,3.4352354222601638,0.0578265114027568
16.685712000000002,3.442082238118444,0.057450850842498
16.688108,3.4481376580438075,0.057066836410068
16.690495999999996,3.451539350916696,0.0566804021826037
16.692880000000002,3.4555926700956414,0.0563174962572897
16.695284,3.450846190356002,0.056015953818667
16.697671999999997,3.451314616922695,0.0556560485425431
16.700052,3.4535056049820847,0.0553040966479678
16.702447999999997,3.4562084497206715,0.0549883224149633
16.704836,3.4538361577797865,0.0547206654283951
16.70722,3.453977823264516,0.0544706210364049
16.709615999999997,3.4598462517347754,0.0541964560647087
16.711999999999996,3.464224436137816,0.0539759155080242
16.71438,3.46101352643577,0.0537810266375152
16.716783999999997,3.461527278972837,0.0535803761190429
16.719172,3.460830326696405,0.0534059429233115
16.721552000000003,3.459202208860195,0.053233576323852
