Time,Force,Position
16.287287999999997,0.9648111746080482,0.1109766536484278
16.289664,0.9721207294594146,0.1104657853762926
16.294455999999997,0.9829207332665476,0.1104075737052361
16.29684,0.9919056277823672,0.1102243983173451
16.299243999999998,1.0036840189775218,0.1098772054431633
16.301631999999998,1.0199784683447075,0.1093402681453401
16.304015999999997,1.0365524569656142,0.1087343740300829
16.306411999999998,1.057689725586795,0.1076608987585401
16.308795999999997,1.0780355982750578,0.1066405413614144
16.311179999999997,1.097170766149822,0.1058100464990862
16.313571999999997,1.116865012532027,0.1048344464748174
16.315959999999997,1.136559258914232,0.1038899784572155
16.31834,1.1546707134306005,0.103006002492504
16.320735999999997,1.1735735638798876,0.1021119481721837
16.323123999999996,1.189263608769259,0.1015023834270251
16.325519999999997,1.2104008773904398,0.1006845804088911
16.327916,1.2286048797054256,0.1000329168489407
16.330299999999998,1.2414542060872185,0.0997741758081665
16.332683999999997,1.2576088858275445,0.0994466775279735
16.335079999999998,1.2800494070608412,0.0986578608586453
16.337463999999997,1.3046317986674147,0.0976988902340227
16.339844,1.3302851254606272,0.0966944462702823
16.378096,1.4435472916665342,0.0966365125684278
16.380484,1.449785911331262,0.0964868460929022
16.382863999999998,1.4548138261824912,0.0964421851409702
16.387643999999998,1.465381512564147,0.0964281878986263
16.390023999999997,1.476787816706964,0.0962356771302472
16.392424,1.4872629552900027,0.0960566882655776
16.394807999999998,1.4989487986865402,0.0957916713774078
16.397187999999996,1.5063509013365235,0.095759252139091
16.399592,1.5165465006658418,0.0956427726897552
16.40198,1.5320967759283528,0.0952458564744255
16.404359999999997,1.549509382310421,0.0947865470628588
16.40676,1.5675736149985464,0.0943657492388544
16.409143999999998,1.586196926194113,0.0938159101761249
16.411527999999997,1.602538597389542,0.0934200410970041
16.413923999999998,1.6198114341447494,0.0930020657687895
16.416311999999998,1.6341510045937615,0.0926877440097081
16.418691999999997,1.6462089350426363,0.0925150014764656
16.421087999999997,1.663481771797844,0.092078866534706
16.423475999999997,1.682477170045748,0.0916243576288255
16.440208,1.7497004983734137,0.0915544721220493
16.442604,1.7602681847550696,0.0915520728376069
16.444992,1.7779131085626143,0.0912940067425762
16.447371999999998,1.7958375716238797,0.090998211186931
16.449768,1.807615962819034,0.0909359048861356
16.452156,1.821536224387465,0.0907906170107827
16.454539999999998,1.83480485964984,0.0906181467566319
16.456936,1.8488648908451315,0.0904546290503713
16.459319999999998,1.863204461294144,0.090238292791296
16.461703999999997,1.8734000606234615,0.0901671809673743
16.4641,1.886668695885836,0.089982617597445
16.466483999999998,1.901148035961708,0.0897200363472005
16.46888,1.915208067157,0.089544936273491
16.471283999999997,1.9275455368595955,0.0893882101639024
16.473671999999997,1.9458893088014413,0.0890489915200258
16.476052,1.9655835551836465,0.0886246206333826
16.478447999999997,1.9866282760062104,0.0881250780704872
16.480835999999996,2.007533227201914,0.0876462692126866
16.483216,2.0303005095171747,0.0871199487931385
16.485615999999997,2.053766639966736,0.0864774048954408
16.509496,2.0725750467595367,0.086349070182407
16.511879999999998,2.0764394786255105,0.0862560480559741
16.514276,2.0824457808647607,0.0860866374833965
16.516659999999998,2.0865897519844547,0.0859522548281033
16.519043999999997,2.0947379245969824,0.0857142467339682
16.52144,2.09701956459712,0.0856192771816447
16.526224,2.102327018702069,0.0855712719770295
16.528619999999997,2.104980745754544,0.0855481682158448
16.533388,2.114384949150944,0.0855138889062281
16.535784,2.125558935868284,0.0853444683245711
16.538172,2.1388747929589007,0.0851023936597261
16.540551999999998,2.1552636859825727,0.0847648001557868
16.542959999999997,2.1750977019916378,0.0844081226963314
16.545343999999996,2.190275890201812,0.0841251343154988
16.547728,2.2083873447181803,0.083770580516581
16.550123999999997,2.229991144048185,0.0832644454788057
16.607456,2.212905298748081,0.0831326283605057
16.609844,2.2084364624042925,0.083055158781007
16.612223999999998,2.206481583486119,0.0829771812710977
16.614624,2.2094620716205573,0.0827919672474331
16.617008,2.214444660501412,0.0825580747048269
16.619407999999996,2.2274356523679346,0.0821372827254164
16.621803999999997,2.2444308457272912,0.0816215971230231
16.624191999999997,2.2542090320338986,0.0812946459417888
16.626572,2.262636743900146,0.0810447987185151
16.628967999999997,2.271064455766395,0.0807949514952413
16.631355999999997,2.2785610020728644,0.0805618353113994
16.633736,2.2852661524464164,0.0803228081750707
16.636139999999997,2.2947647994993026,0.0800472115476044
16.638527999999997,2.303983907298469,0.0798111622912942
16.640908,2.3122718495378565,0.0795939427194718
16.643303999999997,2.325075849949276,0.0793392033714645
16.645691999999997,2.342023821480389,0.0789833750949938
16.648072,2.3641866993178344,0.0784866170591138
16.650475999999998,2.38620980752842,0.0780111901984006
16.652863999999997,2.409303850925643,0.0775199001767066
16.655244,2.432537663949728,0.077033884448798
16.657643999999998,2.453629606600535,0.0766153840064082
16.660031999999998,2.471928052572007,0.0762310930018783
16.662415999999997,2.493439304103395,0.0757790399349517
16.664811999999998,2.516812886754339,0.0753157972103545
16.667195999999997,2.5360424982855894,0.0749565158870033
16.669576,2.556203275376618,0.0746008509513418
16.671975999999997,2.5843724554533143,0.0740973096198606
16.674359999999997,2.613752340343509,0.0735532731130483
16.676744,2.642340829300786,0.0730006440170994
16.679139999999997,2.670370239750622,0.0725120973682354
16.681527999999997,2.699610355013956,0.0719872452705782
16.683908,2.728710700650431,0.071492422193192
16.686303999999996,2.7568798807271278,0.0709997374345199
16.688692,2.784909291176963,0.0705309821752563
16.691087999999997,2.810424744201184,0.0700708029636833
16.693483999999998,2.83286716129235,0.0696769738493382
16.695871999999998,2.85223654245046,0.0693430979842362
16.698251999999997,2.871745693235431,0.0689946098811377
16.700647999999997,2.8889732040202647,0.0687129206965959
16.703035999999997,2.9029879092451822,0.0685046705267619
16.705416,2.9179337800298786,0.0682903107537128
16.707811999999997,2.937815017867188,0.0680156594888543
16.710199999999997,2.951689953465245,0.06783275774347
16.71258,2.9646337235035247,0.0676605337199216
16.714979999999997,2.979579594288221,0.0674632906769887
16.717363999999996,2.9897298676471658,0.0673135036011427
16.719748,2.9981575795134137,0.0671653057193737
16.722151999999998,3.00751645693944,0.0670142270086712
16.724539999999998,3.0204602269777188,0.0668569232771467
16.726919999999996,3.0341028451503,0.066627626699843
16.729315999999997,3.048397089628938,0.0664253722966173
16.731703999999997,3.0588269022416035,0.0662583681078166
16.734087999999996,3.072469520414184,0.066034265241044
16.736492,3.083318641907429,0.0658255465355087
16.738879999999998,3.089744253027261,0.0657075719099971
16.741259999999997,3.0952386985873126,0.0655946548558023
16.74366,3.103666410453561,0.0654519411424979
16.746048,3.112885518252728,0.065318985894119
16.748427999999997,3.1253174316118093,0.0651304746907757
16.750823999999998,3.136957949037973,0.064931847098993
16.753211999999998,3.1485984664641364,0.0647348058202108
16.755591999999996,3.157305717584105,0.0645720579250375
16.757987999999997,3.16773553019677,0.0644112201139496
16.760375999999997,3.1761632420630184,0.0642747640837982
16.762759999999997,3.1796555868766543,0.0641906515210225
16.765155999999998,3.1820769965036515,0.064124057505996
16.767543999999997,3.1843586365037884,0.0640722614271976
16.772319999999997,3.177328620906142,0.0640704880764081
16.777092,3.1685760438158006,0.0640627758539964
16.779487999999997,3.1714167623233784,0.0639602348687806
16.781875999999997,3.1731865456443185,0.0638766361226302
16.784259999999996,3.178960530458092,0.0637501977165658
16.786655999999997,3.188366629712361,0.063529668243584
16.789039999999996,3.202568326392382,0.0632778237570422
16.791439999999998,3.2158388575126247,0.0630340410450387
16.793836,3.2304598630732264,0.0627519917207471
16.796224,3.243358307141132,0.0624715407268916
16.798603999999997,3.2571879167688165,0.0621865664428216
16.801,3.2692949649038034,0.0618966140020464
16.803387999999998,3.278468746732596,0.0616296897584846
16.805771999999997,3.287922067815108,0.0613372221826463
16.808168,3.2993774896440384,0.0610254707424296
16.810556,3.3148371129658014,0.0606717647797677
16.812939999999998,3.337373973713454,0.0602447290417916
16.815336,3.3599108344611057,0.0598226055777607
16.817724,3.384729335208895,0.059353297603585
16.820103999999997,3.41234133263602,0.0588775943860519
16.822499999999998,3.438742625249646,0.0584376984548374
16.824887999999998,3.467425557863409,0.0579602257973888
16.827267999999997,3.487168921931726,0.0575681289952769
16.829659999999997,3.5069122860000435,0.0571801842785035
16.832047999999997,3.5245137796950834,0.0568259798485009
16.834448,3.542627130069321,0.0565088820156859
16.836844,3.5520804511518347,0.0562376639462063
16.839232,3.5613940026074866,0.0559804806001651
16.841611999999998,3.5704280148094187,0.0557516189573597
16.844008,3.575969682197715,0.055588516779752
16.846396,3.5848639247727867,0.0553746435800554
16.848779999999998,3.594689332907637,0.0551589075095728
16.851176,3.60837917290846,0.0549238738989785
16.853564,3.6231399480959214,0.0546775423034286
16.855943999999997,3.635758852910108,0.0544584058762111
16.858344,3.65065939772443,0.0542061935706234
16.860732,3.66048480585928,0.0539999523001819
16.863111999999997,3.669379048434352,0.0537965407744349
16.865508,3.679995852502121,0.0536037575556044
16.867896,3.688610555823472,0.05342633246604
16.870279999999998,3.69336082727885,0.0532644396056023
16.872676,3.693827357987673,0.0531532398301488
16.875064,3.6980185509356103,0.0530361555336269
16.877443999999997,3.699136707950492,0.0529454477904538
16.879844,3.701325800152013,0.0528424422487521
16.882227999999998,3.704725597167031,0.0527168233174484
16.884611999999997,3.716133797167717,0.0525363409214597
16.887007999999998,3.7238173349292905,0.0523597138195064
16.889395999999998,3.7245634048918346,0.0522242452744991
16.891792,3.7285222804142943,0.0520502292508156
16.894187999999996,3.72791787593648,0.051950443235309
16.896576,3.729315572205082,0.0518377457444565
16.898956,3.7287111677272673,0.0517390336089241
16.901352,3.7278272239957326,0.0516631095691006
16.90374,3.7302958554509735,0.0515402350556461
16.906124,3.727270041346161,0.0514885148306521
16.90852,3.725175392801127,0.051435798433413
16.910908,3.722940974629233,0.0513941002669789
16.913292,3.7189839949646415,0.0513429791061832
16.915688,3.714515158620854,0.0512591710052843
16.918076,3.7181944948895937,0.051116219207321
16.920455999999998,3.7240157015316098,0.0509494114649177
16.922856,3.727183181121152,0.0507731774268138
16.925244,3.733703235897469,0.0505512482090405
16.927623999999998,3.7382211899273687,0.0503415944772307
16.93002,3.741807978397492,0.050134725560227
16.932408,3.7421819613076983,0.0499630977868161
16.934791999999998,3.745489210524101,0.0497786198320865
16.937195999999997,3.7568048627261694,0.0495472989190348
17.130727999999998,2.615805978489371,0.0494894491508208
17.133115999999998,2.5696670093810354,0.0494419008560273
17.135495999999996,2.5235280402727,0.0493936335207813
