Time,Force,Position
16.947696,0.9626609915848908,0.1264467732342368
16.9501,0.9716458861007105,0.1261943865671235
16.952484,0.9798393846836118,0.1259449055801923
16.954864,0.9900349840129302,0.12554930350954
16.957268,1.003443388902164,0.124816057288406
16.959656000000003,1.0208559952842318,0.1237478474373714
16.962035999999998,1.042831881666574,0.1220948569047954
16.964436,1.0608035665560824,0.1209144812100838
16.96682,1.0782161729381503,0.1199386901846448
16.969203999999998,1.0960008663725556,0.1191345316441488
16.971600000000002,1.1140650990606815,0.1182723193402654
16.973988,1.128823978390274,0.117432741074232
16.976368,1.150520325518896,0.1161005485570241
16.978763999999998,1.1771520397001298,0.1144583232990553
16.981152,1.2016418835080864,0.1130441759999617
16.983531999999997,1.2249210225025446,0.1118311771185833
16.985928,1.2544860029899736,0.1101198906170361
16.988315999999998,1.2788360771710698,0.108880653592631
16.990696,1.3051882520985831,0.1073819027638072
16.9931,1.3293985566528197,0.1060364214411644
16.995483999999998,1.3489530334081643,0.1050288574746118
16.997864,1.362221668670538,0.1045324841438617
17.000264,1.3802859013586637,0.1038005286314951
17.036104,1.4387094307677435,0.1034729905951444
17.038496000000002,1.441782466700799,0.1033178246350657
17.040875999999997,1.4507220352462449,0.1029221838255356
17.043272,1.4592422949111097,0.1026104676988288
17.045659999999998,1.4692527986431938,0.1021207966172773
17.048043999999997,1.474979561628724,0.1018998737163811
17.050447999999996,1.481218181293452,0.1017378963258484
17.052836,1.4837321387190665,0.1017062080703474
17.055216,1.490110528010654,0.1015189426813743
17.057612,1.496628686929103,0.1012989204679512
17.060000000000002,1.505940342526886,0.100983483529583
17.062379999999997,1.5265657544688696,0.1002625081863293
17.064783999999996,1.545328835291296,0.0996150244491095
17.067172,1.5673047216736384,0.0987509367142157
17.069552,1.5872785073095637,0.0980153545913249
17.071948,1.6040394873855734,0.0974697931293999
17.074336000000002,1.6197295322749448,0.0969640588774391
17.07672,1.6329981675373184,0.0966475461308573
17.079116,1.645475406866774,0.0963472253024546
17.081504000000002,1.655950545449813,0.0961465410289252
17.083883999999998,1.6680084758986875,0.0959519176142674
17.088668,1.6813696589596785,0.0958413650290406
17.091051999999998,1.692403876050158,0.09557476444154
17.093448000000002,1.7073025250066112,0.0951976445757925
17.095836,1.7249021228437822,0.0946201398265849
17.098216,1.7457145262408689,0.0939057815085186
17.10062,1.7702515918770687,0.0931112125532133
17.103008000000003,1.79371772232663,0.0923903864326027
17.105387999999998,1.8170440831493315,0.0916916630589259
17.107784000000002,1.8369253209866396,0.091030595219354
17.110172,1.851731422144476,0.0905864432906786
17.112555999999998,1.867049379981509,0.0901901103692325
17.114959999999996,1.8825071074454036,0.0897786499781392
17.117348,1.8961025037897408,0.089402946080493
17.119728000000002,1.9139816408806325,0.088857072192173
17.122124,1.9366563753972756,0.0881879678239819
17.174684,2.026830185779566,0.0880756992028503
17.177068,2.0318581006307954,0.0880648335358156
17.179463999999996,2.039027885855301,0.0879795219321077
17.181852,2.045406275146889,0.0878888768095215
17.184232,2.050853498878699,0.0878149985000003
17.186636,2.057231888170287,0.0877197180385951
17.189023999999996,2.0636102774618745,0.0876229927768564
17.191404,2.075343342686656,0.0873277869536928
17.193799999999996,2.086377559777135,0.0871443050227897
17.196188,2.106351345413061,0.0867193841779263
17.198568,2.127675605489345,0.0862119775881207
17.200967999999996,2.1462063688862942,0.0857715329173486
17.203352000000002,2.1645973626563837,0.085373418727775
17.205731999999998,2.1899258242255017,0.084802277580834
17.208135999999996,2.2151145161677595,0.0842630546172454
17.210524,2.23816133773674,0.0838083883974491
17.212908,2.2552018570664703,0.0835063992314273
17.215303999999996,2.275175642702396,0.0831248247152936
17.217695999999997,2.297291298711598,0.0826819009095112
17.220076,2.317544623601244,0.0822752576635459
17.222479999999997,2.334864682184694,0.0819458250953611
17.224868,2.352324510395005,0.081607785184492
17.227247999999996,2.368713403418677,0.0813107400455106
17.229644,2.3860334620021275,0.0810027487778814
17.232031999999997,2.405355621331995,0.08065598485735
17.234412,2.4300324565950557,0.0801610172153198
17.236807999999996,2.456990931858253,0.0795933980108242
17.239196,2.4818075367481733,0.0790987487413836
17.241576000000002,2.508766012011371,0.0785449732066359
17.243975999999996,2.529718185035318,0.0781302247628313
17.246364,2.5506703580592647,0.0777237750347817
17.248744000000002,2.5713429918294914,0.077352993983901
17.25114,2.586288862614188,0.0770649751381593
17.253528000000003,2.5975100711597707,0.0768281506871008
17.255907999999998,2.605658243772298,0.0766554062238061
17.258304000000003,2.6135268771311053,0.0765164624312728
17.260692,2.6260513382888044,0.0763201166086878
17.263087999999996,2.637924173140445,0.0760981660783506
17.265484,2.6465842024321704,0.0759644337873066
17.267871999999997,2.6563151669105345,0.0758038325466183
17.294151999999997,2.6945836068021927,0.0757699024781301
17.29654,2.6965857075486097,0.0757365280653493
17.298924,2.7025920097878613,0.0756353042878706
17.301319999999997,2.7084585424002507,0.0755506402198548
17.303708,2.718748585386056,0.0753508193805999
17.306088000000003,2.730528872439079,0.0750788861984935
17.308484,2.741797302812905,0.0747722739652865
17.310871999999996,2.7565108561721243,0.0744664894490654
17.313252,2.771224409531343,0.0741557869230647
17.315647999999996,2.7859379628905625,0.0738500024068437
17.318039999999996,2.7919914869580564,0.0736474535562859
17.32042,2.799535255092769,0.0733746472774292
17.322815999999996,2.810943455093456,0.0730529244716913
17.325204,2.8284977269602525,0.072622980313488
17.327599999999997,2.842327336587936,0.0722314557126877
17.329996,2.8581590469620366,0.0718033983540525
17.332383999999998,2.8769240236423324,0.0713381479946088
17.334767999999997,2.891824568456655,0.0709312393773333
17.337164,2.9039316165916422,0.0705426852807317
17.339551999999998,2.9121742328606564,0.0702054466707388
17.341935999999997,2.92027707950281,0.069884201840253
17.344332,2.93010248763766,0.0695679920353016
17.346719999999998,2.938856960585872,0.0692760012763891
17.3491,2.9486823687207218,0.0689636224034484
17.351504,2.9551552016687963,0.0687344508420251
17.353892000000002,2.96148826499001,0.0685232028386637
17.356271999999997,2.9678213283112247,0.0683152130653682
17.358668,2.9739220742069614,0.068046107163953
17.361055999999998,2.986448431222529,0.0676629496564646
17.363439999999997,2.994830817118403,0.0673424676474225
17.365836,3.014294641933,0.0668718249234832
17.368223999999998,3.035481028240293,0.0664169700477533
17.370607999999997,3.0538739178682515,0.06598239398015
17.373004,3.0642584045105425,0.0656478153339805
17.375391999999998,3.0745031215259733,0.0653255558284059
17.377772,3.0856790041011823,0.0649992638062147
17.380167999999998,3.093781850743337,0.0647174888688506
17.382556,3.0988116614524346,0.0644765412739785
17.384935999999996,3.1107789399605617,0.0641600027985648
17.387327999999997,3.1236773840284675,0.0638386641741713
17.389716,3.134713496976816,0.0635251100242491
17.392111999999997,3.140674473245693,0.0632779698308362
17.394512,3.1469149887682906,0.0630032980620219
17.396895999999998,3.150082468357833,0.0627712019501003
17.399279999999997,3.157393919067069,0.062478830300459
17.401676000000002,3.1645656001494427,0.0622029225298389
17.404063999999998,3.172528677164736,0.0619403482548258
17.406444,3.1772789486201147,0.0617353049972256
17.408844000000002,3.1756036089556607,0.0616395867234167
17.411232,3.1803538804110394,0.0614389602779473
17.413612,3.177887144813668,0.0613343622079781
17.416007999999998,3.168343171790407,0.0613096899868116
17.418396,3.160661529886704,0.0612767509743405
17.42078,3.159917355782029,0.061177335855439
17.423175999999998,3.160104347237132,0.0610738882199208
17.425564,3.158568777199539,0.0609645237782769
17.427943999999997,3.158383681602305,0.0608109000708977
17.430343999999998,3.1651360538041,0.0605921883584323
17.432727999999997,3.1646714189531453,0.060466198206583
17.435111999999997,3.1639272448484705,0.060366832737956
17.437508,3.1669077329829087,0.0602531881651074
17.439895999999997,3.176034292983458,0.0600647455280922
17.442292000000002,3.18874574559626,0.0598797332294208
17.444688,3.2048097733958376,0.0596324546190562
17.447076000000003,3.216729830075721,0.0594400833230027
17.449455999999998,3.2249252245164923,0.0592595876919988
17.451852000000002,3.229256187091289,0.0591056253696463
17.45424,3.2342387759721443,0.058974227070676
17.45662,3.2402923000396378,0.0588256044541229
17.459016,3.243924414480134,0.058738349218406
17.461404,3.251420960786604,0.0586253838014458
17.463788,3.263852874145685,0.0584677896260828
17.466184,3.276145017877907,0.0583250050984849
17.468572,3.2835017945575165,0.0582253980177659
17.470956,3.2919295064237644,0.0581104772717542
17.473352,3.302219549409569,0.0579903864808129
17.475740000000002,3.313300988328292,0.0578821287034698
17.478119999999997,3.3193072905675427,0.0578275085336916
17.480516,3.3295973335533477,0.0577100876459773
17.482903999999998,3.342169016539289,0.0575502565208167
17.485287999999997,3.354089073219173,0.0573705268191418
17.487684,3.366940295458836,0.0571944858522054
17.490071999999998,3.375135689899606,0.0570325192785023
17.492452,3.384913876206213,0.0568937685516651
17.494847999999998,3.396973702512958,0.0567152473687744
17.497239999999998,3.413829126245454,0.056514372598674
17.49962,3.433617816284145,0.056295299655473
17.50202,3.456619311882752,0.0560370845321133
17.504407999999998,3.4786896419215814,0.0557800724236699
17.506804000000002,3.4968955400944357,0.0555409140562672
17.5092,3.511376776028177,0.0553099304347317
17.511584,3.5270687167754184,0.0550563401844596
17.513964,3.5427606575226585,0.0548042610732892
17.51636,3.5611063253223736,0.0545568183824284
17.518748000000002,3.57838105793545,0.0543246893568602
17.521127999999997,3.596726725735165,0.0540830615546954
17.523524000000002,3.6118595879749655,0.0538809806413713
17.525911999999998,3.628203155028263,0.0536527491307417
17.528308000000003,3.6442671828278415,0.0534506750790167
17.530712,3.657397944321224,0.0532676761348045
17.533096,3.671459871374385,0.0530867452403611
17.535476000000003,3.6807262010017943,0.052927246272557
17.537875999999997,3.688642056188845,0.0528020861633447
17.540264,3.691622544323284,0.0527072929376873
17.542644000000003,3.693532097271084,0.0526258885456251
17.54504,3.695441650218884,0.0525455157666026
17.547427999999996,3.69921353428624,0.0524638837888267
17.549808,3.700052152047401,0.0523974821281124
17.552211999999997,3.70289287055498,0.0523180650504889
17.554595999999997,3.709877560182251,0.0522010634066108
17.556976,3.722868552048773,0.0520468649196452
17.559379999999997,3.7349283783555176,0.0518964208225228
17.561768,3.746336578356204,0.0517261442749662
17.564147999999996,3.758164087237471,0.0515246658100235
17.566544,3.7721334664920154,0.0513022011794179
17.568931999999997,3.784240514627002,0.0510838122175474
17.571312,3.799700137948765,0.050820416987371
