Time,Force,Position
18.045856,0.9820980372934888,0.1292927139441331
18.048252,0.99778808218286,0.1280517198270714
18.05064,1.0158995366992287,0.1265123987570292
18.05302,1.0349421567753758,0.1249567909077489
18.05542,1.0521224457319662,0.1235786947128443
18.057804,1.0707929787557755,0.1219516413183072
18.060188,1.0833174399134746,0.1209102400382388
18.062584,1.0924893258843975,0.1202559037387767
18.064972,1.1010095855492628,0.1196162045039556
18.067352,1.1106007804007665,0.1188537536806142
18.069748,1.1225661630510244,0.1180129317814349
18.072136,1.1311789705145063,0.11759819737809
18.07452,1.1369982812986537,0.1173863001989934
18.076916,1.1456110887621358,0.1169889012085283
18.079304,1.1533852784644567,0.1168677519660176
18.084084,1.1669315571226817,0.116821346541789
18.088856,1.1788950439150705,0.1168130362664856
18.091252,1.1861573769381937,0.116667903022302
18.09364,1.1924885444015387,0.1165935727914704
18.105596,1.2239573902631595,0.1165327957654875
18.107984,1.235596011831454,0.1162696106959867
18.110368,1.2493765037730251,0.1157974975131533
18.112764,1.2607355860875993,0.1155859181912942
18.115148,1.272746294708231,0.1154107237038418
18.117532,1.2851763122094435,0.1151258046582437
18.119936,1.2992363434047354,0.1146005692462013
18.12232,1.3140877705329457,0.1140515038246706
18.124704,1.3261457009818205,0.1136572649916179
18.1271,1.339042249191857,0.1130196223314567
18.129488,1.351147401468975,0.1124059170715572
18.131868,1.361622540052014,0.1120083687601272
18.134264,1.3718181393813325,0.1117134411945476
18.136652,1.3860179402034842,0.1111609924958567
18.139032,1.3968651658388604,0.1109158011673737
18.141432,1.4069209955413184,0.1106953249016234
18.14382,1.4159058900571382,0.1105657465173331
18.1462,1.4240993886400397,0.1104320896668784
18.1486,1.4322928872229417,0.1102984328164236
18.150988,1.4404863858058428,0.1101647759659688
18.153368,1.4481680277095466,0.1099727172035588
18.155764,1.4521250073741372,0.1099460851216772
18.158152,1.4582238574120048,0.1097771284244709
18.160536,1.4664645778231495,0.1094585424812788
18.162932,1.4779181037942095,0.1089532825568217
18.16532,1.488021155324911,0.1085855879976998
18.167716,1.496773732415253,0.1083576842110154
18.170112,1.508599345438651,0.1079725638849497
18.1725,1.524149620701162,0.1074603656733564
18.17488,1.5422138533892875,0.1069364471446015
18.177276,1.5584157549578563,0.1064713193819155
18.179664,1.5779702317132012,0.1057651339831253
18.182048,1.5979440173491264,0.1050043694862227
18.184444,1.6131222055593,0.1044399888627107
18.186832,1.6296508682098323,0.1037567220925791
18.189212,1.6429667253004494,0.1032506630229437
18.191608,1.6534890857117317,0.1028367919357457
18.193996,1.6658737772425698,0.1023523904156821
18.196376,1.6779789295196883,0.1019233266815354
18.198776,1.6928775784761416,0.1014116769816936
18.201164,1.7060064441116554,0.101101863510283
18.203544,1.7237911375460602,0.1006445973179154
18.23462,1.7950639933369332,0.1003508925622815
18.237008,1.801162843374801,0.1002514982559462
18.239392,1.810194959718864,0.10004849802459
18.241788,1.8175045145702304,0.0998692413788376
18.24418,1.8269559397948736,0.0995879198881889
18.24656,1.8297494364742088,0.0995103174510047
18.24896,1.836966443526958,0.0991987257348824
18.251348,1.842460889087011,0.0989265804096403
18.253732,1.8526111624459551,0.0985454710213686
18.256136,1.8604797958047623,0.0982886422373583
18.258524,1.8703505299099863,0.0979596863691558
18.260908,1.884225465508044,0.0974881298917075
18.263304,1.896098300359685,0.0970963590291889
18.265692,1.913558128569996,0.0965761751277098
18.268072,1.9362328630866388,0.095850596715523
18.270468,1.9657052957754508,0.0948968825500454
18.272856,1.9864704773442945,0.0943556310271878
18.27524,2.0064442629802195,0.0938245246061188
18.277636,2.0296308541760606,0.0931627441380154
18.280024,2.048254165371627,0.0927450258831697
18.282404,2.067157015820914,0.09229341860443
18.284804,2.0863394055239213,0.0918086839838285
18.287192,2.105102486346348,0.0913973522618754
18.289576,2.125867667915191,0.0909262814606892
18.291972,2.147052158364615,0.0904120121787506
18.29436,2.1761052821728466,0.0896818081117733
18.29674,2.2034358444883817,0.0889989404791044
18.299136,2.225691270124444,0.0884643204341388
18.301524,2.2459445950140897,0.0880110970005893
18.303908,2.269690264717372,0.0874168032845238
18.306304,2.2905026681144585,0.0868870186068714
18.308692,2.3113150715115447,0.0863762004335258
18.311076,2.3330586404684097,0.0858530215601559
18.313472,2.350006611999523,0.0854358287128162
18.31586,2.3638815475975807,0.0851138831540674
18.31824,2.3771048568895803,0.0847806246348308
18.320636,2.396614007674552,0.0842546512678743
18.323024,2.419196194392578,0.0836679421670373
18.325408,2.43735487073719,0.0832307931043886
18.327804,2.457795187081939,0.0827065331478623
18.330196,2.4760936330534107,0.0822520581213132
18.332576,2.4950437053309407,0.0818330958772265
18.334976,2.51548402167569,0.0813346935692168
18.337364,2.5368555035802176,0.0808357203035976
18.339744,2.5538034751113305,0.0804801220277573
18.34214,2.5664677058958896,0.080252891318752
18.344528,2.5765707574265906,0.0801380521567502
18.346912,2.5909575497038464,0.0799002263065498
18.349308,2.6005487445553497,0.0797401366229283
18.351696,2.6047852634736604,0.0797328385385288
18.354076,2.615167854258083,0.079583963758087
18.356472,2.6246192794827268,0.0794512424203623
18.35886,2.635141639894008,0.0792933113065432
18.361244,2.647014474745649,0.0790717625189255
18.36364,2.6591668488510103,0.0788173515595949
18.366028,2.668246187023316,0.0786334850632542
18.368412,2.680258791501817,0.078411176465854
18.370808,2.6846823018752306,0.0782881619502355
18.373196,2.693389552995199,0.0780572738917291
18.37558,2.7000947033687512,0.0778638559073912
18.377976,2.706660084115442,0.0776848687161754
18.380364,2.7092212633693005,0.0775800344750688
18.385144,2.703401952585153,0.0775671840486918
18.387532,2.704240570346314,0.0774673178836654
18.389916,2.7045673314282777,0.0773269549273697
18.392312,2.7063843365774605,0.0771082472262826
18.3947,2.708852968032702,0.0769156250187406
18.397084,2.715325800980776,0.0766472683948677
18.39948,2.7239405043021274,0.0763206295430535
18.423364,2.6588571504898697,0.0761876066067734
18.42576,2.657553897877754,0.0761407533903638
18.428164,2.6606741556390525,0.0759752871706496
18.430548,2.667658845266325,0.0757570289280231
18.432928,2.6785079667595704,0.0754888783164822
18.435324,2.685492656386842,0.0752765134012587
18.437708,2.692197806760394,0.0750945664966007
18.440088,2.699694353066864,0.0749212833785763
18.442492,2.7074704386270536,0.0747206050422621
18.444876,2.7121734882541886,0.0745760236909357
18.447256,2.716085141948405,0.0744236664920664
18.44966,2.72078819157554,0.0742758588394461
18.452048,2.7312180041882046,0.0740585244273666
18.454428,2.7449531701594023,0.0738510003079941
18.456824,2.7625527679965733,0.0735948311665708
18.459208,2.786670524752193,0.0732743998300264
18.461604,2.8069238496418376,0.0730139102501303
18.464,2.8258267000911244,0.072804946451064
18.466384,2.842867219420855,0.0726116450740585
18.468764,2.8627012354299195,0.0723898152584184
18.490268,2.91610064170351,0.0723541627211916
18.492672,2.9242015924877944,0.0723172078214072
18.49506,2.937098140697831,0.0722316606477352
18.49744,2.9533472640946425,0.0720656898305758
18.499844,2.970015696372035,0.0718639797013144
18.502228,2.990176473463064,0.0715767028979875
18.504608,3.006193279434399,0.0713598273941719
18.507004,3.0187649624203408,0.0711442025049623
18.509392,3.030405479846504,0.0709340566869574
18.511772,3.0421857668995287,0.0707042126314933
18.514176,3.0561079243258296,0.070432421029349
18.516564,3.0672365850727954,0.0701796812609727
18.518944,3.0802275769393184,0.0699112974851043
18.521348,3.091076698432564,0.0696815871482395
18.523732,3.1009946543660307,0.0694579125159223
18.526112,3.1131942502996357,0.0691792489731927
18.528508,3.1276754862333767,0.0688439351973001
18.530896,3.1422964917939784,0.068493198663361
18.533276,3.1567777277277207,0.068167491960245
18.535672,3.1711191940346013,0.0678608701665785
18.53806,3.185460660341483,0.0675518124852617
18.54044,3.1956581555286707,0.0673132343662724
18.542836,3.2009202836632458,0.0671363608218608
18.55002,3.1879784094828354,0.0670342232026312
18.552408,3.1776430405266565,0.067019317214509
18.554788,3.168518376383977,0.0669695642882037
18.557184,3.160604417054796,0.0668861656010552
18.559572,3.157905364031948,0.0667211398613181
18.561952,3.15534608063596,0.0665433032125754
18.564356,3.157861933919444,0.0663006514773426
18.566744,3.162659427203065,0.0660104185419654
18.569124,3.174394388285715,0.0656481340780181
18.57152,3.1881314501147817,0.0652636430575811
18.573908,3.2009373463840705,0.0648904121537004
18.576288,3.2145346385862767,0.064531528717806
18.578692,3.232275901908177,0.0641242440451714
18.581076,3.247363438177602,0.0637226907740589
18.583456,3.263521909633667,0.0633107444449105
18.58586,3.2806115466495096,0.0628936648611144
18.588244,3.3018451547850463,0.0624273165698341
18.590624,3.323078762920583,0.061957943213377
18.59302,3.3484563421758127,0.0614453450931897
18.595408,3.3844960514691858,0.0608540304666287
18.597788,3.4231894878150326,0.0602598970481685
18.600192,3.466259212706051,0.059684411831658
18.60258,3.5107719598360454,0.0591518468843777
18.60496,3.553934232525681,0.0586598241225471
18.60736,3.598958836334873,0.0581847380859458
18.609744,3.6455662320099016,0.0577370140755692
18.612128,3.6918940884312095,0.0573282266799152
18.614524,3.736591931158439,0.0569855943000828
18.616908,3.7771458027659737,0.0566936537349637
18.619292,3.820493171052843,0.0564018461089897
18.621684,3.8624900648993536,0.0561483595040252
18.624072,3.9034160235592257,0.05591219413669
18.626468,3.941129176659183,0.0557229297753465
18.628864,3.978423020878559,0.0555674133777963
18.631248,4.0135749947246575,0.0554408438418924
18.633632,4.05287093969045,0.0552794572462806
18.7077,4.280443631612959,0.0552792954033535
18.710088,4.260796607058997,0.0552508613181811
18.712484,4.241289352131896,0.0552123411437869
18.71488,4.224435824257269,0.0551798424103609
18.717268,4.2109348715694175,0.0551045326055036
18.719648,4.200786494068343,0.0549862726663657
18.722044,4.194782087686961,0.0548327088143894
18.724432,4.186915350186023,0.0546812112478785
18.726812,4.18319258380478,0.0544949210769551
18.729208,4.181611687796813,0.0542854973515924
18.731596,4.177377064736371,0.054068867409058
18.73398,4.177146643168762,0.0538260354170071
18.736376,4.173703416041239,0.0536174694474972
18.73876,4.18013092301894,0.0533606780157643
18.741156,4.1884207611161965,0.0531004910961594
18.743552,4.197781534400092,0.0528309099038035
18.745936,4.2056520636167685,0.0526008911893479
18.748316,4.2153849239530015,0.0523699635077587
18.75072,4.223395222796539,0.0521320005700789
18.753108,4.2324764568267135,0.0518802584622356
18.755488,4.242349086789807,0.0516360478360068
18.757892,4.249428220073565,0.0513966705532554
18.760276,4.256507353357324,0.0511577836425827
18.762656,4.260001594028828,0.0509096571043607
18.76506,4.261493733953916,0.0506744028361356
18.767448,4.256839802012894,0.0504817970031538
18.769828,4.25325680525851,0.0502790503435486
18.772224,4.250744743690765,0.0500644671100896
18.774612,4.245439185443685,0.0498518220052857
