Time,Force,Position
19.3432,1.0298899950175686,0.1343474474240134
19.345596,1.0333351180029613,0.1342126579247703
19.347984,1.047162831772776,0.1334031573002033
19.350364,1.061362632594928,0.1326850014701824
19.35276,1.0801257134173543,0.1313957856303238
19.355148,1.0940931968140293,0.1304695936762999
19.357532,1.1156497743157912,0.1289844540986438
19.359928,1.140279387750608,0.1271460545498076
19.362316,1.1593220078267552,0.1256603057868326
19.3647,1.1723583256636518,0.1247581293171077
19.367096,1.192332111299577,0.1232746426443605
19.369484,1.2095124002561672,0.1219126589984407
19.371864,1.2209659262272274,0.1210106453176044
19.374268,1.2320001433177077,0.1202942638880987
19.376656,1.2482492667145195,0.1190861061785154
19.379036,1.2659414123503077,0.1179290673413835
19.381432,1.2810723787322378,0.1171683981746864
19.38382,1.2949926403006695,0.1165734098015087
19.398152,1.3259024076548496,0.1164063299715594
19.400536,1.3307905528792183,0.1163300622220581
19.402932,1.338891503663503,0.1160110100027109
19.40532,1.3462010585148694,0.1157342227951023
19.407716,1.3563041100455706,0.1153650537044622
19.410112,1.3710629893751634,0.1147802267807559
19.4125,1.3890346742646718,0.1139582548786439
19.41488,1.4057956543406818,0.1133151659493726
19.417276,1.4313564333352768,0.1122798672866191
19.419664,1.4585000041957084,0.1111544788554626
19.422048,1.4831296176305258,0.1100812043107407
19.424444,1.507479691811622,0.1091577529313819
19.426832,1.530107204500022,0.1082892271552731
19.429216,1.553293795695863,0.1073055705936611
19.431612,1.5762008476379834,0.1063737708955963
19.434,1.6049744321924944,0.1051498772925043
19.436384,1.6317459160005885,0.1039993681125069
19.43878,1.6573066949951836,0.1029746610799315
19.441168,1.68724376253495,0.10177257906831
19.443552,1.7199743267540513,0.1005136852436624
19.445948,1.7476297542936805,0.0995785021372933
19.448336,1.7699305059001171,0.0989882281203106
19.450716,1.7899496175064165,0.0985489325157715
19.453116,1.80661615392594,0.0983388831226723
19.4555,1.818487092919712,0.0983169460328047
19.457884,1.8337106071002596,0.0981147577856482
19.465052,1.86885878923062,0.0979119114322621
19.467448,1.8819876548661332,0.0977117885034616
19.469836,1.898049786807842,0.0974216854766584
19.472216,1.911318422070216,0.0972089481781978
19.474612,1.925518222892368,0.0969764756495793
19.477,1.9406491892742983,0.0967342841396555
19.479384,1.9541973637903929,0.096478236873902
19.48178,1.9689562431199856,0.0961768535012071
19.484168,1.987579554315552,0.0957674233141865
19.486548,2.007413570324617,0.0952976815336126
19.488948,2.028458291147181,0.0947690874404802
19.491336,2.044427875290273,0.0944109739001315
19.493732,2.061608164246863,0.0939839957412113
19.496128,2.0813496324573117,0.0933996719499751
19.498516,2.1016501791752,0.092713551807369
19.5009,2.120228164400392,0.092028678146917
19.503296,2.1420189551855,0.0912167147436009
19.505684,2.158594839664276,0.0906231022224595
19.543908,2.209011861945558,0.0906026421517531
19.546312,2.21748489978218,0.0905684842486784
19.5487,2.2271686424323005,0.0904767077371559
19.55108,2.2356416802689223,0.0904440045942662
19.553484,2.243974948478684,0.0904275978874472
19.555872,2.253426373703327,0.0902502607410419
19.558252,2.2658110652341663,0.0900024258894498
19.560652,2.2820601886309784,0.0896763910040303
19.56304,2.2990081601620918,0.0892336697677214
19.56542,2.3120916998272305,0.0888765663144528
19.567816,2.3346738865452568,0.0882129588563955
19.570204,2.3505981447179747,0.0876813605426903
19.572584,2.3634493669576377,0.0872432495963282
19.57498,2.372156618077606,0.0869397446022337
19.577368,2.386218545130767,0.0864534788748772
19.579748,2.398929997743569,0.0860470877018168
19.582144,2.413364011849068,0.085624957073122
19.584532,2.4288689611412053,0.0851711711979565
19.586916,2.444234140806482,0.084752692023863
19.589312,2.457736989352202,0.0843717189654594
19.5917,2.4633712045391154,0.0841621433861746
19.59408,2.460624929688024,0.0840859536307644
19.596476,2.461603317076045,0.0839535175527101
19.598864,2.46071937334451,0.0838491691975108
19.601244,2.4610461344264736,0.0836920879980022
19.60364,2.463886852934051,0.0835337042704832
19.606028,2.4690092114417665,0.0832980030087975
19.608408,2.4704069077103687,0.0831164580402164
19.610804,2.4772518277107807,0.0828797733620575
19.613192,2.487309553271108,0.0825506595136499
19.615588,2.488939566965187,0.0824494170797782
19.617984,2.4955049477118783,0.0822489379922425
19.620368,2.5014187021525123,0.082021291985381
19.622752,2.505609895100449,0.0817981179169159
19.625144,2.5045861817420545,0.0817128994002837
19.627532,2.5058441083837963,0.0815477255786993
19.629912,2.5032376031595645,0.0814509305943785
19.63708,2.4890850241656555,0.081447738192771
19.639476,2.491646203419513,0.081328894226678
19.641864,2.4992825193528434,0.0810897798592545
19.644256,2.5027748641664798,0.0809592237554285
19.646656,2.5093402449131705,0.0807556117466311
19.64904,2.518187265659999,0.080477134833697
19.651424,2.5211677537944377,0.0803080256769366
19.65382,2.5218666019287386,0.0802192689884539
19.656208,2.522285910809319,0.0801655852628503
19.658588,2.518189161517868,0.080152038117078
19.660992,2.5168859089057523,0.0801045620818667
19.66338,2.5206577929731084,0.0799505593131676
19.66576,2.5262920081600218,0.0797790301951704
19.668156,2.536582051145826,0.0795577058956885
19.670544,2.551947230811103,0.0792387505782878
19.672928,2.572667086409573,0.0787833043410805
19.675324,2.591245071634765,0.0783892949886284
19.677712,2.619554021338322,0.0778516591196529
19.680096,2.6493532151090977,0.0772442394975223
19.682492,2.677429847387177,0.0766378746142353
19.684884,2.708579515598312,0.0759782294128767
19.687264,2.738798018249667,0.0753486456069692
19.68966,2.767666046460665,0.0747912330473366
19.692052,2.7980243187388814,0.0741578732440808
19.694432,2.8271718862035984,0.0735780227469388
19.696836,2.855760375160875,0.0730750876475372
19.699224,2.888353065610985,0.0725018605631293
19.701604,2.9200145905013173,0.0719399367130972
19.704,2.95754264800404,0.0713078749877605
19.706388,2.996933036626319,0.0706637321903363
19.821064,3.5209203873458668,0.0702948392321485
19.823448,3.5169634076812764,0.0702605200500737
19.825844,3.518640643203599,0.0701149312044207
19.828232,3.5236704539126973,0.0699044045942857
19.830628,3.5280486383157377,0.069679005089393
19.833024,3.5384331249580288,0.0693905359917382
19.835412,3.5458843452941244,0.0691304402222047
19.837796,3.5514732345106634,0.0688798877227754
19.840192,3.5605544685408383,0.0685534755163408
19.84258,3.5728485081309294,0.0681772911227552
19.844964,3.57969532398921,0.0678140963552916
19.84736,3.5889635494744883,0.0673891671397141
19.849748,3.598930623094068,0.0669011719308986
19.852128,3.613833063766259,0.0663591994186831
19.854524,3.626593634065174,0.0658532292212369
19.856912,3.636560707684754,0.065365614105991
19.859292,3.648018025371553,0.064823959584477
19.861688,3.656681846379017,0.0642959712720464
19.864076,3.660829609214449,0.0637820778733835
19.866456,3.667910638356077,0.0632464420236314
19.868852,3.675922833057484,0.0627099494121229
19.87124,3.683003862199111,0.0621845412786313
19.873624,3.6850097546612655,0.0617163270877107
19.87602,3.687155416750282,0.0612400753577477
19.878404,3.6862280429062415,0.0607991281984783
19.880804,3.682367402756007,0.0603848682277724
19.8832,3.6797174674192714,0.0599440164022574
19.885588,3.68028033764245,0.0594619106648498
19.887968,3.680703438238769,0.0589920925376995
19.890364,3.681917934768006,0.0585353252406101
19.892752,3.689790359842552,0.0580469698940254
19.895136,3.6980348719694343,0.0576007496510197
19.897532,3.706791240775516,0.0571859989423329
19.89992,3.711822947342483,0.0567793556976921
19.902304,3.716994423536311,0.056359568164559
19.9047,3.722817526036197,0.0559597519371797
19.907088,3.7302234204019182,0.055581513926883
19.909468,3.7373497755139193,0.0552220708966884
19.911864,3.744987987305119,0.0548930474072195
19.914252,3.748994084655821,0.0546398150553717
19.916632,3.750718542006387,0.0544251985584502
19.919032,3.74722809305062,0.0542653334122335
19.92142,3.7474623063339663,0.0540974257367033
19.9238,3.745414879617176,0.0539678282785832
19.942932,3.717015277972873,0.0539049479333502
19.945312,3.71901737871929,0.0538915961869494
19.947708,3.727397868757295,0.0538803448183225
19.950096,3.74178466103455,0.053831989448735
19.952476,3.7583133236850825,0.0537615279251782
19.954872,3.77176895040256,0.0537154790180912
19.95726,3.7912308793592873,0.0536325758755309
19.959644,3.816559340928405,0.0535251956397218
19.96204,3.845380147311159,0.0533625177134145
19.964428,3.8763428240671898,0.0531770128598737
19.966808,3.9139634293685295,0.0529722236349126
19.969204,3.951444265043009,0.0527811172363683
19.971592,3.992789532583462,0.0525777758380079
19.973976,4.035625044191134,0.0523327578596524
19.976372,4.077249850985306,0.0521052218879472
19.97876,4.119945592966118,0.0518656922121375
19.981156,4.162920874200651,0.0516053946129087
19.983552,4.20096078838257,0.0513720011464363
19.98594,4.237929767377853,0.0511516355320018
19.98832,4.267030113014328,0.0509711187520302
19.990716,4.295199293091024,0.050796959202567
19.993104,4.321506142048163,0.0506268080874377
19.995488,4.344367868019909,0.0504428864284124
19.997884,4.35787071656563,0.0503354836413725
20.000272,4.3692316947380725,0.0502501870083018
20.002652,4.383665708843571,0.0501436196210423
20.005052,4.394375060709956,0.0500416779585483
20.00744,4.40014904552373,0.0499629442029094
20.00982,4.406062799964364,0.0498762261641445
20.012216,4.4089035184719405,0.0498093294453433
20.014604,4.411232380300321,0.0497156939991879
20.016984,4.40904518395667,0.0496139851631154
20.01938,4.401922620560407,0.0495325152396892
20.021768,4.392797956417729,0.0494604080089323
20.024152,4.387025867461824,0.0493501880413623
