Time,Force,Position
19.148136,1.261601371489702,0.1267570414527506
19.150532,1.268723934885965,0.1266779447330508
19.15292,1.2746830152969726,0.1265100604090289
19.1553,1.2893493468279484,0.1256496257453019
19.157696,1.3069489446651197,0.1246549040022449
19.160084,1.322686211382734,0.1237497695877995
19.16248,1.3475028162726546,0.1221696662039641
19.164872,1.3766031619091288,0.120209309529408
19.16726,1.4074260690382998,0.1181473200098073
19.169636,1.4347566313538345,0.1164561941342847
19.172044,1.4592464751617913,0.1151630819585253
19.174428,1.4838760885966082,0.1138593211819938
19.176808,1.5065036012850084,0.1126684961428176
19.179212,1.52806017878677,0.1115712059819958
19.1816,1.5469630292360568,0.1105884468555758
19.18398,1.5649347141255654,0.1096875293230843
19.222224,1.6585045298071364,0.1090106138311339
19.224612,1.6628808183523074,0.1089079098268712
19.226992,1.6703301428305342,0.1086589197816147
19.229396,1.6805729639880955,0.1083196754573505
19.231784,1.6889534540261004,0.1080424332765597
19.234164,1.6969146351835247,0.1078485867623789
19.23656,1.704596277087229,0.1077155332519603
19.238948,1.715350954923988,0.1074277622856817
19.241328,1.7230325968276916,0.1072878107729536
19.243724,1.731924943544894,0.1070533683022419
19.246112,1.7378840239559017,0.1069499567342139
19.248488,1.7461247443670458,0.1067068919095991
19.250896,1.7595803710845233,0.1061914557116044
19.25328,1.775038098548417,0.1056167307835894
19.25566,1.7907753652660314,0.1050101683410815
19.258064,1.8086545023569227,0.104293120457205
19.260452,1.8286755098210916,0.1034648888223659
19.262832,1.852421179524373,0.1025196951899079
19.265228,1.8737454396006576,0.1017758833982689
19.267616,1.8882720015047736,0.1012557249119317
19.269996,1.9061039167674216,0.1007159104711644
19.272392,1.9205832568432943,0.1003663873137907
19.27478,1.9291960643067767,0.1002291828598213
19.277164,1.9340842095311452,0.1001983676915583
19.27956,1.942836786621488,0.1000407296542967
19.281948,1.9529398381521887,0.0997818786318772
19.284328,1.963462198563471,0.099454640034094
19.286728,1.9722619974820563,0.0991544287726553
19.289116,1.9870680986398923,0.0986382440088598
19.291496,2.004667696477064,0.0980620080605098
19.293892,2.0222672943142346,0.0974857721121598
19.296276,2.035350833979374,0.0970120362553106
19.298672,2.0473634384578747,0.0965979193830134
19.301068,2.054300906256904,0.0963715210165324
19.303452,2.056163237376461,0.0963263527080959
19.305832,2.0608190651753526,0.0962195930084976
19.308228,2.0654748929742444,0.0961158789922917
19.310616,2.0691995552133573,0.0960350948653352
19.312996,2.072412360773273,0.0959088429523657
19.3154,2.081911007826159,0.0955428427105473
19.317788,2.0878247622667927,0.0952397886980938
19.320168,2.096020156707564,0.0948275181655179
19.322564,2.110082083760725,0.0942462344141213
19.324948,2.126937507493221,0.0935977782289332
19.327328,2.138717794546245,0.0931240361289006
19.329732,2.1494271464126298,0.0926979437441873
19.33212,2.1569236927191,0.0923990244673064
19.3345,2.1689362971976003,0.0920302041651906
19.336896,2.175733995369769,0.0918527673266639
19.339284,2.1837423983554367,0.0916261084772613
19.34168,2.193892671714381,0.0913279338128674
19.344072,2.207767607312439,0.0909626235361097
19.34646,2.2208511469775787,0.0905978755345162
19.34884,2.2347260825756368,0.0902243015713866
19.351236,2.253955694106887,0.0896536063078261
19.353624,2.2665273770928285,0.0892346982909804
19.356004,2.278028124892133,0.088858144454863
19.358408,2.2910191167586555,0.0883955114542999
19.360796,2.302799403811679,0.0879904596635007
19.363176,2.3161624827305385,0.0876088729670089
19.365572,2.3304567272091767,0.0872090018989201
19.367956,2.3426091013145385,0.0868809463515799
19.37034,2.350897043553926,0.08663977174379
19.372744,2.3594645250470343,0.0863640105392963
19.375128,2.369382480980501,0.0860072130298321
19.377508,2.379160667287109,0.0856692941795572
19.379904,2.391872119899911,0.0852608977595715
19.382292,2.3969944784076267,0.0849977575528021
19.384688,2.406400577661896,0.0845957432370744
19.387084,2.40700687799758,0.084392158848718
19.389472,2.4053315383331264,0.084279854185353
19.391852,2.401374558668536,0.0842569546327823
19.394248,2.398348744563723,0.084218577072104
19.396632,2.3994669015786045,0.0840642835217141
19.399016,2.399374353779988,0.0839644725472016
19.40142,2.403146237847345,0.083788704798046
19.413352,2.418137434602415,0.0836658208431258
19.415748,2.4226534927744465,0.0836182720367798
19.418132,2.429823277998952,0.0835496123393625
19.420528,2.439646790275933,0.083466141957076
19.422924,2.4514724032993307,0.0833423157826005
19.425312,2.466510821882644,0.0831331359504518
19.427692,2.48075784453304,0.0829207868886137
19.430088,2.5010111694226853,0.0825808739818603
19.432476,2.5143270265133024,0.0823784196023853
19.434856,2.53364918584317,0.0820430071200427
19.43726,2.554042280359676,0.0816776624793285
19.439648,2.574063287823844,0.0812497106837075
19.442028,2.592873590474514,0.0808730041128668
19.444428,2.6071678349531524,0.080545566778237
19.446816,2.618389043498736,0.0802884137795586
19.449196,2.626676985738124,0.0800848151702053
19.451592,2.6364551720447307,0.079803365258273
19.45398,2.6441387098063034,0.0794657882409567
19.45636,2.655035053127792,0.0790422696136591
19.458756,2.659692776784553,0.0786631850792889
19.461144,2.665049348575615,0.0782008349170259
19.463524,2.671709172978792,0.0777911490386815
19.46592,2.6761345792100752,0.0773476711210213
19.468308,2.6739020568960505,0.0769979686212198
19.470692,2.6733920960747217,0.0766496564647813
19.473084,2.667155372267864,0.0763779713462287
19.475476,2.661849814020784,0.0760968252882924
19.477872,2.6554733205870646,0.0758432887358114
19.480268,2.6521698630864017,0.0755239156150306
19.482656,2.6487266359588784,0.0752230512353384
19.485036,2.6438403865923785,0.0748904802371705
19.487432,2.6397455331587967,0.0745641428056405
19.48982,2.637792550098492,0.0741890767145615
19.4922,2.637282589277164,0.073843458680891
19.494596,2.640776829948669,0.0734287417659363
19.496984,2.6501376032325648,0.072932270395931
19.499364,2.6585672109566825,0.07245490545114
19.50176,2.672444042412609,0.0719511983727465
19.504148,2.6851101690550374,0.0714952740406253
19.506532,2.7032235194292755,0.0710052220245057
19.508928,2.7226401224156294,0.0705764476169158
19.511312,2.7414050990959247,0.0701296834975083
19.513708,2.760681932455418,0.0697240895285768
19.516108,2.7807501617478296,0.0693162279326123
19.518496,2.7977453551071862,0.0689673056018248
19.520876,2.818325441078795,0.0686025499820593
19.523272,2.835832491117349,0.0682899016799837
19.52566,2.852408375596125,0.0679882424168465
19.52804,2.870567051940737,0.0677035438713061
19.53044,2.8884461890316286,0.0674528276325671
19.566276,2.981511731465479,0.0674230684812692
19.568664,2.985236393704592,0.0674010294127231
19.571044,2.9929652574365395,0.0673284323735665
19.57344,3.001345747474544,0.0672791163957806
19.575828,3.009214380833352,0.0671934803306624
19.578224,3.0165711575129617,0.0670717143854005
19.580616,3.020482811207178,0.0669426445160414
19.583004,3.0285384360210883,0.0667537204699503
19.585384,3.0384563919545555,0.0665554849146708
19.58778,3.045161542328107,0.0664150428530232
19.590168,3.056150433448213,0.0662019956470309
19.592552,3.07221446124779,0.0659234282435965
19.594948,3.097125509794197,0.0654672295045477
19.597336,3.12389888946016,0.0650035484558234
19.599728,3.1486701683797063,0.064558991313786
19.602124,3.1695770154332794,0.0641519074147
19.604512,3.192625732860131,0.0637097560248779
19.606896,3.218747486220036,0.0632298408822866
19.609292,3.241796203646885,0.0627989365373833
19.61168,3.2651244603274554,0.0623553167159935
19.61406,3.288592486634886,0.0619050487254623
19.616456,3.3100584121959,0.0614821832548401
19.61884,3.331664107383774,0.0610551939366249
19.62122,3.353828881079088,0.0605820297082948
19.62362,3.378787151453737,0.0601072062290063
19.626004,3.406538918507722,0.0596315939510582
19.628388,3.438434656681401,0.0591093135877492
19.630784,3.463253157429192,0.058662834520988
19.633172,3.4880716581769806,0.058221310058402
19.635568,3.5175932085519053,0.0576912653409832
19.637964,3.5429707878071364,0.0572151644492757
19.640356,3.5641118481440555,0.0567220397366429
19.642736,3.5806896284807013,0.056317906142675
19.645132,3.5961964736307075,0.055929523059311
19.64752,3.616918225087046,0.0554862389961995
19.649904,3.6442979050886937,0.0550234470979843
19.6523,3.668884088411006,0.0545693257210905
19.654684,3.695192833226014,0.0541335103944256
19.657068,3.71805645505563,0.0536786873958718
19.659464,3.735425631325193,0.0533023352092206
19.661852,3.7487906061019216,0.0529546838964535
19.664232,3.762015811251791,0.052619046062923
19.666628,3.7732389156552415,0.0523011178971283
19.669016,3.782459919312279,0.051999440009296
19.671396,3.788747656663119,0.0517160461852442
19.673792,3.7911709621479854,0.0514503720600435
19.67618,3.790381462072937,0.0512219538324403
19.67856,3.798531530543333,0.0509433351719987
