Time,Force,Position
20.072808,1.4060638769250644,0.1093946552138323
20.099096,1.4780336849923692,0.1089962302482698
20.101476,1.4855755572692126,0.1088684618841596
20.103876,1.492977659919196,0.1087759017999398
20.10626,1.5033130288753749,0.1085544609573199
20.108644,1.5096441963387195,0.1085326424132686
20.11104,1.5230526012279535,0.1081095780402643
20.113428,1.536181466863467,0.1077620633718967
20.115812,1.5482393973123425,0.1074899512558913
20.118208,1.5575038310818825,0.1073271022987276
20.120596,1.5689101352246997,0.1070349424438036
20.122976,1.5803164393675166,0.1067477622959197
20.125372,1.5929334483238324,0.1063534186638301
20.12776,1.6072730187728446,0.1059390666480335
20.130144,1.6198900277291604,0.1055591579804638
20.13254,1.6326468063123365,0.1051513704001731
20.134928,1.6452638152686525,0.1047810188417547
20.137312,1.666960162397274,0.1039855339024445
20.139708,1.67957717135359,0.1036468148093662
20.142096,1.6983402521760167,0.1030195027285329
20.14448,1.7151012322520265,0.1024853855755724
20.146876,1.728649406768121,0.1021114094855428
20.149264,1.7383331494182412,0.1018944043275369
20.151648,1.7470857265085833,0.1017070053078363
20.154044,1.753044806919591,0.1016149331537138
20.156428,1.762496232144234,0.1012996283210903
20.158824,1.769945556622461,0.1010685602351746
20.16122,1.7766034851677694,0.1008396582503344
20.163608,1.7819109392727188,0.1007184313730765
20.165988,1.789872120430143,0.100537277236058
20.168384,1.7950398049082326,0.1004459214700458
20.170772,1.8030009860656568,0.1002764418636062
20.173156,1.8118933327828592,0.1000813837998431
20.175552,1.815058916514532,0.1000776060282593
20.177936,1.822880328045096,0.0999391886849842
20.185104,1.8419210522633735,0.0997736439176271
20.192284,1.8596113020412923,0.0997391949306456
20.194664,1.873950872490305,0.0994645416125464
20.19706,1.8913634788723723,0.0990739667844175
20.199448,1.9099867900679388,0.098615279432265
20.201832,1.930612202009922,0.0980979536822181
20.204228,1.948676434698048,0.0977563535667424
20.206616,1.9716760344387847,0.0972699952336353
20.208996,1.9946756341795229,0.0967836369005283
20.211392,2.021027809107036,0.0961356716484351
20.21378,2.046868127355352,0.0954600211112057
20.216164,2.0753621726561424,0.0947452789338231
20.21856,2.100643412397017,0.0941764554699544
20.220944,2.127135356951391,0.0935634946725825
20.223328,2.1580508118791792,0.0927472916667094
20.225724,2.188314640500909,0.0919580930286462
20.228112,2.213782871696887,0.0912887484131621
20.230508,2.243115534758839,0.0905247047535036
20.232904,2.2704460970743736,0.0897888259891878
20.235292,2.293772457897075,0.0891859400488852
20.237672,2.3125827605477447,0.0886555804598261
20.240068,2.3326037680119134,0.0880750605833887
20.242456,2.3455475380501927,0.0877179585804953
20.24484,2.355558041782277,0.0874386274566768
20.247244,2.365428775887501,0.0871849317809468
20.249628,2.374228574806086,0.0869746034670356
20.252012,2.383587452232112,0.0866827487063982
20.254408,2.3860088618591098,0.0865686286995142
20.256796,2.3904323722325245,0.0864036173540956
20.259176,2.396066587419438,0.0861908739838065
20.261572,2.3984879970464354,0.0860820605399394
20.26396,2.401188945927153,0.0859370299497168
20.26634,2.4043092036884515,0.0857338582130004
20.26874,2.4042166558898344,0.0856334794668753
20.273512,2.3993285106654656,0.0856227544238434
20.275908,2.398816653986268,0.0855803396881508
20.278296,2.397373631747292,0.085551622220234
20.280676,2.401005746187788,0.0853996982016362
20.283072,2.4066399613747014,0.0852015861307718
20.28546,2.4158590691738677,0.0849655005686697
20.287844,2.420282579547282,0.0848166135292884
20.29024,2.430060765853889,0.0845073499752726
20.292628,2.444914088839968,0.0840845296948594
20.295008,2.459907181452908,0.0836494255145749
20.297408,2.4699649070132343,0.083308328704664
20.299796,2.481465654812538,0.0830007087922307
20.302176,2.501114575224369,0.082503157261343
20.304576,2.518621625262923,0.0820730985332873
20.306964,2.5309137689951444,0.0817824815638525
20.37626,2.513550280299189,0.0814633150817662
20.378648,2.512107258060213,0.0814335284631569
20.381032,2.513737271754293,0.081336717939538
20.383432,2.5175091558216494,0.0811850993909608
20.38582,2.526216406941617,0.0809428185657701
20.3882,2.5441427658607525,0.0804995470782542
20.3906,2.564862621459222,0.080025289861549
20.392988,2.5833008370575543,0.0796303374798513
20.395372,2.604113240454641,0.0792574809506113
20.397768,2.625344952732308,0.078835402506518
20.400156,2.6529550543015628,0.0783651041483833
20.40254,2.681636091057457,0.0778831781274976
20.404936,2.709385962253572,0.0774139970296302
20.407328,2.739137934196105,0.0769157066860054
20.409704,2.7714038635642524,0.0764326324784597
20.412108,2.7990139651335078,0.0760114884142948
20.414492,2.8332819952480706,0.07552033140191
20.416872,2.8706230612956896,0.0749733329462471
20.419276,2.912387637716724,0.074320207747589
20.421664,2.9594596682427063,0.0736506680290418
20.424044,3.0066714683955493,0.0729754917014648
20.426448,3.0495995278018384,0.0724311902759416
20.428832,3.093598522394766,0.0718851236722104
20.431212,3.138808221801192,0.0713254327148063
20.433608,3.183366294901561,0.0707570164125523
20.435996,3.22070736094918,0.0703168083969623
20.438376,3.255394699944324,0.0698865300713591
20.440772,3.293015305245664,0.0694268758771998
20.44316,3.328913349054307,0.0689690144031205
20.44554,3.3634609184225908,0.0685585471841101
20.447936,3.394563364805483,0.06816006588229
20.450324,3.4235239408150973,0.067806772515891
20.452704,3.45355545201135,0.0674371646511281
20.536344,3.5625452526179173,0.0671138450792198
20.538728,3.554491523661876,0.0670520891264306
20.541124,3.5420615061606635,0.0669882786404615
20.543512,3.5327045245925057,0.0668859446430975
20.545892,3.525489413397626,0.0667490347786325
20.548288,3.515341035896551,0.0666374936940683
20.550676,3.511478499888446,0.0664386077355268
20.553056,3.514041575000173,0.0661421928988481
20.555452,3.513671383805705,0.0658688985110148
20.55784,3.508645364812345,0.0656180008895012
20.560236,3.501617245072569,0.0653873127657513
20.562632,3.4970105349597898,0.0650986052177445
20.56502,3.4984101270862613,0.0647509431404741
20.567404,3.499809719212732,0.0644036449180106
20.5698,3.503770490593062,0.0639865087600938
20.572184,3.5060087004806944,0.0635633445063941
20.574568,3.5122511118611603,0.0630980971792239
20.576964,3.523940746973436,0.0626197543356859
20.579352,3.534419677272214,0.0621658494147486
20.581732,3.545829773130769,0.0617077045469912
20.584128,3.5541668330562697,0.0612883126027628
20.586516,3.5575685259291587,0.0609148993167492
20.588896,3.563344406600801,0.0605668916870788
20.591292,3.572193323205498,0.060188680646322
20.59368,3.57782943425028,0.0598569995397858
20.596076,3.585467646041479,0.0595049389840942
20.598472,3.5861683900336505,0.059213866723719
20.60086,3.5819337669732088,0.0589645101674149
20.60324,3.5807721798458214,0.0586804591765038
20.605636,3.583475024584409,0.0583732400487184
20.608024,3.58990253156211,0.0580569267750244
20.610408,3.5979128304056465,0.0577618920602672
20.612804,3.6017791581294896,0.0575159708784309
20.615192,3.606576651413111,0.0572687249037976
20.617572,3.6140278717492063,0.0570293794676636
20.619968,3.6250639846975554,0.0567929209487283
20.622356,3.638102198392321,0.0565458619887189
20.62474,3.650349016154168,0.0562930501768783
20.627136,3.667810740222349,0.0559880301329214
20.629524,3.688485269850444,0.0556503790798134
20.631908,3.7122328354115943,0.0552880587334124
20.634304,3.736911566532525,0.054922726176902
20.636692,3.7614505280265935,0.0545695484544501
20.639072,3.779843417654552,0.0542715702430172
20.641476,3.801169573588705,0.0539577172275912
20.643864,3.823426895082637,0.0536446435590448
20.646244,3.85155074918896,0.0533022439727464
20.648644,3.882328330347757,0.0529702015425304
20.651032,3.91482847299925,0.0526511165656966
20.653412,3.944255579717688,0.0523603513361604
20.655808,3.971168729010512,0.0520576109654244
20.658196,3.99514861199714,0.0517703965327445
20.660576,4.01833709905085,0.0514736032292386
20.662972,4.038312780544644,0.0512105380921354
20.665364,4.052282159799189,0.0509862136897515
