Time,Force,Position
21.396676,1.0149039073650634,0.1560374240243925
21.399068,1.0265878549037315,0.1558567110462253
21.401456,1.0441383350547904,0.1549877600211321
21.403852,1.0594543970339547,0.154186076314742
21.406244,1.078682112707336,0.1527184505532616
21.408628,1.093533539835546,0.1516631381135081
21.411012,1.1082451973368956,0.1506497244505779
21.413408,1.1236084811443037,0.1496139981577321
21.415796,1.141113635324988,0.1483292778889157
21.418176,1.153031796147003,0.1475893243218895
21.420572,1.1706767199545476,0.1462933572297406
21.42296,1.1861797733888155,0.1453248238969763
21.425356,1.2064784242488351,0.1439692988079131
21.42776,1.2238438088026595,0.1428655786914667
21.430144,1.2378566181697084,0.1422218564544393
21.432528,1.2492157004842823,0.1417572408181729
21.434924,1.2677917898516058,0.1405931545019991
21.437308,1.2866474184726493,0.1392654749527193
21.439692,1.3052707296682158,0.1378012900679036
21.442096,1.3200296089978087,0.136724408420742
21.44448,1.3318552220212063,0.1359466943457128
21.44686,1.340095942432351,0.1354075189370167
21.449264,1.345682935791021,0.1350248137248885
21.451652,1.3539236562021657,0.1345011921272267
21.454032,1.3609064499715684,0.1343560545011572
21.456428,1.3725450715398628,0.1339421973161413
21.458816,1.3863255634814344,0.1333559319325848
21.461196,1.4042500265426998,0.132475007658454
21.463592,1.420032619230688,0.1317876800454038
21.46598,1.4446150108372615,0.130604619992289
21.46836,1.4705478768841944,0.1293955935907637
21.470756,1.4961086558787895,0.1281141225815513
21.47314,1.5180845422611318,0.1270377628104175
21.47552,1.544856026069226,0.125719699684853
21.477924,1.5719070491310403,0.1243240295614544
21.480312,1.5997494681257731,0.1228935366890335
21.482692,1.6218651241349755,0.1218171096078677
21.485096,1.6449119457039565,0.1206759701283436
21.487484,1.6701931854448313,0.1195710880813266
21.489864,1.7021323537310145,0.1182215605797628
21.49226,1.7282049894048075,0.1170874858831053
21.494648,1.7550690210115183,0.1159228224872165
21.54244,1.8405832118791787,0.1150461576840731
21.549604,1.8421660037450152,0.1150382519908653
21.554372,1.8520820638206128,0.1148987096649471
21.556776,1.8580411442316207,0.1147803420925598
21.559164,1.8665141820682427,0.1146276199246877
21.561544,1.8788516517708385,0.1143051743899896
21.56394,1.8933309918467107,0.113844361220777
21.566328,1.909021036736082,0.1133113212432873
21.568708,1.9277841175585084,0.1126108558385849
21.592612,1.9817841365941744,0.1123748692518212
21.595,1.9904894918562728,0.1123288259699144
21.59738,1.9997539256258132,0.1121891514290185
21.599784,2.0082269634624352,0.1120575678071348
21.602172,2.0240567779786667,0.1116044783765751
21.604548,2.040817758054677,0.1111370133212973
21.606944,2.0559959462648503,0.1106944642081298
21.609332,2.0743869400349397,0.110124018455664
21.611708,2.093057473058749,0.1095086969313797
21.614112,2.105721703843308,0.1090990758191884
21.6165,2.1145215027618933,0.1088051623562416
21.61888,2.128675977613672,0.1082764714857151
21.621284,2.1484646676523624,0.1074649046681795
21.623668,2.163690077690779,0.1068906130069759
21.626048,2.1859927251550846,0.1060418088453762
21.628444,2.2157446970976173,0.1049920925488446
21.630832,2.24549666904015,0.1039738782971154
21.633228,2.276599115423041,0.1028666928983853
21.635624,2.301275950686101,0.1020746628611031
21.638008,2.324881850762523,0.1013027555050884
21.640392,2.348767290092665,0.1005100180348523
21.642788,2.3703710894226697,0.0998519139339499
21.645172,2.388901852819618,0.0993080814151407
21.647556,2.40664122028365,0.0987712621887147
21.64996,2.4178152070009897,0.0985210785950197
21.659516,2.436855931219268,0.09839472305556
21.661896,2.444537573122972,0.0983110316359673
21.6643,2.461950179505039,0.0979722447781627
21.666688,2.476010210700331,0.0977817288242656
21.669068,2.488859537082124,0.0976614044938295
21.671464,2.505992604210471,0.0973882004988649
21.673852,2.5208440313386817,0.0972177626294187
21.676232,2.529317069175304,0.0971549162705935
21.678636,2.536719171825287,0.0971293233971878
21.68102,2.5449126704081886,0.0971073963290286
21.6834,2.5564587441778657,0.0969639661539482
21.685804,2.573871350559933,0.0966856279467736
21.688188,2.588210921008945,0.096494785825099
21.690568,2.6017590955250403,0.0963029949957716
21.692972,2.616378205227773,0.0960740809577086
21.69536,2.631788710863424,0.0958494044568994
21.69774,2.6457561942600987,0.0955936588377436
21.700136,2.6566506417237186,0.0954243484352473
21.702524,2.676344888105923,0.0950422927238174
21.704904,2.6977616959808244,0.0946474614624806
21.7073,2.7233224749754195,0.0941437458175383
21.709688,2.747672549156516,0.0937021642807312
21.712068,2.7632228244190267,0.0934713334715645
21.714464,2.778912869308398,0.093222104529125
21.716852,2.7884568423316582,0.0931332701507467
21.719232,2.7980008153549187,0.0930490875381304
21.721628,2.805822226885483,0.0929781617511279
21.724016,2.815505969535604,0.0928744089314379
21.726412,2.823467150693028,0.0927842993054933
21.728808,2.8298455399846163,0.0926934354225483
21.731196,2.834082058902927,0.092668826206957
21.733576,2.836735785955402,0.0926422330783145
21.735972,2.843673253754431,0.0924945651629277
21.73836,2.8506107215534597,0.092346897247541
21.74074,2.8626233260319607,0.092088908357219
21.743136,2.877569196816657,0.0917834161070953
21.745524,2.897170895400244,0.0914101726096108
21.747904,2.922639126596222,0.0909303877955813
21.750304,2.942660134060391,0.0905237187601726
21.752688,2.958025313725668,0.090176923781871
21.755068,2.9684551263383323,0.089930238336695
21.757468,2.977162377458301,0.0896924909288616
21.759852,2.9877319596978262,0.089425938308974
21.762232,2.9983015419373515,0.0891593856890863
21.764628,3.016227900856486,0.0887076880669146
21.767012,3.0332230942158422,0.0882772966557495
21.769396,3.052080618694755,0.0878216552338388
21.771792,3.0722886176140274,0.0873131920448556
21.774176,3.093567551719938,0.0867757077393641
21.77656,3.11214553694513,0.0863490618432508
21.778972,3.1307235221703227,0.0859224159471375
21.78136,3.1472994066491,0.0855433760425941
21.78374,3.1566582840751254,0.085326304467248
21.78614,3.168159031874429,0.0850580244709938
21.788524,3.172722311874703,0.0849217878054054
21.79092,3.171698598516308,0.0848552193395884
21.793316,3.170954424411633,0.084759965897187
21.795704,3.168487688814262,0.0846727969179548
21.798084,3.168954219523085,0.0845406260095025
21.800488,3.1715626206051866,0.0843570169861254
21.802876,3.176173122433704,0.0841382883190023
21.805256,3.181994329075721,0.0838800645738767
21.807652,3.1902369453447346,0.0835466880100908
21.81004,3.2016923671736635,0.0831461387454553
21.81242,3.208072652323121,0.0828401038430662
21.814824,3.209377800793106,0.0826226638056588
21.817212,3.210031322957033,0.0823876743413827
21.819596,3.2062613347475457,0.0822617722658365
21.821992,3.2054246128442543,0.0820936979274663
21.82438,3.209151170941236,0.0818026591463496
21.82676,3.2128777290382184,0.0815116203652329
21.82916,3.214462416761924,0.0812664670287704
21.831544,3.224846903404215,0.0808917434653043
21.833928,3.23215835411345,0.0805766685451769
21.836324,3.244265402248438,0.0802014713494274
21.838708,3.257024076689484,0.0798405423025496
21.841092,3.2697827511305286,0.0794880367424099
21.843496,3.277326519265241,0.0792368240733504
21.845884,3.280866085907121,0.0790512509401992
21.848264,3.290923811467448,0.0788070039415807
21.850664,3.298839666654499,0.078607968837407
21.853052,3.310340414453802,0.0783923711822902
21.855432,3.317417651879691,0.0782789160166629
21.857828,3.323144414865221,0.0782167649064314
21.860216,3.332456070463004,0.0781348235159318
21.862596,3.348844963486676,0.0779412331451168
21.864992,3.364954317256628,0.0777757088557788
21.867376,3.3872097428926904,0.0775073944430038
21.86976,3.403458866289503,0.0773292714977696
21.872164,3.421710090432732,0.0771312442240233
21.874552,3.440101084202821,0.0769209745272299
21.876932,3.4614253442791054,0.0766724730243188
21.879328,3.476091675810081,0.0764945766313313
21.881716,3.4956933743936696,0.0762575602476477
21.884096,3.5083576051782286,0.0761096235521212
21.886496,3.524234641522704,0.0759023188174926
21.88888,3.534896771560846,0.0757825570145429
21.891264,3.547700771972265,0.0756184006259736
21.89366,3.562367103503241,0.0754372683311671
21.896048,3.568513175369352,0.0753403030845992
21.898444,3.5768011176087398,0.0752023674660365
21.90084,3.5792225272357365,0.0751360714086458
21.903228,3.586998612795927,0.0749691312613155
21.905608,3.589047935370587,0.0748585975206272
21.908004,3.5925875020124654,0.0746920313800228
21.910392,3.5919830975346505,0.0745929586141078
21.912776,3.5953828945496698,0.0744424036266177
21.915172,3.5985031523109687,0.0743192930328818
21.91756,3.6074899426846576,0.0741318956608361
21.91994,3.6093994956324575,0.0740402962119615
21.922332,3.6122402141400354,0.0739427268576573
21.92472,3.614289536714695,0.0738398909306941
21.927112,3.619411895222411,0.0736938120499928
21.929508,3.615454915557821,0.0736652040707569
21.931896,3.617783777386201,0.0735370408681693
21.934276,3.614897732908248,0.073489635655333
21.93668,3.617366364363488,0.0733486274193256
21.939064,3.623978966938423,0.073147194494144
21.941444,3.630451799886498,0.0729576162393135
21.94384,3.640649295073685,0.0727411636698635
21.946224,3.649124228768176,0.0725264367624756
21.948608,3.659880802462804,0.072261192189904
21.951004,3.669426671343934,0.0720322244237362
21.953392,3.683907907277676,0.0717458385262503
21.955788,3.693453776158806,0.0715169997502061
21.958184,3.704210349853435,0.0712571608384118
21.960568,3.7078896861221744,0.0710883507564887
21.962948,3.707844360151801,0.0709441273600335
21.965344,3.70007017044948,0.0708709467382671
21.967732,3.696160412613133,0.0707615414025557
21.970112,3.694112985896342,0.0706410929778557
21.972508,3.693136494366189,0.0705031839651351
21.974896,3.691880463582317,0.070389679284859
21.977276,3.699983310224471,0.0701421432805196
21.97968,3.705804516866487,0.0699434827312665
21.982068,3.71390736350864,0.0696951600848658
21.984448,3.719588800523797,0.0695074336457676
21.986856,3.723128367165675,0.0693567809747907
21.98924,3.7300205089943295,0.0691460341552963
21.991624,3.7373319597035657,0.0689028907397167
21.99402,3.7462262022786375,0.0686734277818285
21.996408,3.758705337465962,0.0684399301404906
21.998788,3.765178170414037,0.0682677613741176
22.001184,3.7716510033621113,0.0680970915464319
22.003568,3.783850599295716,0.0678893075871866
22.005952,3.79712113041596,0.0676677410844852
22.008356,3.8138840063498383,0.0673744848237456
22.01074,3.832648983030134,0.0670614376177354
22.01312,3.861424463442514,0.0666488060610816
22.015524,3.889548317548836,0.0662214270610614
22.017912,3.9139475094160456,0.0658161171288254
22.020292,3.938998327589312,0.0654340607216425
22.022688,3.9643286850163,0.0650340002905202
22.025076,3.985375301696733,0.0647011800502612
22.027456,4.005630522444247,0.0643611129730738
22.029852,4.030681340617514,0.0639962665538304
22.03224,4.0589449643506965,0.0635921112197656
22.03462,4.085066717710601,0.0632168466792869
22.03702,4.10904660069723,0.0628773762531296
22.039404,4.132746944430138,0.06256370022153
22.0418,4.152582856297071,0.0622718131020066
22.0442,4.169625271484671,0.0619951261979185
22.046584,4.191742823351744,0.0616673203115123
22.048964,4.215862475965231,0.0613282529806603
22.05136,4.232904891152831,0.0610540996627421
22.053748,4.252601033392906,0.0607860371416295
22.056132,4.275742298618373,0.060531423255774
22.058528,4.295950297537645,0.0602956013670451
22.060916,4.308941289404167,0.0601328688718838
22.063296,4.3228634468304685,0.0599692934525068
22.065696,4.33678560425677,0.0598055851258006
22.068084,4.346983099443957,0.0596525390911166
22.070464,4.357040825004285,0.0595110106115585
22.07286,4.367238320191472,0.0593598855662757
22.075248,4.379158376871357,0.0592138539810951
22.077632,4.389216102431683,0.059076098233032
22.080036,4.390613798700287,0.058978544787103
22.08242,4.392291034222608,0.0588609581916125
22.0848,4.393037104185153,0.0587460999692033
22.087196,4.392712238961058,0.0586435646878944
22.089584,4.399324841535992,0.0584963505419387
22.09198,4.401281616312036,0.0583596954513252
22.094376,4.40244699515516,0.0582160503247812
22.096764,4.401889812505589,0.0580684401260798
22.099144,4.402683104296376,0.0578879893573787
22.10154,4.396958237168715,0.0577222936244699
22.103928,4.384575441495746,0.0575804545940159
22.106312,4.375265681755831,0.0574127081373121
22.108708,4.367026857202557,0.057232422134389
22.111092,4.356785931902865,0.0570653509195848
22.113476,4.349478272909368,0.0568827912832946
22.11588,4.344452253916007,0.0566664541166116
22.118264,4.341707874922784,0.0564195392188373
22.120644,4.340965596675979,0.056160947789068
22.123048,4.337569591376698,0.0558971424682376
22.125436,4.331240319771222,0.0556479916427564
22.127816,4.332639911897694,0.0553654184183645
22.130212,4.336041604770582,0.0550707195895582
22.1326,4.33944329764347,0.0547763569855247
22.134984,4.34205359458344,0.054473380418263
22.13738,4.340939229284297,0.0541788018485199
22.139768,4.344340922157186,0.0538854442194507
22.142152,4.350675881336269,0.0535818042631592
22.144548,4.354589430888355,0.0533185457419803
22.146936,4.36544044823947,0.0530225299903504
22.149316,4.378293566337002,0.0527134747799181
22.151716,4.395150885927367,0.0523809789110978
22.154104,4.410006104771315,0.0520611577839572
