Time,Force,Position
21.04684,1.03542636728228,0.1525258489824709
21.04922,1.061684098553307,0.1504874035329715
21.051616,1.0883611387049148,0.1483527077807847
21.054004,1.106238379937937,0.147275714176244
21.0564,1.124907017103877,0.1461789585490102
21.058796,1.150373352441986,0.1443289625742057
21.061184,1.1761192270338154,0.1424195308985501
21.063564,1.2038672023720618,0.1404151651164562
21.06596,1.2286819114041128,0.1388884755355385
21.068348,1.2514945196897471,0.13742202331688
21.070728,1.27551783278888,0.1357028619654679
21.073132,1.298098123649037,0.1341055311773205
21.120904,1.4180559609391492,0.1333209493525962
21.1233,1.4322085399330582,0.1328912277814383
21.125684,1.4471525148598852,0.1324499650115733
21.12808,1.464098590533129,0.1318498776785221
21.130484,1.4810446662063728,0.1312868312689232
21.132872,1.5005519211334744,0.1305004101184893
21.135252,1.5187087016202168,0.1298666038222705
21.137648,1.535934316547181,0.1293125889720158
21.140036,1.5527878444218082,0.1286826678429465
21.142416,1.5669876452439604,0.1281751970261186
21.144812,1.5806283675586714,0.1277919262710294
21.1472,1.5970625865527175,0.1272615608623547
21.14958,1.6124258703601253,0.1268027627820853
21.15198,1.6289998589810315,0.1262297724946434
21.154364,1.646085704281136,0.1257042915635167
21.156748,1.6729025140596037,0.1246386966321248
21.159144,1.7087986620103777,0.1229538666220059
21.161528,1.7429722484684549,0.1213268951903065
21.163912,1.777145834926532,0.1197593866637171
21.166308,1.8062442847051376,0.1185721963075258
21.190196,1.86699288422686,0.1184139989066389
21.192592,1.8731842820633444,0.1183804749523057
21.194984,1.877932657660853,0.1183342014301612
21.197372,1.884962673258499,0.1181394755405599
21.199748,1.8926443151622028,0.1179664948376144
21.202144,1.901955970759986,0.1176332933663909
21.206908,1.901955970759986,0.1176297312879487
21.209324,1.902747366692904,0.1176245961021243
21.211708,1.9042376107601235,0.1174986928833988
21.214088,1.9066590203871208,0.1173423140969613
21.216484,1.9183920856119012,0.1168783192786185
21.218872,1.9321272515830992,0.1163021777503584
21.221252,1.9429291512481013,0.11584280292914
21.223656,1.9534515116593831,0.115452810986413
21.22604,1.9727736709892505,0.1147079658749651
21.228424,1.990652808080142,0.1139211955558417
21.23082,2.0074610099843957,0.1131967110570953
21.233204,2.024361759687265,0.1126000127679989
21.2356,2.0395399478974388,0.1120396385470119
21.237992,2.0540665098015545,0.1114752138930371
21.24038,2.063378165399337,0.1111697509340595
21.242764,2.0784165839826505,0.1106789769061758
21.24516,2.090521736259769,0.1103058156833147
21.247548,2.1027666581637474,0.1099137157342439
21.249928,2.11151923525409,0.1097274378750426
21.252332,2.1239964745835453,0.1094312716236292
21.264264,2.1555125422734096,0.1092839339058432
21.266668,2.162402788244195,0.1091670193512732
21.269056,2.1732972357078144,0.1089001960894738
21.273836,2.1799079424248804,0.1088267259543512
21.276224,2.186798188395666,0.1087165114645037
21.278604,2.193036808060394,0.1085854538318264
21.281008,2.198763571045924,0.1084117585815372
21.283392,2.207283830710789,0.1081641978416721
21.285776,2.215804090375654,0.107922583275127
21.288172,2.227537155600434,0.1075370430270365
21.290556,2.2332639185859646,0.1073726837756625
21.292936,2.2407132430641914,0.1071814714302409
21.295332,2.246812093102059,0.1070783439190737
21.29772,2.255611892020645,0.1067971332982139
21.3001,2.261478424633035,0.1066118677414081
21.302504,2.2696265972455625,0.1063194929565949
21.304888,2.2799166402313675,0.1059377681213392
21.307268,2.2954215895235044,0.1053533999113784
21.309664,2.3135802658681155,0.1047383974521697
21.312048,2.3334615037054243,0.1040916706642304
21.314448,2.344542942624147,0.1037245240736094
21.316844,2.353482511169593,0.1034470835503537
21.319228,2.372292813820262,0.1028795537071994
21.321612,2.3889612460976557,0.1023960422485942
21.324016,2.403907116882352,0.101948857587265
21.326404,2.423508815465939,0.1014126934793895
21.328784,2.444321218863026,0.1008246384470668
21.38612,2.5036759138318843,0.1006666663678801
21.390904,2.507772663123335,0.1006498008763357
21.393284,2.509774763869752,0.1005959990284007
21.395688,2.514849900549224,0.1004530933333934
21.398076,2.5226259861094147,0.1001647613327284
21.40046,2.5305418412964653,0.09985732769833
21.402856,2.54097165390913,0.0995297675012543
21.405244,2.5587582432014044,0.0989670282603062
21.407624,2.572680400627705,0.0984938798954278
21.410028,2.5851123139867864,0.0981193926103003
21.412416,2.5994065584654247,0.0977167386252507
21.414796,2.613980342197784,0.0972651499163258
21.4172,2.6301369177959795,0.0968278553090733
21.419588,2.6465730326478947,0.09635976202224
21.421968,2.667153118619504,0.0957705784422567
21.424368,2.685451564590976,0.0952592032811162
21.426752,2.7056123416820044,0.0947348770166525
21.429132,2.7251214924669758,0.0941949077168073
21.431524,2.7471446006775606,0.0936532951105953
21.433908,2.769027939261286,0.0931368487786206
21.436304,2.784113579672842,0.092769912726218
21.438708,2.8049259830699294,0.0922970926004113
21.441092,2.8225255809071,0.0919251867625561
21.443472,2.838262847624714,0.0915897355873366
21.445868,2.85129916546161,0.0913846070314079
21.448256,2.8664773536717845,0.0911217948854888
21.450632,2.8814232244564804,0.0907930606580792
21.453028,2.8900832537482057,0.090635011843205
21.455416,2.90582052046582,0.0903207574551558
21.457796,2.922396404944596,0.0899155115965667
21.4602,2.936178792744036,0.0895541075159525
21.462584,2.956898648342506,0.0890635117517532
21.464964,2.9731024457689443,0.0886245492235415
21.467368,2.985441811329409,0.0882492764863101
21.469756,2.9956393065165967,0.0879351752352272
21.472136,3.007327045771004,0.0875392973519106
21.47454,3.0132880220398803,0.0872386218513291
21.476924,3.019109228681897,0.0869540705771363
21.479304,3.024418578644715,0.086642226920337
21.481708,3.0278655974879767,0.0863541676291358
21.484096,3.0361082137569912,0.0859903580715371
21.486476,3.0383445277867547,0.0857444782535905
21.488868,3.0425829425629347,0.0854591795929624
21.491256,3.046821357339116,0.0851745790469089
21.493636,3.051898389876457,0.0847950633541424
21.496032,3.053902386480743,0.0844838791887247
21.49842,3.055626843831308,0.0842043265099011
21.500816,3.059632941182011,0.083852843542615
21.503212,3.0557704051739067,0.0836422587316814
21.51276,3.0214136189764647,0.0835956031920388
21.515144,3.0168050130058166,0.083555777300488
21.517548,3.0131275725949465,0.0835049315030469
21.519932,3.0143854992366887,0.0833708629984602
21.522316,3.0184369225577656,0.0832043921100988
21.524712,3.0235592810654808,0.083013403775706
21.5271,3.0274709347596978,0.0828654982237971
21.52948,3.0344556243869696,0.082659407480576
21.531884,3.0414403140142414,0.0824574426619531
21.534272,3.052429205134348,0.082185549401686
21.536652,3.063418096254453,0.0819159400014026
21.539048,3.0739876784939777,0.0816889949874875
21.541436,3.089724945211592,0.0814538316237752
21.543816,3.1071847734219027,0.081213135046114
21.546216,3.12622739349805,0.0809844047779242
21.5486,3.1500656109999485,0.0807053370742589
21.550984,3.1785596563007394,0.0803791209162955
21.553388,3.209475111228528,0.0799753328835922
21.555776,3.2383884654098978,0.0796065772292896
21.558156,3.2743790570171583,0.0791142098964142
21.560552,3.30929871343778,0.0786460010800945
21.56294,3.3408657946716254,0.0782678911377765
21.56532,3.3713619407188324,0.0779132030100844
21.567716,3.397574346019486,0.0776581269272673
21.570104,3.422855585760361,0.0774131207558144
21.572484,3.445994955127959,0.0772125232012971
21.574884,3.467923619682058,0.077048639446344
21.577272,3.488641579422658,0.0769246267173529
21.579652,3.5074972080437017,0.0768203075359832
21.582056,3.5290065637172203,0.0767096631073241
21.584444,3.55093522827132,0.0765643352146996
21.586824,3.574214367265778,0.0763725755668463
21.589224,3.592046282528426,0.0762181432707574
21.591612,3.612299607418071,0.0760033534405146
21.593992,3.630690601188161,0.0758034969398175
21.596396,3.639210860853025,0.0757260945952141
21.598784,3.6460085590251934,0.0756515830477955
21.601164,3.651455782757004,0.0756213448475741
21.60356,3.6573223153693935,0.0755542313521667
21.605944,3.6590448768620902,0.0755525905501786
21.608328,3.660907207981648,0.07553860521948
21.610724,3.662117912795146,0.0755068304105955
21.613108,3.664679092049004,0.0754312990496347
21.615492,3.666448875369943,0.0753501680623326
21.641792,3.609419250513727,0.0752734476180927
21.644172,3.604391335662499,0.0752657441346205
21.646568,3.5993634208112693,0.0752577054122208
21.648956,3.5939634189077028,0.0752073004372872
21.651336,3.5902859784968326,0.07515526030411
21.65374,3.589821343645878,0.0750466518142321
21.656128,3.592709283981699,0.0748714521413264
21.658508,3.597459555437077,0.0746833897805372
21.660904,3.600207726146038,0.0745207011124075
21.663292,3.6061687024149145,0.0743043891594218
21.665672,3.615482253870567,0.0740256870942086
21.668076,3.624144179020161,0.0737334262866155
21.670464,3.6357393704759513,0.073414425491112
21.672844,3.652269928984353,0.0730423504089707
21.67524,3.674946559358866,0.0725903668852918
21.677632,3.702046700106792,0.0720505644491399
21.680012,3.7286349841755215,0.0714839501860599
21.682408,3.7580167649235854,0.0709113538791509
21.684796,3.78181155231298,0.0703692829144633
21.687176,3.807748210075652,0.0697944508047481
21.68958,3.8361988252639376,0.069235765430784
21.691968,3.863718274892444,0.0686897463012834
21.694348,3.8929602860136487,0.0681490589136102
21.696744,3.922062527507992,0.067619599405939
21.699132,3.9493024378827792,0.0671056960149373
21.701512,3.974400477884289,0.0666293334526902
21.703908,3.9921417412061895,0.0662548863575345
21.706296,4.009371147848893,0.0658546067365037
21.70868,4.030604755984429,0.0654186366333908
21.711076,4.048625558560049,0.0650327924715906
21.71346,4.061291685202478,0.0647265992303662
21.715844,4.073678272591186,0.064445736532639
21.71824,4.081641349606479,0.0642356413525875
21.720628,4.088673261061994,0.0640318781824814
21.723024,4.094214928450291,0.0638778329532274
21.72542,4.104272654010617,0.063718828112412
21.727808,4.115121775503863,0.0635680511855054
21.730192,4.121594608451938,0.0634164031486008
21.732588,4.134865139572181,0.0632201119345135
21.734976,4.1470647355057855,0.0630392153643577
21.737356,4.155539669200277,0.0628730635980864
21.739752,4.166436012521765,0.0626635843263475
21.74214,4.175749563977417,0.0624416927809426
21.744524,4.187996381739265,0.0622024681667177
21.746916,4.200103429874253,0.0619736233939746
21.749304,4.213281413195879,0.0617328692707401
21.751684,4.232325929129895,0.0614523271244739
21.754088,4.25095113618333,0.061203523321405
21.756472,4.265152832863351,0.0610177557524166
21.758852,4.282287795849568,0.0608145778326452
21.761248,4.301285089955341,0.0606036335541284
21.763636,4.321073779994032,0.0604020800225136
21.766032,4.34435481484636,0.0601410012430068
21.768428,4.368706784885325,0.0598712634822194
21.770812,4.389613631938898,0.0595927768129071
21.773192,4.405724881566719,0.0593424294501867
21.775588,4.419834030448124,0.0591074326775394
21.777976,4.435665740822224,0.0588791314313292
21.780356,4.449635120076768,0.0586594653746945
21.782752,4.461322859331174,0.0584720421287774
21.78514,4.475804095264916,0.0582787146547602
21.787536,4.485722051198384,0.0581539806446198
21.78994,4.496431403064769,0.058037665787041
21.792324,4.506209589371377,0.0579253071303879
21.794704,4.519200581237899,0.0577806037804049
21.797108,4.531539946798365,0.0576207716607475
21.799496,4.542436290119853,0.0574384623056949
21.801876,4.557616374187896,0.0572155118269733
21.80428,4.576428572696435,0.0569340630138263
21.806668,4.595520310458694,0.0566388743423879
21.809048,4.616242061915031,0.0562991969164646
21.81144,4.63244775519934,0.0559578282769191
21.813828,4.648932987737368,0.0556025148739651
21.816208,4.661414018782562,0.0552712534615072
21.818604,4.676968085760811,0.0549189879489124
21.820992,4.693732857552559,0.0545500871246928
21.823372,4.716643701210419,0.0541439445327497
21.825776,4.736062200054642,0.053783992324727
21.828164,4.753338828525588,0.0534448038822903
21.830544,4.774107801810171,0.0530579298926264
21.83294,4.789150012109223,0.052685319282242
21.835324,4.806473862408413,0.0522844464453824
21.837704,4.821004216028267,0.0518867388861577
21.840108,4.834463634461481,0.0515007964982488
21.842496,4.843779081775003,0.051147379495581
