Time,Force,Position
20.919712,1.088941205717537,0.1485973256281176
20.922092,1.0977391087782529,0.1484687343972535
20.924496,1.1066767814658296,0.1483030756989098
20.926884,1.117197246019242,0.1480498559254303
20.929264,1.1296725894908286,0.1478762525416429
20.931668,1.142147932962415,0.147711262781829
20.934056,1.156485607553558,0.1474390339874135
20.936436,1.1707307343460842,0.1469323301389666
20.938832,1.184464004459412,0.1463581320639407
20.941224,1.1964747130800442,0.1458945942409719
20.943604,1.2086251913275363,0.1453362844607919
20.946004,1.217470316216496,0.1449728532916907
20.948388,1.2247326492396189,0.1446618865884068
20.950772,1.2317154430090218,0.1444224219319914
20.953168,1.242562668644398,0.1438093133747993
20.955556,1.2537819813321116,0.1433259062853471
20.957936,1.268725956258939,0.1425489313464899
20.960332,1.281528060812489,0.141968663846381
20.96272,1.2917689861121813,0.1417980633984923
20.9651,1.305315264770406,0.1414715585125808
20.967496,1.3173712993614115,0.1414466919139544
20.969884,1.3293347861538,0.1412623067337898
20.972268,1.3425089777596877,0.1409653479651001
20.974672,1.357825039738852,0.1404761940524271
20.97706,1.3679734172399274,0.1402260216406068
20.979444,1.3793324995545015,0.1398587824856155
20.98184,1.386035754070184,0.1397888872828042
20.984228,1.392459469332146,0.1397886744287707
20.986608,1.4036787820198595,0.1394888535478894
20.989008,1.4170399650808505,0.1390197808512505
20.991396,1.4337537233286168,0.1382508823798231
20.99378,1.4524695823228004,0.137365753496607
20.996172,1.474770333929237,0.136322616522855
20.99856,1.5018666829614251,0.1350026158929066
21.00094,1.5313844416206113,0.1335599691924208
21.003344,1.5568054509883462,0.1322021456674727
21.005728,1.578362028490108,0.1310872838738941
21.008112,1.603131411551785,0.1296887219131184
21.010504,1.6283201034940429,0.1281810567601346
21.012892,1.6483411109582116,0.1268724036264601
21.015272,1.6589106931977369,0.1260452353699045
21.017668,1.6686416576761005,0.125438929571406
21.020056,1.6759512125274667,0.1250787577924482
21.022436,1.6832607673788331,0.1247356283469184
21.024836,1.6953659196559512,0.1241190271472792
21.027224,1.7062603671195706,0.1236337942169991
21.02962,1.7216708727552217,0.1229533046116386
21.032016,1.7429479110032624,0.1219729245511475
21.0344,1.759569121452412,0.1212654610648901
21.03678,1.7761903319015615,0.12059484399233
21.039184,1.7953254997763255,0.1199246273448086
21.041572,1.808314595784979,0.1195700923449884
21.05112,1.8205576218310884,0.1195226815007879
21.053516,1.826004845562898,0.1193465821967083
21.0559,1.8335939396679848,0.1190622946289599
21.058284,1.840763724892491,0.1188557034756532
21.060688,1.8501679282888912,0.1186460182101809
21.063076,1.8722363624698504,0.1178661974747951
21.065456,1.89621434959861,0.116889576201197
21.06786,1.919540710421311,0.1158760581120303
21.070248,1.9391424090048988,0.115003735418999
21.118028,1.941983127512476,0.1146289096470821
21.120416,1.9445443067663344,0.1144556883320342
21.122796,1.950038752326387,0.114179658782976
21.1252,1.9675458023649408,0.1134507907734948
21.127588,1.9877065794559696,0.1126557400704978
21.129972,2.0083792132261964,0.1119077484887632
21.132368,2.0330560484892564,0.1110023177436743
21.134756,2.0581049708046537,0.1101140337658365
21.137136,2.080220626813857,0.109360975573538
21.139536,2.107690958756252,0.108348618532355
21.141924,2.135580599579227,0.107301253911671
21.144304,2.160909061148345,0.1064376470936835
21.19926,2.3301733471363346,0.1057986621272664
21.20164,2.3358528882936214,0.1057747094739538
21.204044,2.3496806020634367,0.1054911854109948
21.206432,2.3635083158332515,0.1052076613480357
21.208812,2.378546734416565,0.1048508143770245
21.211216,2.396146332253736,0.1043560132427085
21.2136,2.4089503326651545,0.1039824936086928
21.21598,2.418541527516658,0.1037296457787456
21.21838,2.426922017554663,0.1035381616094947
21.220764000000003,2.4386550827794435,0.1032000167974389
21.223148,2.449968839123644,0.1029170220843141
21.225552,2.4640760921471783,0.1025677853428785
21.22794,2.4835380211039064,0.1020114568082468
21.23032,2.4995076052469978,0.10163007704865
21.232724,2.5129632319644752,0.1012753057423015
21.235112,2.523904901256337,0.1009527952221851
21.237492,2.5357777361079785,0.1006074776441303
21.239888,2.54779034058648,0.1002482960984744
21.242276,2.5560782828258675,0.0999650089363774
21.244656,2.560501793199282,0.0997875054709228
21.247052,2.56264366357256,0.0997096428996651
21.24944,2.5666478650653928,0.0995953820270093
21.251816,2.565065073199557,0.0995947368899891
21.254212000000003,2.5644134468934987,0.0995758843868334
21.2566,2.566834856520496,0.0994663366937934
21.25898,2.567393935027937,0.0993936463696798
21.261376,2.572748610961129,0.099214152691828
21.263764,2.582247258014017,0.0989082352165799
21.266164,2.591234048387705,0.0985624900201838
21.26856,2.599801529880813,0.0982759595753553
21.270944,2.6105108817471985,0.0979157063277161
21.273328,2.618846045814829,0.09755669308237
21.275724,2.623688865068824,0.0973449477751712
21.278112,2.632256346561932,0.0970662737769657
21.280492,2.64054428880132,0.0968205099826255
21.282896,2.645339886227072,0.0967139605326481
21.285284,2.650787109958882,0.0966259671171561
21.287664,2.6551633985040537,0.0965746447272036
21.290068,2.664614823728697,0.0963808814176725
21.292456,2.677511371938733,0.0961562081951381
21.294836,2.690547689775629,0.095912490291965
21.297232,2.701349589440632,0.0956572640255762
21.29962,2.7103817057846946,0.0955207986720493
21.302004,2.721415922875173,0.0953379870143437
21.3044,2.7325899095925137,0.0951453412007871
21.306788,2.7422736522426345,0.0950372872353896
21.309168,2.751026229332977,0.0949478663152411
21.311564,2.758987410490401,0.0948609180120655
21.313952,2.768671153140522,0.0947609016068064
21.316332,2.776352795044226,0.0947068921028753
21.318732,2.785245141761429,0.0946070598684989
21.32112,2.7967912155311065,0.0944821348216748
21.3235,2.811689864487559,0.0942506361001265
21.325904,2.8263561960185344,0.0939623810154997
21.328292,2.845306268296064,0.0935603389879592
21.330676,2.871473347626344,0.0929823236015495
21.333072,2.8991306710238423,0.0923359351317246
21.33546,2.928929864794618,0.091641028177895
21.337844,2.9575183537518948,0.091004638786818
21.34024,2.982521950096918,0.0904090872160718
21.342628,3.010598582374997,0.089756707839413
21.345012,3.036114035399219,0.089205245692208
21.347408,3.064330437304158,0.0885263091071852
21.349796,3.088822176969984,0.0879077584550024
21.352176,3.1102408807027544,0.0873625848764578
21.354572,3.135943325182079,0.0867129764731305
21.35696,3.1597834385418477,0.0860878349648658
21.35934,3.182552616714976,0.0854968753537923
21.361744,3.206812038955326,0.0848481339772919
21.364136,3.2316305397031155,0.0841337694717721
21.366516,3.2572404363838223,0.0834423027467271
21.36892,3.283129872318251,0.0827393458815198
21.371308,3.302221610080511,0.0821404470823304
21.373688,3.317681233402274,0.0816635294164726
21.376084,3.329136655231204,0.0812625522641766
21.378472,3.3337943788879643,0.0809616666334899
21.380852,3.3335167354921134,0.0807375650279172
21.383248,3.330305825790067,0.0805571067029171
21.385636,3.3243014194086857,0.080405132208953
21.388016,3.3192281785870827,0.0802432097501985
21.390412,3.3112216714592844,0.0801238869478773
21.447752,3.2923679386961093,0.0799961336665315
21.45014,3.3021914509730905,0.0799433672965305
21.45252,3.3148084599294063,0.0798698652197185
21.454916,3.331709209632276,0.0797127031816498
21.457304,3.35275393045484,0.0794851297384581
21.459684,3.3759405216506813,0.0792245935283962
21.462084,3.403922710272274,0.0789120698629966
21.464468,3.432463977401308,0.0785388408971485
21.466864,3.458491287104726,0.0781706226754744
21.469268,3.48894210718156,0.0777137387011929
21.471656,3.517810135392557,0.0772465440378392
21.47404,3.54402443655108,0.0767960072226585
21.476436,3.5717289817768214,0.0762950511022252
21.478824,3.605719368495534,0.0756923034048513
21.481208,3.634774388161635,0.075153329371747
21.483608,3.6619670767081782,0.0746348716531495
21.485996,3.688228599694944,0.0741216537280959
21.488376,3.7115568563755135,0.0736447752511972
21.490776,3.7326034730559474,0.0732150284399011
21.493164,3.751647988989964,0.0728081471604917
21.495544,3.77055273529712,0.0724216839809946
21.497944,3.79360145272397,0.0719845454985476
21.500332,3.8105040982847096,0.0716372929259985
21.502716,3.825544412725892,0.071309625663921
21.505112,3.836999834554821,0.0709980656335304
21.507504,3.842448954144501,0.0707591054990436
21.509884,3.850179713734316,0.0704799360802215
21.51228,3.862566301123024,0.0701748027348781
21.514664,3.877327076310486,0.0698906019131948
21.517048,3.8876643411245344,0.0696868033697957
21.519444,3.901866037804556,0.0694537873629521
21.521832,3.917138669671216,0.0692068441196935
21.524212,3.933202697470793,0.0689723872252015
21.526608,3.946193689337316,0.0687786884917624
21.528992,3.963328652323532,0.0685351051113474
21.531376,3.9806033849366087,0.0682823975755186
21.533768,4.000019987922963,0.0680005257027589
21.536156,4.0212989220288735,0.0677098239258807
21.538536,4.0488636976277546,0.0673418639253204
21.540932,4.083505710652525,0.0669061669631544
21.543316,4.116145622930878,0.0664933355328751
21.545712,4.138355722596567,0.0662071485747553
21.548108,4.162847462262393,0.0658782697420468
21.550496000000003,4.185057561928082,0.0655903374982811
21.552876,4.208710683832747,0.0653263903771201
21.555272,4.23371428017777,0.0650244436996178
21.55766,4.2513610998431846,0.0648175341042595
21.56004,4.267145588389043,0.0646221985384354
21.562436,4.277622622829949,0.0644298599569207
21.564824,4.2903812972709945,0.0641985903137628
21.567208,4.300206705405845,0.0639922547426357
21.569604,4.307750473540558,0.0638248502978468
21.59112,4.245411498721524,0.06379002096508
21.593508,4.2344245034592864,0.0637523172037628
21.595888,4.224508443383688,0.0637005649489391
21.598284,4.21608262737531,0.0636048295893456
21.600672,4.205003084314456,0.063508714116132
21.603056,4.195506333119439,0.0634259473715828
21.605452,4.190153553044115,0.0632997593110077
21.60784,4.182938441849235,0.0631797864011077
21.610216,4.17837705770683,0.0630596017488411
21.61262,4.173536134310704,0.0629600054742617
21.615008,4.168555441287719,0.062870453535655
21.617388,4.1669273234515085,0.0627313475301118
21.619784,4.170933420802212,0.0625045320446641
21.622172,4.170563229607744,0.062271497944241
21.624552,4.16712000248022,0.0620688219456591
21.626948,4.165678876099114,0.0618487508343501
21.629336,4.162887275277647,0.0616629832057977
21.631732,4.165031041508794,0.0614421776139958
21.634128,4.173320879606051,0.0611617297705105
21.636512,4.185614919196142,0.0608479797864517
21.638896000000003,4.19283382210676,0.060580149625966
21.641288,4.200704351323436,0.0603345435406995
21.643676,4.206433010166836,0.06011499081676
21.646056,4.213744460876072,0.059912184606133
21.64846,4.226410587518499,0.0596490326721948
21.650848,4.241498123787926,0.0593458852352383
21.653228,4.254723328937795,0.0590482137368811
21.655628,4.270742030766999,0.058745315634004
21.658016,4.291324012596477,0.058381549515096
21.660396,4.312325303306536,0.0579923298540515
21.662792,4.332674967710537,0.0575860782154687
21.66518,4.349951596181484,0.0572079532888291
21.667564,4.36722822465243,0.0568345118834407
21.66996,4.389300450549127,0.0564418023232505
21.672348,4.412862920513045,0.0560106719139821
21.674728,4.439638196036878,0.0555511664231396
21.677124,4.464830679694873,0.0550737023852693
21.679512000000003,4.485879192233176,0.0546350313921161
21.681896,4.506648165517758,0.0542213126420965
21.684292,4.526346203615701,0.0538208531779382
21.68668,4.546044241713645,0.0534149908984494
21.68906,4.559735977572338,0.0530459650922092
21.691456,4.577711454177583,0.0526377724497486
21.693844,4.593964369290134,0.0522259347512289
21.69624,4.604722838842632,0.051877761542166
21.69864,4.609195466902159,0.0515826878604302
21.701024,4.615670195708103,0.0512770937130643
21.703408,4.617489096715154,0.0509757729048527
21.705804,4.612742616975515,0.0507450058075834
