Time,Force,Position
21.654684,1.0099367270498243,0.1551011723499554
21.657068,1.0225990619765144,0.1545126075236405
21.659472,1.0364248798884597,0.1540769264144755
21.66186,1.053975360039518,0.1533080502823652
21.66424,1.073016084257796,0.1523385810274014
21.666644,1.0954093836628496,0.1509770139435967
21.669028,1.120456410120378,0.1492843655735156
21.671408,1.1517892780708774,0.1467396904942325
21.673812,1.1836812245288175,0.1441374080161455
21.676196,1.20933455132203,0.1420552774394136
21.678576,1.2283299495699338,0.1406459850468866
21.680972,1.245602786325141,0.139322176489696
21.683356,1.2640863278938472,0.1379212824312517
21.685736,1.274980775357467,0.1371846349082618
21.688132,1.283733352447809,0.136673920745943
21.69052,1.2983524621505418,0.1356562869604742
21.692916,1.3165564644655272,0.1344658643599099
21.695312,1.3366227979000695,0.1332165865748674
21.697696,1.358039605774971,0.1318451615159359
21.70008,1.377174773649735,0.1307127832230294
21.762192,1.4709258932128022,0.1301311922644943
21.764576,1.4789796221688434,0.1299819616919997
21.766988,1.488616142990721,0.1298205785639077
21.769376,1.500626851611353,0.1296049747739864
21.771756,1.5172008402322592,0.129041090819766
21.77416,1.535404842547245,0.1283035133049276
21.776544,1.5518862833695344,0.1276079243715637
21.778924,1.5785179975507684,0.126236063557825
21.781328,1.599562718373332,0.1251889481586885
21.783716,1.613530201770007,0.1245528703935017
21.786096,1.62079253479313,0.1244205341374665
21.7885,1.6314999908016463,0.1241668239866634
21.790884,1.6534286553557451,0.1232515754374759
21.793268,1.6734949887902877,0.1224333667661578
21.795672,1.6902087470380542,0.1218726695643728
21.798056000000003,1.7157223042044063,0.1208464930224543
21.80044,1.7465905373039516,0.119441248182047
21.802836,1.774385734470441,0.1182826706580996
21.80522,1.8049744283162652,0.1169995474793805
21.807604,1.8344921869754516,0.1157964948102183
21.810008,1.855489685969772,0.1150210121529193
21.812392000000003,1.8707604219785623,0.114534149398654
21.814776,1.884029057240936,0.1141530037780776
21.81718,1.9005104980632253,0.113592956287716
21.821948,1.920202848587561,0.1133174104080881
21.829108,1.9482737932920324,0.1132045890294574
21.831504,1.964568242659218,0.1128697343489316
21.833892,1.9852862023998183,0.1122488388704407
21.836268,2.0077739454613583,0.1114650055450559
21.838676,2.0191802496041755,0.1112057441018629
21.84106,2.030866093000713,0.1108965193084159
21.853004,2.045762846099297,0.1108231484904998
21.855388,2.048276803524912,0.1107877575852656
21.857768,2.0543756535627797,0.1106616204671467
21.860164,2.062988461026261,0.1105005161640475
21.864928,2.0709024203554427,0.1104542720361304
21.867324,2.0740680040871147,0.1104369594895294
21.872092,2.080865702259284,0.1101846968495422
21.874492,2.0802140759532257,0.1101648414722402
21.88406,2.078306418863295,0.1099522734611609
21.88884,2.0790978147962136,0.1099488910933577
21.891228,2.084405268901163,0.1098394693176363
21.893608,2.0967899604320017,0.1094625026850493
21.896004,2.117183054948508,0.1087972446972218
21.898388,2.134782652785679,0.1081998186245776
21.900784,2.146515718010459,0.107814914594279
21.903188,2.157317617675462,0.1074575117336287
21.905576,2.168259286967324,0.1070820726592984
21.907956,2.1774783947664904,0.1067367497288579
21.910352,2.192983344058628,0.106139363605534
21.91274,2.2117936467092973,0.1055227020534159
21.91512,2.2327458197332444,0.1048348447981826
21.91752,2.25313891424975,0.1042415337705283
21.919904,2.279910398057844,0.1035124165090572
21.922288,2.3062625729853576,0.1028336100789408
21.924684,2.3294019423529555,0.1022957794448595
21.927068,2.3503994413472764,0.1018290649563695
21.929452,2.36911530034146,0.1014821679688121
21.931856,2.391043964895559,0.1009998752788109
21.934244,2.414695190942354,0.1005122001558619
21.936624,2.43890549549659,0.0999498571999103
21.939028,2.459670677065433,0.0994536145697704
21.941416,2.479225153820778,0.0990486792749983
21.943796,2.493844263523511,0.0987927668184434
21.946192,2.511396639532439,0.0984582725758566
21.94858,2.530252268153482,0.0981544084424479
21.95096,2.5508304582672223,0.097835142452269
21.967696,2.6169356295800075,0.097790487588661
21.970084,2.625176349991152,0.0976563545881792
21.972464,2.636629875962212,0.0974197840320202
21.974868,2.6526466819335472,0.0970080622118899
21.977256,2.670945127905019,0.0965156838215104
21.979636,2.6825856453311827,0.0961504554881575
21.998744,2.6824930975325647,0.096074020763842
22.001124,2.6778844915619167,0.0960490864414004
22.00352,2.6807724318977377,0.0957846279683271
22.005908,2.6825894370469205,0.0955568563575253
22.008288,2.6866880821962407,0.095241788987141
22.0107,2.6950704680921147,0.0947818429368393
22.02742,2.67798651864988,0.094564099033899
22.029804,2.6760316397317063,0.0945062953326356
22.0322,2.6754272352538915,0.0943822460072777
22.034584,2.6786872626420504,0.0941810138437453
22.03698,2.6914459370830954,0.0936976543313142
22.03938,2.700759488538748,0.0932333769326942
22.041768,2.7092816440614818,0.0927760896570176
22.044148,2.72110915294275,0.0923145742889095
22.046544,2.7320054962642377,0.0918679954163499
22.048928,2.7403406603318694,0.0915388471586124
22.051312,2.7471855803322804,0.0913018296249284
22.053708,2.7545895788401333,0.0910013552089954
22.056092,2.7637161388406826,0.0906946356620329
22.058476,2.773214785893569,0.0904417105998169
22.060872,2.784483216267395,0.0900781111254198
22.063256000000003,2.7917474451483875,0.0897949065029651
22.065636,2.8040868107088524,0.0893889799702523
22.068032,2.817357341829095,0.0889605219446141
22.07042,2.8301160162701406,0.0884943618346986
22.0728,2.8453886481368,0.0880208246065874
22.075216,2.8518614810848746,0.0877341009645551
22.0776,2.855773134779092,0.0875559477753372
22.07998,2.859405249219588,0.0874136097089202
22.084764,2.8555880391818573,0.0873811411391187
22.094312,2.859824558100168,0.0873658968587997
22.108656,2.863409450712421,0.0873276503556337
22.111052,2.8722092496310063,0.0871752114223672
22.11344,2.8775167037359566,0.0871353196701603
22.11582,2.8877595248935184,0.0870074826266653
22.118216,2.8993055986631955,0.0869179721780898
22.120604,2.908058175753537,0.086862933143839
22.122984,2.9214665806427718,0.0867486264066787
22.125384,2.9428833885176724,0.0864811604089265
22.127772,2.9613669300863785,0.0862617978505146
22.130152,2.9838546731479187,0.0859640731720433
22.132548,3.009694991396234,0.0855781768309588
22.13494,3.0275269066588826,0.0853514893365908
22.137320000000003,3.0472211530410878,0.0850971642048493
22.139716,3.076925903155377,0.0846573411464221
22.142104,3.1043490132695286,0.0842929247296801
22.144496,3.130281879316461,0.0840075369035402
22.146892,3.1594275509233096,0.0836498159822896
22.149276,3.1834980858506863,0.0833868471467394
22.151656,3.205706289658506,0.0831401594835426
22.15406,3.2305682205187995,0.0828781547715543
22.156448,3.252217345819178,0.0826978827069265
22.158828,3.268931104066945,0.0826052624968788
22.161224,3.289556516008929,0.0823692467892286
22.163612,3.3072486616447163,0.0821841609379881
22.165992,3.326570820974584,0.0819241798129778
22.168396,3.3480348506777284,0.0816171946510888
22.170784,3.3705698155675115,0.0812955183686151
22.173164,3.3881694134046825,0.0810551169914453
22.175568,3.409633443107827,0.080764408528973
22.177956,3.4312372424378315,0.0804686776298987
22.180336,3.4493486969542,0.0802689230545931
22.182732,3.4717438922171224,0.0799826686090898
22.185116,3.495210022666684,0.0796751304519154
22.187496,3.5125300812501354,0.0794781299030966
22.1899,3.526544786475053,0.0792730018859387
22.192288,3.5377659950206355,0.0790909168275963
22.194668,3.542329275020911,0.07897997907327
22.197064,3.5508967565140197,0.0788076671497358
22.199452,3.565610309873238,0.0785353671827945
22.201836,3.584747373605872,0.0781798213610534
22.204232,3.602161875845809,0.0778241015246088
22.20662,3.618645212525968,0.0774751271321067
22.209,3.632846909205989,0.0771857413798894
22.211396,3.645465814020174,0.0768877993883317
22.213784,3.656734244394,0.0766394324908
22.21618,3.668142444394686,0.076381884310815
22.218576,3.67461527734276,0.0761859767745278
22.22096,3.681367649544555,0.0759660833279253
22.223344,3.687608165067152,0.0757196399822287
22.22574,3.6895649398431942,0.0755495324213926
22.228128,3.6911496275669,0.0753371747637554
22.230508,3.691663380103967,0.0751457127936301
22.232904,3.693387837454533,0.0749254185739122
22.235296,3.696462769245457,0.0746636091536369
22.237676,3.703262363275495,0.0743746209201988
22.240072,3.7142059284252262,0.0740239927740168
22.24246,3.7328783573069058,0.0735983421911183
22.24484,3.749828224695888,0.0731745095475504
22.247236,3.7617029554053993,0.072823634717678
22.249624,3.7662209094352983,0.0725913597765324
22.252004,3.77674516570445,0.0722915917457426
22.2544,3.790482227533517,0.0719423859657576
22.256788,3.804219289362584,0.0715942508134837
22.259168000000003,3.818468207870848,0.0712744009776013
22.261568,3.829783860072917,0.0709816861203522
22.263956,3.839888807461488,0.0707192863629368
22.266336000000003,3.854137725969753,0.0704005181772351
22.268732,3.86610500447788,0.0701261283913012
22.27112,3.8787239092920647,0.0698734197494169
22.2735,3.895906094106524,0.0695318355077711
22.275896,3.913879674853903,0.0691971466121945
22.278284,3.9310618596683615,0.0688593226588241
22.280668,3.9462419437364056,0.0685468241853633
22.283064,3.961422027804448,0.0682383726948781
22.285452,3.974600011126074,0.06795135428704
22.287832,3.98791776407456,0.0676590000787806
22.290228,3.9965796892241543,0.0673932618397397
22.292616,4.006964175866446,0.0671298885511102
22.295,4.021492633628431,0.0668194146382377
22.297396,4.032296429151302,0.066520556036212
22.299784,4.035883217621425,0.0663085166029425
22.302168,4.035977661277911,0.0661647049726597
22.30458,4.034861400120898,0.0660467620065175
22.306964,4.036166548590884,0.0658774148785007
22.309344,4.045759639300256,0.0656128968994644
22.31176,4.056563434823127,0.0653243444845061
22.314144,4.065365129599582,0.0650569513648685
22.316524,4.078171025868871,0.0647525574552541
22.318924000000003,4.088043655831964,0.0644717045628506
22.321308,4.0953551065412,0.0642534325649481
22.323688,4.101455852436937,0.0640594381640698
22.326092,4.105274958332536,0.0639039533531806
22.32848,4.108023129041497,0.0637625915185933
22.33086,4.106627328630765,0.0636676550944129
22.333264,4.110306664899504,0.0635234585693894
22.335652,4.109702260421689,0.0634360275205876
22.338032,4.110820417436571,0.0633520793200264
22.342816,4.102115062174472,0.0632753080290253
22.345196,4.101091348816077,0.0632189091600115
22.347596,4.107284642510431,0.0630853623783184
22.349984,4.114968180272004,0.0629056176550008
22.352364,4.122931257287297,0.0627036515172982
22.35476,4.125679427996258,0.0625618814951668
22.357148,4.119068721279192,0.0625257616772054
22.359528,4.109384978629072,0.0625204576235513
22.361932,4.098770070419173,0.0625180410459206
22.36432,4.085641204783659,0.0625030374163597
22.3667,4.070789777655449,0.0624838404186176
22.369096,4.05621788978096,0.0624434211055473
22.37148,4.04313624597369,0.0623566136846992
22.37386,4.035269508472752,0.0622113695419863
22.376256,4.02954464134509,0.062038560599286
22.378644,4.026101414217567,0.0618260763655095
22.381024,4.01744328078371,0.0616722302213685
22.38344,4.01171841365605,0.0614985302791685
22.385824,4.003991445781972,0.0613413716727994
22.388204,3.9984063482811703,0.0611568336222463
22.390608,3.9978963874598423,0.060924036579204
22.392996,3.993242455518821,0.0607353226456406
22.395376,3.984584322084965,0.0605804443896531
22.397772,3.976717584584027,0.0604330506345545
22.400156000000003,3.969642243016007,0.0602929480750991
22.402536,3.970575304433654,0.0600899202253909
22.404932,3.975931876224717,0.0598229016073147
22.40732,3.98021751282914,0.0595657689719603
22.4097,3.9883675812995367,0.0592891477105064
22.4121,3.997029506449131,0.0590417218015072
22.414488,4.011418194584256,0.0587692333188166
22.416868,4.027948753092657,0.058474188574512
22.419264,4.048203973840172,0.0581761277803695
22.421652,4.067528029027909,0.057887635616724
22.424048,4.086712314588786,0.057612398664581
22.426448,4.107479392015498,0.0573544871157421
22.428836,4.132669979815625,0.057041954011072
22.431216,4.159211042056111,0.0567022411138379
22.433612,4.1878939746698745,0.0563405288421462
22.436,4.218579008030054,0.0559731560386815
22.43838,4.248612415084176,0.0555919850326975
22.440776,4.285071433258129,0.0551484947122334
22.443164,4.321809990685803,0.0546894187185074
22.445548,4.359619483300115,0.0542255092832021
22.447944,4.399850385541424,0.0537267961067505
22.450332,4.435145920730123,0.0532627354591389
22.452712,4.466949111105184,0.0528490951120244
22.455112,4.505549999652414,0.0524096424201775
22.4575,4.541077852266589,0.0519970878138939
