Time,Force,Position
22.714624,1.0856897318543597,0.1212339770915579
22.717012,1.0949541656238997,0.1209468993878215
22.724176,1.1090595227895654,0.1208090061056462
22.726556,1.1178120998799077,0.1204615736127998
22.728956,1.1252614243581345,0.1200209731798308
22.731344,1.1374137984634956,0.119067973816754
22.733728,1.1495661725688568,0.1181035995190031
22.736132,1.163021799286334,0.1171892147183063
22.738516,1.17782790044417,0.1160604743433809
22.7409,1.193193080109447,0.1147516801681233
22.743304,1.2073475549612251,0.1136092876964883
22.745688,1.2217343472384803,0.1126927978376495
22.748072,1.2384953273144903,0.1117331939816702
22.750468,1.2524628107111653,0.1109521155088113
22.752856,1.2624260926150066,0.1104899812861293
22.75524,1.2671744682125148,0.1104481218254179
22.757636,1.2748561101162186,0.1102147464235972
22.76002,1.286821492766477,0.109668437417558
22.762404,1.301068515416872,0.1089080738189156
22.7648,1.3111715669475734,0.1084913933079782
22.767188,1.3228574103441109,0.1080649295091001
22.769568,1.3385474552334824,0.1074143808311165
22.771972,1.3563793704961309,0.1066069954065388
22.77436,1.3660631131462513,0.1063077811243962
22.77674,1.3833359499014588,0.1056849241559418
22.779136,1.3972562114698903,0.105346178860474
22.781524,1.413318343411599,0.1048793859883373
22.783904,1.4262148916216355,0.1044010274401519
22.7863,1.4377609653913126,0.1040544278975285
22.788688,1.452612392519523,0.1036896560930858
22.791068,1.4676035892745931,0.1032873040321566
22.793464,1.4770077926709937,0.1030875865746009
22.795852,1.4864119960673936,0.1028904055284279
22.798232,1.4953043427845962,0.1026220862242616
22.800628,1.5047085461809964,0.1024075982614809
22.803016,1.517325555137312,0.1019826100951178
22.8054,1.530082333720488,0.101532301821844
22.807796,1.5394865371168884,0.1013512167259396
22.810184,1.5466091005131513,0.1013341610791763
22.812568,1.5550821383497733,0.10119558525568
22.817352,1.568303551783904,0.1010559750575509
22.819748,1.5794303166730006,0.100894042394573
22.822144,1.5979138582417067,0.1003505409003308
22.824532,1.609320162384524,0.1001385912900322
22.826912,1.6217974017139798,0.0998719359612287
22.829308,1.6342746410434354,0.0996230853746757
22.831696,1.6512679385449225,0.0992705576418658
22.834076,1.6736159119796026,0.0986694948799589
22.836476,1.692518762428889,0.0981384152692789
22.838864,1.714215109557511,0.097551470189328
22.910536,1.9086208656595145,0.097014528508484
22.91292,1.914068089391325,0.0969200437951177
22.915316,1.930037673534416,0.0965495438093265
22.917704,1.9453556313714504,0.0961524504778484
22.9201,1.958252179581486,0.0958844675237909
22.922504,1.96579405185833,0.0958378033814994
22.924888,1.9776196648817277,0.0956072853706261
22.927272,1.992658083465041,0.0952589978088349
22.929668,2.011980242794908,0.0947304057063184
22.932052,2.037308704364026,0.0940004467505747
22.934436,2.0602157563061465,0.093390863396135
22.936832,2.0863356138081826,0.092665222266887
22.93922,2.1085910394442453,0.0920618860702511
22.9416,2.1272615724680546,0.091529353512673
22.943996,2.1443020917977846,0.0911243515844354
22.946384,2.167348913366766,0.0904986896583865
22.948764,2.1803852312036622,0.0902165357983355
22.95116,2.194352714600337,0.0899220209503118
22.953548,2.2123243994898454,0.0895210672116865
22.955932,2.2321584154989105,0.0891005561485948
22.958328,2.250130100388419,0.0887325849671266
22.960712,2.266471771583848,0.0884995962874466
22.963096,2.280299485353663,0.0882869877779074
22.965492,2.297200235056533,0.0879975764685345
22.96788,2.3182449558790967,0.0875861724374608
22.970276,2.343573417448215,0.0870285704765335
22.972672,2.3686223397636126,0.0865181018844509
22.97506,2.38780472946662,0.0861481808005893
22.97744,2.4049850184232104,0.085833359868273
22.979836,2.4233760121933,0.0854889545966225
22.982224,2.4451195811501645,0.0850230881227881
22.984608,2.462579409360475,0.0846913415302577
22.987004,2.48390366943676,0.084294004127604
22.989392,2.503877455072685,0.0839563744881771
22.991772,2.5261328807087478,0.0835298542629154
22.994168,2.5493194719045884,0.0830980802813253
22.996556,2.5727856023541498,0.0826064694498833
22.99894,2.593737775378097,0.082127206075893
23.001336,2.6086836461627927,0.0817942800307988
23.003724,2.619904854708376,0.0815211982198383
23.006104,2.630706754373379,0.0813049319313474
23.0085,2.6375516743737903,0.0810626334216995
23.010888,2.6419751847472046,0.0809193808917272
23.018068,2.6362956435899174,0.0808982385300538
23.020452,2.635271930231522,0.0808174006974984
23.022848,2.6381126487391007,0.0806728437210466
23.027616,2.636856617955228,0.0805172763950456
23.030012,2.6336910342235558,0.0804930867994119
23.03478,2.6215405559760634,0.0804370945200927
23.037176,2.617491028512856,0.0803151629439164
23.039564,2.616002680303506,0.0800887946915136
23.041948,2.613862705788098,0.079841636897215
23.044344,2.6183806598179986,0.0795091642374221
23.046732,2.6264835064601524,0.0791581455093345
23.049112,2.6398012594086384,0.0786971957762489
23.051508,2.652979242730264,0.0782495620056878
23.053896,2.663783038253136,0.0777790367962374
23.056292,2.6776126478808195,0.0773485788538151
23.058688,2.693723897508641,0.0768474305911171
23.061076,2.711837247882879,0.0763110214014401
23.063456,2.733023634190172,0.0757173036597947
23.065852,2.7524874590047688,0.0751282890393563
23.06824,2.7656654423263944,0.0746827831273324
23.07062,2.7736285193416883,0.0743469166406688
23.07302,2.780380891543483,0.0740546505691598
23.075408,2.793930961917446,0.0736556050262747
23.077788,2.8054789315449926,0.073302041411657
23.080184,2.822613894531209,0.0728982251413968
23.082576,2.8436132893833994,0.0724425588198325
23.084956,2.8612601090488137,0.0720835355227581
23.087352,2.872201778340676,0.0719079319104034
23.08974,2.88179297319218,0.0717903582988581
23.099292,2.889242297670406,0.0717244179273558
23.101688,2.897622787708411,0.0716582137640974
23.104072,2.9064225866269964,0.071547468575607
23.106456,2.914291219985804,0.0714454656775897
23.108856,2.9209491485311125,0.0713807859354372
23.111244,2.925465206703144,0.0713608323582409
23.113624,2.9298414952483145,0.0713555668107778
23.116024,2.941015481965655,0.071272357603449
23.118412,2.957544144616187,0.071078456654799
23.120792,2.9731416417069414,0.0708889482045159
23.123192,2.989018678051416,0.0706755770344181
23.12558,3.001822678462835,0.0705116700336418
23.12796,3.0088999158887244,0.0704056691712236
23.13036,3.0138352829413364,0.0703430947622552
23.132748,3.02370601704656,0.0702196372928065
23.135128,3.0409335278313936,0.0699643844944588
23.137524,3.062584548989642,0.069619966482933
23.139912,3.0858183620137263,0.0692934470906002
23.142296,3.108121009478032,0.0689718551230932
23.144692,3.1316343617558364,0.0686114026485903
23.14708,3.150212346981029,0.0683158122953466
23.149476,3.1625044907132507,0.0681307520220167
23.151872,3.1737256992588336,0.0679670845138393
23.15426,3.183875972617778,0.0678232762634193
23.15664,3.194305785230442,0.0676515981249092
23.15904,3.207808633776162,0.0674378812734215
23.161428,3.2282489501209115,0.06715038549629
23.163812,3.243893669039909,0.066908311289945
23.166208,3.2566051216527114,0.0666986931721186
23.168596,3.2746712501987068,0.0664017108458592
23.170976,3.291666443558063,0.0661285384008535
23.173372,3.3108035072906965,0.0658170588384507
23.17576,3.3310115062099683,0.0654846357089901
23.178144,3.352569979569599,0.0651097744002257
23.18054,3.371474725876755,0.0647460208786624
23.182928,3.389308536997272,0.0644122855448281
23.185308,3.398994175505262,0.0641777512638426
23.187704,3.406957252520556,0.063939415472956
23.190092,3.417853595842044,0.0636773672657499
23.192476,3.429960643977032,0.0633881785785415
23.194872,3.4431386272986573,0.0630808836104866
23.19726,3.456596149874004,0.0627429468748264
23.199644,3.4694020461432924,0.0623839993343679
23.20204,3.487283079092053,0.0619722218712637
23.204428,3.508097378347009,0.0615425731510852
23.206812,3.5229053753627144,0.0611744845660608
23.209208,3.5277028686463354,0.0609084304457653
23.211596,3.5325003619299564,0.0606408394658952
23.21398,3.5380892511464954,0.0603814366540462
23.216376,3.539673938870201,0.0601650336115283
23.21876,3.538325360287711,0.0599706564570952
23.221144,3.536837012078361,0.05978853650197
23.22354,3.5402840309216232,0.0595677502481691
23.225928,3.5426601145782466,0.0593633045906228
23.228324,3.5447566589811497,0.0591841766748287
23.23072,3.541778066704581,0.0590560276953512
23.233108,3.5457369422270406,0.058871335550641
23.235488,3.5515581488690566,0.0586813255427348
23.237888,3.554446089204878,0.0585124358184255
23.240272,3.558265195100478,0.0583429173013246
23.242656,3.564505710623075,0.0581235314651589
23.245052,3.574890197265366,0.0578604646169761
23.24744,3.590861677266327,0.0575883838011346
23.249824,3.603760121334232,0.0573514265337154
23.25222,3.609441558349389,0.0571847388922875
23.254608,3.621269067230656,0.0569609781900073
23.256992,3.638311482418256,0.0566791282619969
23.259388,3.657495767979132,0.0563715811611867
23.261776,3.676819823166869,0.0560533475688621
23.26416,3.691580598354331,0.0558077017484234
23.266556,3.709274639847989,0.0555440069093352
23.268948,3.728970782088062,0.0552668656921289
23.271328,3.740378982088749,0.055075024694006
23.273728,3.753789282835853,0.0548703100534488
23.276116,3.7637544605975615,0.0546501557648728
23.2785,3.773859407986133,0.0544156000119736
23.280896,3.77982038425501,0.0542247535724428
23.283284,3.784850194964109,0.0540367610657112
23.285668,3.790159544926927,0.0538253098803644
23.288064,3.791324923770053,0.053655420873306
23.290452,3.787135626679985,0.053550891871042
23.292836,3.782527020709336,0.0534809833476444
23.295232,3.7691186158201018,0.0534583788638928
23.29762,3.752916714251533,0.0534393083039653
23.300004,3.7422092582430166,0.0533447104187911
23.3024,3.728149227047724,0.0532993400362727
23.304788,3.714880591785351,0.0532628246293088
23.307172,3.7014721868961167,0.0532363448295869
23.309568,3.687924012380023,0.0532205515213792
23.311956,3.682151923424119,0.0530966895119481
23.31434,3.675588438535296,0.0529627586973626
23.316736,3.669304492900195,0.052807742493581
23.319128,3.669446158384924,0.0525808317825869
23.321508,3.664512687190181,0.0523908222652219
23.323908,3.6638157349137495,0.0522288249813681
23.326296,3.666191818570373,0.052042026774526
23.32868,3.669778607040495,0.051831880524292
23.331076,3.674156791443536,0.0516326108821161
23.333464,3.679186602152634,0.0514544646264521
23.335844,3.6863582832350095,0.0512517523476759
23.33824,3.6975341658102185,0.0510225819581213
23.340628,3.7048456165194543,0.0508074164349832
23.343012,3.716021499094664,0.0505749716446562
23.345408,3.726778072789292,0.0503737202211827
