Time,Force,Position
23.978508,1.3397149545617104,0.1206627825855651
23.980892,1.3432998471739632,0.1204991747094957
23.983288,1.3490266101594934,0.1201664569191562
23.985676,1.3539619772121054,0.1198509523880576
23.98806,1.3574071001974986,0.1197351348500433
23.990456,1.3657875902355037,0.119323608804375
23.992844,1.376682037699123,0.1188325872540928
23.995228,1.392372082588494,0.1180798486262626
23.997624,1.407130961918087,0.1173751259787921
24.000012,1.4169544741950677,0.1169716018120727
24.002392,1.4295714831513835,0.1164495317273899
24.004792,1.4406057002418633,0.1159536090296001
24.00718,1.4514075999068656,0.1153147761604825
24.00956,1.4596955421462534,0.1147600485885101
24.011956,1.4610460165866124,0.1146207628030067
24.014344,1.4646781310271084,0.114301148127908
24.01674,1.474968174012913,0.1136877948547736
24.019136,1.487260317745135,0.1129814673302682
24.021524,1.50928342595572,0.1118767108637225
24.023908,1.5364742186443945,0.1106511354485624
24.026304,1.566318738385544,0.1093659540930721
24.028692,1.5929504525667784,0.1082914162975434
24.031072,1.6145070300685396,0.1074727519436196
24.033468,1.6347131331299425,0.1067693684074074
24.035856,1.6541278402584272,0.1060488593645192
24.03824,1.6707490507075768,0.1054804814794882
24.040636,1.6876498004104468,0.1048584640704819
24.043024,1.7014775141802614,0.1044120059680214
24.045404,1.715584767203796,0.1039071718605239
24.0478,1.733184365040967,0.1031473128958086
24.050188,1.7459883654523862,0.1025847315561453
24.052568,1.7602353881027812,0.1020477870369433
24.078868,1.8193577656461624,0.10156529245478
24.081248,1.8240135934450543,0.1014356362219433
24.083644,1.8320219964307212,0.1011295289991845
24.086032,1.8389594642297504,0.1008779841239189
24.088416,1.8451055360958608,0.10062906364981
24.090812,1.8505999816559136,0.1003520788755433
24.0932,1.8568858231488847,0.1000788658887566
24.095584,1.8619609598283569,0.0998840104348662
24.09798,1.8650339957614124,0.0997544106793538
24.100368,1.8691779668811064,0.0995765908224176
24.102748,1.8757433476277976,0.0992575987659833
24.105144,1.8797947709488747,0.0989679865659439
24.107532,1.8873385390835875,0.0984843510888866
24.109912,1.8956737031512187,0.0980039618520074
24.112312,1.9058711983384065,0.0974769863491251
24.1147,1.9151375279658156,0.0969593679343016
24.11708,1.9299908509518944,0.0962951781109616
24.11948,1.9431216124452773,0.0956429480000581
24.121864,1.958254474685077,0.0949283365389707
24.124248,1.975109898417573,0.0942036273670943
24.126644,1.989404142896212,0.0936624018192456
24.129032,1.9959695236429027,0.0933591967130325
24.131428,2.001044660322375,0.0931806798722372
24.133824,2.006119797001847,0.0930021630314419
24.136212,2.014267969614375,0.0927225867992148
24.138596,2.024930099652517,0.092430109546335
24.140992,2.03573199931752,0.0921208904152196
24.14338,2.050398330848495,0.0917233038035316
24.14576,2.0752149357384155,0.091011531263907
24.14816,2.097238043949001,0.0903624720312432
24.150548,2.113906476226394,0.0899236697766133
24.152932,2.129084664436568,0.0895881165612849
24.155328,2.1446349396990785,0.0893329836276385
24.157716,2.1575314879091145,0.0891057841912188
24.1601,2.1693571009325123,0.0889186532011554
24.1625,2.186118081008522,0.08860147566244
24.164888,2.199014629218558,0.0883794823276204
24.167272,2.217777710040985,0.0880192478583973
24.169668,2.2314656541839395,0.0878045897237502
24.172056,2.2432912672073373,0.0876277210436794
24.17444,2.2575382898577323,0.0873373921227994
24.176836,2.275649744374101,0.0869510474991536
24.179224,2.291107471837995,0.0865908217542473
24.181608,2.307356595234808,0.0862353928070627
24.184004,2.3202531434448432,0.0860248001951743
24.186392,2.3335690005354603,0.0857615364316152
24.188776,2.3455343831857185,0.0855757430607981
24.195944,2.362200919605242,0.0855534553138234
24.198344,2.3708137270687235,0.08550622816375
24.200736,2.3826393400921213,0.0853583929594192
24.203116,2.391671456436184,0.0852530216948101
24.20552,2.404568004646221,0.0850719306398988
24.207904,2.4177440921099773,0.084852539618689
24.210288,2.429989014013956,0.0846570134878824
24.21268,2.442373705544794,0.0844386792125698
24.215068,2.452756296329216,0.0842769219975803
24.217448,2.468074254166249,0.0840084171255767
24.219844,2.482461046443505,0.0837516050349743
24.222232,2.493635033160845,0.0835929983258334
24.224612,2.5080218254381004,0.0833509733823458
24.227016,2.5259935103276088,0.083074904804153
24.229404,2.543313568911059,0.0827774021927555
24.231784,2.56077339712137,0.0824604847765514
24.23418,2.5748806501449053,0.082255189654207
24.236568,2.5881965072355224,0.0820399490650471
24.238952,2.5995102635797225,0.0818651315153563
24.241348,2.6097530847372843,0.0817218451426331
24.243736,2.622137776268123,0.0815261333045238
24.246116,2.633870841492904,0.0813088244840881
24.248512,2.645464137090824,0.0811149310307707
24.2509,2.6610616341815785,0.0808420094522839
24.25328,2.676519361645472,0.0805935919789903
24.255676,2.6926287154154243,0.0803690757421061
24.258064,2.7078069036255976,0.0801619715074328
24.260448,2.726709754074884,0.0799141681636929
24.262844,2.742539568591116,0.0797331047727958
24.265232,2.758788691987928,0.0795113682625742
24.267612,2.7769001465042966,0.0792690466149347
24.270008,2.7980846369537207,0.0789651154980088
24.272396,2.8131230555370337,0.0787912016876466
24.274776,2.828441013374068,0.0785901600414239
24.277176,2.844550367144019,0.0783972861463577
24.279564,2.8605199512871105,0.078219110719421
24.281944,2.879702340990118,0.0779652376785636
24.28434,2.9019577666261807,0.077652664091002
24.286728,2.928077624128217,0.0772839980524249
24.289124,2.952335150510697,0.0769279955407115
24.29152,2.969655209094148,0.0766913420438754
24.293908,2.9888375987971547,0.0764403612622754
24.334516,3.0521058433180985,0.0764376849822301
24.336904,3.054107944064516,0.0764077234419828
24.3393,3.058903541490267,0.076352769773662
24.341696,3.0626282037293806,0.0763210626619478
24.344084,3.064350765222077,0.0763191455103998
24.346464,3.072871024886942,0.076232543226103
24.34886,3.080599888618889,0.076141291363433
24.351248,3.0887480612314167,0.0760085350656066
24.353628,3.0988057867917447,0.0757668768949644
24.356032,3.108072116419154,0.0755183288584536
24.35842,3.115755654180727,0.0752596757308646
24.3608,3.1187833641434084,0.0750379875638288
24.363196,3.123021778919589,0.0747808774728405
24.365584,3.1294020640690454,0.074479861133535
24.367964,3.1328490829123075,0.0742151007787092
24.370356,3.1397884465692054,0.0738546808224045
24.372744,3.149009450226241,0.0734361796078661
24.37514,3.159301389069914,0.0729946166543451
24.377544,3.1737372990332826,0.072481155879817
24.379928,3.184029237876956,0.0720422834346227
24.382308,3.1851020689214646,0.0717570600215229
24.384704,3.1826825551523363,0.0715673115151625
24.387092,3.1796114150771504,0.0713559966598046
24.389472,3.175888648695907,0.0711240964972033
24.391876,3.178032414927053,0.070821103837148
24.39426,3.1733784829860308,0.07059668358065
24.39664,3.168305242164428,0.0704142014882817
24.399036,3.161741757275605,0.0702940623290545
24.401424,3.15690083387948,0.0701738202443742
24.403804,3.1529910760431323,0.0700464357582835
24.4062,3.1473115348858447,0.0700095373876565
24.408588,3.145636195221392,0.0699174048707733
24.41098,3.1461027259302154,0.0697855043287384
24.413376,3.14684879589276,0.0696272972194639
24.415764,3.1537409377214143,0.0693794332329723
24.418144,3.160493309923209,0.0691486735060529
24.420548,3.1701789484311997,0.0688940258502747
24.422936,3.1837290188051623,0.0686103083398778
24.425316,3.196859780298545,0.068370989954764
24.427708,3.2150656784714005,0.0680698295279649
24.430096,3.2434218500032,0.0676434959480856
24.432476,3.2748510574680543,0.067181378797085
24.434872,3.309073761612244,0.0667088941999845
24.43726,3.344087861689353,0.0662504006521349
24.43964,3.3723042635942915,0.0658490862986568
24.442036,3.4041055581114845,0.0654369452502717
24.444424,3.4371175574421757,0.0649960212808552
24.44682,3.473202592705922,0.0645166892350209
24.449224,3.505423196103695,0.0640736567851311
24.451608,3.5404372961808024,0.0636243949058296
24.453992,3.579223280325267,0.0630733788627351
24.456388,3.618940430029509,0.0625269077714655
24.458772,3.655584543800697,0.0620302762817482
24.461152,3.690878183131525,0.0615805772626964
24.463556,3.72202785134266,0.0611930175655237
24.465944,3.750104483620739,0.0608420502957592
24.468324,3.770964108846069,0.0605791650243768
24.470728,3.788099071832286,0.0603368107540321
24.473116,3.800438437392751,0.060122331976485
24.475496,3.809053140714101,0.0599243845456147
24.4779,3.81231316810226,0.0598033936524695
24.480288,3.811848533251306,0.0596954839097671
24.482668,3.81259460321385,0.0595637072847062
24.485064,3.812269737989756,0.0594463114331119
24.487452,3.821024210937968,0.0592492405841923
24.489832,3.8314086975802586,0.0589969906176044
24.492224,3.839930853102993,0.0587506296813079
24.494612,3.849663713439226,0.0584847070250537
24.496992,3.86377286232063,0.0582292018489365
24.499396,3.87415734896292,0.0579852730347137
24.50178,3.880677403739238,0.0577625648652075
24.504164,3.887476997769277,0.0575219341657493
24.50656,3.893065886985816,0.0573039330556768
24.508944,3.898515006575495,0.0570963142278597
24.511328,3.90596622691159,0.0568753752547542
24.513732,3.916350713553881,0.0566375911959865
24.51612,3.930879171315866,0.0563580747677765
24.5185,3.9460592553839087,0.056099462767738
24.520896,3.9673854113180615,0.0557876190905628
24.523284,3.990294359118052,0.0554944459034673
24.525664,4.010549579865566,0.0551934250662803
24.528064,4.032667131732639,0.0548898362855014
24.530448,4.046636510987183,0.0546540692412937
24.532828,4.058883328749031,0.0544105431538065
24.535232,4.06298197389835,0.0542368765235733
24.53762,4.066521540540229,0.0541076036789155
24.54,4.073785769421222,0.0539730175228427
24.542396,4.077976962369159,0.0538653620427896
24.544784,4.079933737145202,0.0537218624678983
24.547164,4.080679807107747,0.0535993763825537
24.54956,4.083939834495905,0.0534933774232205
24.551948,4.085197761137647,0.0534011424430324
24.554328,4.086735227033109,0.0532878816056781
24.556728,4.087760836249374,0.0531446902699933
24.559116,4.087203653599802,0.0529841691807949
24.561496,4.088508802069788,0.0528231355433106
24.563892,4.091164424980131,0.0526326555406784
24.56628,4.091957716770919,0.0524439716657415
