Time,Force,Position
22.622656,1.2195319960651394,0.1295669986422559
22.625044,1.2398306469251592,0.1288273912296994
22.627428,1.2588260451730628,0.1279594789372992
22.62982,1.275167716368492,0.1272306012945317
22.632208,1.2928598620042802,0.1263716540427802
22.634592,1.310179920587731,0.1253896988533305
22.636988,1.3288504536115404,0.1242560574372499
22.639376,1.3555293896210174,0.1225985853373865
22.641772,1.3880748582428846,0.1205524120403752
22.703892,1.4532450722801518,0.1189262165468738
22.706276,1.4656297638109903,0.11845817063478
22.708672,1.4848121535139978,0.1176977652106466
22.71106,1.503994543217005,0.1168959349619911
22.71344,1.532116501465458,0.1156474399445407
22.715836,1.5615889341542697,0.1142759326071509
22.718224,1.5870571653502477,0.1131132229846016
22.720608,1.619742403598975,0.1115103564872391
22.723004,1.64912228848917,0.1099915488885359
22.725392,1.676500072632948,0.1085996279842746
22.727788,1.7069508927097812,0.1069746584451319
22.730184,1.7379135694658123,0.1054593500620056
22.732572,1.76487204472901,0.104140658116739
22.734952,1.78940911036521,0.1030163280423986
22.737348,1.814597802307468,0.1019279897797222
22.739736,1.848306753914591,0.1005744044260354
22.742116,1.8782910432826003,0.0993948146587553
22.744512,1.9064130015310532,0.0983024450628843
22.7469,1.9281093486596756,0.0976101902082378
22.749284,1.9478035950418804,0.0970355315624132
22.75168,1.9662871366105863,0.0965390816041032
22.754068,1.9791836848206228,0.0962311364660519
22.756448,1.990217901911102,0.0959841345626125
22.758852,2.0032542197479986,0.0956596512351709
22.76124,2.0116347097860032,0.0954633621645208
22.76362,2.020015199824008,0.0952728388567118
22.76602,2.03039779060843,0.0950104978972926
22.768408,2.038638511019575,0.0948474942525926
22.770788,2.050743663296693,0.0945876522182213
22.773184,2.063128354827531,0.0942823265658851
22.775572,2.0765839815450087,0.0939385999950379
22.828136,2.1075428665853013,0.0937186746466164
22.830532,2.1141535733023664,0.0937059789776765
22.83292,2.12183521520607,0.0936538785393057
22.835304,2.134312454535526,0.0934874572731571
22.8377,2.1547980968506493,0.0931035867316349
22.840088,2.1734214080462158,0.0927551183389615
22.842472,2.196980086294394,0.0922871182907131
22.844868,2.227895541222182,0.0915578954282436
22.847256,2.2557379602169143,0.0909303463897391
22.849636,2.2843717751445647,0.0903075445975821
22.852036,2.3124937333930173,0.0896420439745928
22.85442,2.331676123096025,0.0892210949385886
22.856804,2.35164990873195,0.0888045210226721
22.8592,2.371623694367876,0.0883839027326456
22.861588,2.3875932785109675,0.088078256875459
22.863972,2.405704733027336,0.0877092856204199
22.866368,2.42660968422304,0.0872937363498162
22.868756,2.445093225791746,0.086981771719963
22.871136,2.4655788681068693,0.0866238007859652
22.873536,2.4851333448622137,0.0862974173787864
22.875924,2.5040361953115005,0.0859452248668683
22.878308,2.511345750162867,0.085839399310645
22.899808,2.526336946917937,0.0856781143595622
22.902204,2.527547651731436,0.0856274784366826
22.904588,2.530388370239014,0.0854740621750089
22.906984,2.534719332813811,0.085236817536113
22.90938,2.5413319353887456,0.0849199246203169
22.911768,2.546221976470984,0.0846180785255748
22.914148,2.549389456060526,0.0843262856938978
22.916552,2.556980446023482,0.0838973490213594
22.918936,2.5605672344936043,0.0835526904414919
22.921316,2.564945418896645,0.0832188317630549
22.923708,2.5690440640459644,0.0829169620613406
22.926092,2.58208227774073,0.0824298761659741
22.928488,2.592047455502441,0.0820227627181144
22.930892,2.6021524028910115,0.0815991694931996
22.933276,2.6133282854662205,0.0811451829405608
22.935656,2.623433232854791,0.0807233708361978
22.938048,2.638753086549693,0.0801757430484585
22.940436,2.650999904311541,0.079695723217726
22.942828,2.662687643565948,0.0792850345146689
22.945224,2.6754463180069936,0.0788505341290147
22.947608,2.689555466888398,0.0783586957672188
22.949988,2.7058064861430795,0.0778178104324478
22.952384,2.719496326143904,0.0773910003742529
22.954768,2.7315561524506475,0.0770610327219021
22.957164,2.7424052739438927,0.0767777893950198
22.959568,2.751252294690721,0.0765334615378075
22.961952,2.75995954581069,0.0763062632502014
22.964332,2.7645228258109644,0.0761684171229693
22.966728,2.7750924080504893,0.0759252773622659
22.969112,2.782588954356959,0.0757446646611194
22.971492,2.7950208677160413,0.0754873294110742
22.973888,2.8073130114482625,0.0752556071535727
22.976276,2.8206760903671224,0.0750013620229443
22.978656,2.832688694845624,0.0748010483614505
22.981052,2.8413487241373487,0.0746871363755546
22.983436,2.850008753429074,0.0745732243896588
22.985832,2.8528022501084087,0.0745462053902245
22.988228,2.858668782720799,0.0744599930261211
22.990616,2.8650943938406304,0.0743101722618414
22.992996,2.8703093001469626,0.0742024594329379
22.995392,2.8751048975727147,0.0741437495763483
22.997776,2.8794811861178857,0.0741328964640072
23.000172,2.8838574746630568,0.0741215645079528
23.002576,2.8885133024619485,0.0740787997131304
23.007344,2.896474483619373,0.074047893239351
23.00974,2.9009905417914053,0.0740204146876239
23.012124,2.90965057108313,0.0739122402584738
23.014504,2.9124440677624657,0.0738872331652698
23.0169,2.919241765934634,0.0737989755820282
23.019288,2.9235255066811883,0.0737079384303124
23.021668,2.9222222540690725,0.0736634297923777
23.024064,2.920779231830096,0.0736339336747978
23.026452,2.9257618207109517,0.0734733500653313
23.028832,2.936238855151859,0.073187416014807
23.031236,2.948717990339184,0.0728753390592764
23.03362,2.969065758885316,0.0724680551529786
23.036004,2.989413527431448,0.0720664497458973
23.0384,3.0085505911640813,0.0717011233314554
23.040784,3.0275478852698545,0.0713491452963979
23.043168,3.043472143442572,0.0710435179149476
23.04556,3.059955480122731,0.0706877167330602
23.047948,3.074716255310193,0.0703274815015825
23.05034,3.089756569751376,0.0699402922277061
23.052736,3.10400548825964,0.0695448848160872
23.055124,3.121606981954681,0.0690697682564076
23.057504,3.137858001209361,0.0686473841975328
23.059908,3.154109020464043,0.0682351547485761
23.062296,3.17329330602492,0.0677888587342275
23.064676,3.1866110589734054,0.0674092651648352
23.06708,3.200580438227949,0.0670587378734551
23.069464,3.217715401214166,0.0667353454180327
23.071844,3.2329880330808254,0.0664244313190031
23.07424,3.2411834275215963,0.0662172606785598
23.076628,3.24723695158909,0.0660520892406116
23.079008,3.2503572093503887,0.0659181203660278
23.083788,3.236436947781957,0.0659097996718087
23.086184,3.232479968117367,0.065868703027053
23.088576,3.2289422973333566,0.0657870405766949
23.090964,3.2307593024825394,0.0656125906240812
23.093344,3.229782810952387,0.0654542131059598
23.09574,3.2318793553552903,0.0652543079778399
23.098124,3.233836130131333,0.0650682123032214
23.10052,3.238726171213572,0.064856211424655
23.102916,3.242405507482311,0.0646762488855538
23.1053,3.247435318191409,0.0644533314624326
23.10768,3.2513941937138693,0.0642505450821343
23.110076,3.2544219036765507,0.0640529699581691
23.11246,3.264526851065121,0.0637767485665946
23.114856,3.26983620102794,0.063533151617924
23.117252,3.2739820680055027,0.0632329437199597
23.119636,3.2813407405429813,0.062884252331893
23.122016,3.290561744200017,0.0625254532850472
23.12442,3.2987118126704145,0.0621829471963709
23.126804,3.3099349170738663,0.0618050161358139
23.129184,3.326372927783652,0.0613515064515286
23.13158,3.3458839744264908,0.0608633732931829
23.133968,3.3635326899497744,0.0603927913572963
23.13636,3.3830437365926147,0.0599215500121901
23.138764,3.400412912862177,0.0594913910138422
23.141152,3.4190853417438563,0.0591061810312287
23.143532,3.4384093969315925,0.0587477916725205
23.145928,3.4598753224926067,0.0583646442925471
23.148312,3.480270312866982,0.0580026373223813
23.150692,3.502946943241495,0.0576040198686283
23.153096,3.5245526384293684,0.0572238899021082
23.155484,3.5461583336172424,0.0568477826431479
23.157864,3.5705575254844515,0.0564696064907747
23.16026,3.588810645485549,0.0561558160613082
23.162648,3.61199913253926,0.0558081245372756
23.165028,3.638120885899165,0.0554480030708562
23.167424,3.663031934445572,0.0551197991302697
23.169812,3.68715158705906,0.0547819304382818
23.172192,3.716206606725161,0.0544167840983129
23.174596,3.7424681297119258,0.054061946289124
23.176984,3.770452214191388,0.0537219045181836
23.179364,3.7982965290439896,0.0533995719607242
23.181768,3.822788268709816,0.0531250521255286
23.184156,3.842065102069309,0.0529012851703137
23.186536,3.859200065055526,0.0527024906068293
23.188932,3.873681300989268,0.0524957441250907
23.191316,3.885648579497395,0.0522725383759722
23.1937,3.895985844311443,0.052107644325923
23.196096,3.905391943565713,0.0519451398738006
23.198484,3.912516402819845,0.0518192459052655
23.200864,3.922434358753312,0.0516916012068655
23.20326,3.931421149127001,0.0515659442966957
23.205644,3.937614442821355,0.051444668007956
