Time,Force,Position
23.695044,1.0434499456844166,0.1343605462093475
23.70938,1.082458767965012,0.1343438613784225
23.711768,1.091675979906309,0.1342210468036665
23.714148,1.1046178540867189,0.1338316372087879
23.716544,1.1155576275207122,0.1335771887683433
23.718932,1.1330627817013972,0.1324758811438225
23.721328,1.1488453743893854,0.1314711848083238
23.723724,1.1633247144652576,0.1303232704949462
23.726112,1.1765933497276315,0.1294240895664316
23.749996,1.2230514964864532,0.1285150580651712
23.7524,1.2297547510021358,0.1284927823200545
23.754784,1.2432557036899867,0.127944980643337
23.75956,1.2574536086542698,0.1278729795801885
23.761948,1.2645761720505329,0.1277569047625293
23.764328,1.2751910802604318,0.1272840847444961
23.766732,1.2858059884703308,0.1268467469889702
23.769116,1.2992143933595646,0.1262694262888107
23.7715,1.3190011875403864,0.125399870696435
23.773892,1.3346912324297575,0.1246065627989722
23.776276,1.3411621695199631,0.1244647453739415
23.778672,1.3518696255284792,0.1242015701545205
23.781064,1.367931757470188,0.1234873589099258
23.783452,1.385484133479116,0.1225819462529235
23.785832,1.3974495161293736,0.1219796516956542
23.788224,1.413186782846988,0.120970446636863
23.790608,1.4339991862440746,0.1196004099907541
23.793004,1.4577448559473565,0.1180837181076813
23.7954,1.4769744674786067,0.1167913677748058
23.797784,1.4944815175171609,0.1155551078424853
23.800164,1.50742528755544,0.1147754962964169
23.802568,1.52064859684744,0.1139700885736398
23.804952,1.5352223805797989,0.1130068705591985
23.807332,1.550587560245076,0.1120404414016159
23.809728,1.5616689991637989,0.1114002472111021
23.812112,1.5763353306947745,0.1106892300248586
23.814508,1.5880683959195552,0.1101310067348853
23.816904,1.6019433315176128,0.1094842613232414
23.819288,1.613164540063196,0.1089381034289538
23.821668,1.6290415764076704,0.1082320135311567
23.824072,1.6550688861110898,0.1069837425082869
23.826456,1.6777908424559758,0.1058336101981102
23.828836,1.6995816332410838,0.1047640032635326
23.83124,1.7209531151456114,0.1038014618561275
23.833628,1.7488427559685873,0.1026371723527146
23.836008,1.7735195912316477,0.1016709256988531
23.838404,1.7952631601885125,0.1008459055905976
23.840788,1.812071362092765,0.100210718373451
23.843168,1.8326042262361315,0.0994666754276672
23.90052,1.9009910375490524,0.0988315979334785
23.902924,1.9031329079223296,0.0987441278585326
23.905308,1.9049952390418865,0.0987028587736632
23.907692,1.9136552683336117,0.0984622624750788
23.910096,1.9200336576252,0.098337155739003
23.91248,1.9284141476632044,0.0981392349794754
23.91486,1.9395881343805443,0.0978694537485297
23.917256,1.9562565666579368,0.0973460341654865
23.91964,1.969851963002274,0.0969418165219569
23.92202,1.9833075897197516,0.0965557690996529
23.924416,1.997042755690949,0.0961068758566164
23.926804,2.01464235352812,0.0955408997266089
23.9292,2.031822642484711,0.0950453816893637
23.931596,2.044998729948467,0.094699776240463
23.93398,2.066043450771031,0.0940974420625374
23.93636,2.0866688627130143,0.0935946683220094
23.938756,2.107154505028137,0.0931267144960967
23.941144,2.125498276969983,0.0927555052215674
23.943524,2.141560408911692,0.0925024836226992
23.945928,2.1576225408534007,0.0922547524672729
23.948316,2.1715428024218326,0.0921027880562868
23.950696,2.183460963243847,0.0920149229183093
23.953088,2.1964500592525003,0.0918871200494759
23.955476,2.210510090447792,0.0917298121223243
23.957868,2.223918495337026,0.0915437156444052
23.960264,2.239468770599537,0.0912836655511404
23.962652,2.258371621048824,0.0909048507118639
23.965032,2.2732702700052774,0.090645395581165
23.967432,2.292033350827704,0.090303675777778
23.96982,2.3072115390378776,0.0899931925987717
23.9722,2.327604633554383,0.0895294506293966
23.974604,2.349860059190446,0.0890573607076014
23.976992,2.3725347937070893,0.0885241129764697
23.979372,2.3984223337836483,0.0878904155541931
23.981776,2.421236837927152,0.0873651319285523
23.98416,2.4401869102046816,0.086916601317584
23.98654,2.458205816922433,0.0864856496123304
23.988944,2.476364493267045,0.0860340633611982
23.991332,2.494802708865377,0.0855444800060094
23.993712,2.5153827948369867,0.0850039898666502
23.996108,2.535031715248818,0.084480886131413
23.998492,2.5536097004740097,0.0839859541373923
24.000872,2.573118851258981,0.0834856327647723
24.003268,2.5878324046182,0.0830771183179082
24.005656,2.606550159470253,0.0825857995815329
24.008036,2.6234055832027496,0.0821293563457638
24.010432,2.634114935069135,0.0818275528745853
24.012816,2.6442652084280795,0.0815921484200644
24.015212,2.649759653988132,0.081421972362983
24.017616,2.667686012907266,0.0809577070359602
24.020004,2.67946629996029,0.0806408064960595
24.022384,2.6844488888411453,0.0804407893748765
24.02478,2.690362643281779,0.0802312068239473
24.027164,2.691992656975858,0.0801348943465502
24.029544,2.6937624402967977,0.0800226783558605
24.031952,2.699536425110571,0.0798323907474247
24.034336,2.7043792443645667,0.0796523778596752
24.036716,2.7113639339918385,0.0794194446671117
24.03912,2.71820885399225,0.0792038231306256
24.041508,2.722120507686467,0.0790405750437251
24.043888,2.725100995820905,0.0788871033424708
24.046284,2.732225455075038,0.0786446711929206
24.048672,2.737767122463333,0.0783930140780255
24.051052,2.7461022865309643,0.0781099205564057
24.053448,2.7515041842924,0.0778777934805253
24.055836,2.754764211680558,0.0776958912835825
24.058216,2.762168210188411,0.0774264078317667
24.060612,2.772133387950121,0.0770553000489763
24.062996,2.789036033510861,0.0765757070183361
24.065376,2.796951888697912,0.0763598850048205
24.067772,2.8079407798180176,0.076085548532495
24.07016,2.8237252683638743,0.0757486679751098
24.072556,2.839230217656012,0.0754460434643836
24.07496,2.8599500732544816,0.0750383939925002
24.077348,2.8765259577332563,0.0747086814258015
24.079728,2.890168575905837,0.0744238124954459
24.082124,2.907023999638333,0.0740705063121888
24.084508,2.9206666178109137,0.0737917242303446
24.086892,2.9363113367299105,0.0734843192693005
24.089284,2.948883019715853,0.0732290307594046
24.091672,2.9633170338213515,0.0729566777664226
24.094052,2.974678011993795,0.07274511348052
24.096448,2.9838971197929616,0.0725799375318369
24.098832,2.996189263525183,0.0723661267437009
24.101228,3.008201868003684,0.0721823025139818
24.103624,3.025289609161657,0.0719162204498548
24.106012,3.0431687462525487,0.0716664894741694
24.108392,3.0570436818506064,0.0714754462630299
24.110796,3.06090811371658,0.0714316643846293
24.113184,3.0642606889033552,0.0713502245916266
24.115564,3.068404660023049,0.0712772879168759
24.11796,3.070826069650048,0.0712050442638573
24.120348,3.073666788157625,0.0710903582984172
24.122728,3.0703614347990924,0.071075281680598
24.125124,3.072270987746893,0.0709672444514431
24.127512,3.077113807000888,0.0708244169593217
24.129892,3.08246848293408,0.0707207723836265
24.132296,3.0870317629343544,0.0706081019512788
24.134684,3.0895929421882125,0.070524054398131
24.137064,3.096158322934904,0.0703838807758037
24.13946,3.0996506677485387,0.0702917034568434
24.141848,3.1052848829354525,0.0701588179319559
24.144228,3.115063069242059,0.0699580030660401
24.146624,3.119254262189996,0.0697989476790316
24.149012,3.1237249943916536,0.0696118647470726
24.151408,3.125541999540836,0.0694322575870808
24.153804,3.1205613065178506,0.0693219167198608
24.156196,3.122378311667034,0.0691426264594681
24.158576,3.131132784615245,0.068877145195435
24.160968,3.1398872575634567,0.0686097347771911
24.163352,3.1471987082726915,0.0683159572729083
24.165732,3.1534392237952886,0.0680415100760023
24.168136,3.157677638571469,0.0677937631442571
24.17052,3.1674104989077025,0.0674334292869672
24.1729,3.175141258497518,0.0671023106456679
24.175304,3.1792871254750814,0.0667806144614463
24.177692,3.178777164653753,0.0664868038063652
24.180072,3.1822714053252588,0.0661446900139614
24.182464,3.18883868192982,0.0657638334053935
24.184852,3.1923329226013246,0.065424427736648
24.187244,3.199179738459605,0.0650138692296848
24.189648,3.202022352825053,0.0646519165270408
24.192036,3.2023037879366423,0.0643699061212397
24.194416,3.204028245287208,0.0641170851577996
24.19682,3.2077548033841903,0.0638432236408737
24.199204,3.2099911174139537,0.0636277210671122
24.201584,3.216371402563411,0.0633494525211358
24.203992,3.218887255846895,0.0631078526429435
24.206376,3.22061171319746,0.0628601993767825
24.208756,3.22634037204086,0.0625708816148665
24.211152,3.233651822750096,0.0623026629290948
24.21354,3.2449674749521646,0.0619950543216009
24.21592,3.2572142927140124,0.0616836372081644
24.218324,3.268902031968419,0.0614298116515492
24.220708,3.2835230375290214,0.0611568112804671
24.223088,3.302520331634794,0.060893876469689
24.225484,3.323240187233264,0.0606338472529694
24.227872,3.342889107645095,0.060395178560457
24.230252,3.358673596190953,0.060186012771723
24.232648,3.3806041566029217,0.0599112724566368
24.235036,3.406538918507723,0.0596115133805774
24.237416,3.4326134500393857,0.0592964358628205
24.239808,3.45817612489185,0.0589452835368268
24.242196,3.4860204397444523,0.0585548749845703
24.244592,3.507858452357803,0.0582174518991911
24.246988,3.531698565717571,0.0578609562527116
24.249372,3.5552591398236197,0.0575309791855536
24.251756,3.5817529802358616,0.0571867141963671
24.254148,3.6102489213945215,0.0568349981111947
24.256536,3.631947164381012,0.0565255410119712
24.258916,3.6496412058746697,0.0562496539931669
24.261308,3.664681520315853,0.0559745474700097
24.263696,3.6795820651301754,0.0557118235093689
24.266092,3.691689113265162,0.0554562937931624
24.268488,3.7008628950939535,0.0552220335026795
24.270872,3.70831411543005,0.0549831005058268
24.273252,3.7191179109529218,0.0546957202087429
24.275656,3.728850771289155,0.0544227045848282
24.278044,3.7393750275583058,0.0541589288732994
24.280424,3.7456155430809033,0.0539504356115584
24.28282,3.745570217110529,0.0538095501341832
24.285208,3.752043050058604,0.0536595320147581
24.287588,3.761449149312873,0.0534955311427975
