Time,Force,Position
24.607776,0.957582109198962,0.1316135725867313
24.610156,0.9660079252073408,0.1314727034520701
24.612552,0.9777390945742522,0.1312130320682469
24.61494,0.9915649124861976,0.13097275371295
24.617324,1.006973522263979,0.1307141810683647
24.61972,1.0245240024150375,0.1302217126679683
24.622108,1.0387691292075638,0.1298143653530071
24.624488,1.0509196074550555,0.1294044888033965
24.626888,1.0612077545829914,0.1291444670349859
24.629276,1.070192649098811,0.1288441663589968
24.631656,1.0814591836147678,0.1283164264766357
24.634052,1.0895601343990522,0.1278469277731564
24.636436,1.1003148122358115,0.1272396867389136
24.638816,1.1137232171250453,0.1265080325118661
24.641212,1.1309960538802528,0.1255054329308841
24.6436,1.1519935528745735,0.1242301492756034
24.645996,1.1767157141080078,0.1227413562545601
24.648392,1.205022767953695,0.1211583200197799
24.65078,1.229325620306548,0.1198221558006865
24.65316,1.2488328752336495,0.1188519213715644
24.655556,1.26913152609367,0.1179087787429261
24.657944,1.2846345795279377,0.1173002587901596
24.660324,1.2961806532976148,0.1167824864432818
24.66272,1.3084255752015934,0.1160773613631917
24.665108,1.3177372307993764,0.1155647745634342
24.667488,1.3231844545311862,0.1152958613504212
24.669884,1.334358441248526,0.1146793242474834
24.672268,1.3441819535255068,0.1142305761345708
24.674664,1.3569387321086828,0.113608629136108
24.67706,1.3708589936771145,0.113094933815712
24.679448,1.3814266800587705,0.1128996188340421
24.69616,1.4331450590942985,0.1128435674814744
24.698564,1.4396159961845036,0.1127686827003205
24.700948,1.448880429954044,0.1125705395048566
24.703332,1.4554911366711092,0.1124579287700275
24.705736,1.4668974408139264,0.1121181057272283
24.70812,1.481748867942136,0.111707335858247
24.7105,1.4961809861897657,0.1114088473252387
24.712896,1.510752874064255,0.1110566663898915
24.71528,1.5291891938047182,0.1105118654199834
24.717676,1.5464148087316822,0.1101063450120547
24.720072,1.5685757907112592,0.10947789507672
24.722456,1.5850100097053053,0.1090917586919531
24.724836,1.6001409760872356,0.1086569691074208
24.72724,1.6143407769093876,0.1082392865369291
24.729624,1.6280287210523416,0.1077550491671399
24.732008,1.6426478307550745,0.1072527135224946
24.734404,1.6581981060175854,0.106721049394415
24.736788,1.6754709427727927,0.1061666245598757
24.739172,1.6844558372886125,0.1060627863410877
24.741564,1.6945116669910705,0.1058895118255391
24.743952,1.7107135685596395,0.1053833313295399
24.746348,1.725053139008652,0.1050006541025664
24.748744,1.7424657453907195,0.1044948868336368
24.751132,1.7629513877058427,0.1038565069388925
24.753516,1.7826456340880474,0.103255448061812
24.755912,1.7984754486042789,0.1027993732127825
24.758296,1.8107203705082573,0.1024156177335971
24.76068,1.823244831665956,0.1019697675412036
24.763076,1.8351176665175968,0.1015148434128038
24.76546,1.84633887506318,0.1010460544703923
24.76784,1.8527644861830117,0.1007426486137577
24.770236,1.8621233636090373,0.1003264063892009
24.772624,1.8738564288338184,0.09991871936594
24.77502,1.8888022996185148,0.0993588116116053
24.777416,1.9043997967092687,0.0988196251284857
24.7798,1.916784488240108,0.0984333365090385
24.782184,1.927958474957448,0.0981239645498619
24.78458,1.9354077994356744,0.097918117782606
24.786968,1.9522160013399268,0.0973007065832059
24.810848,2.0043574809717746,0.0967697707385082
24.813252,2.01478539772657,0.0967688757180059
24.815636,2.026796106347202,0.096768707818722
24.818016,2.042671246833807,0.0966691135157699
24.820412,2.0573829043351566,0.0965081482625557
24.8228,2.0702322307169503,0.0963932331106484
24.825184,2.088016924151355,0.0961503341581717
24.82758,2.1085025664664783,0.0957411270279655
24.829968,2.1294075176621816,0.095265121819788
24.832364,2.152174799977442,0.0947424431155106
24.83476,2.168656240799732,0.0944565626399231
24.837144,2.1840667464353825,0.0942109272329107
24.839528,2.2011998135637296,0.093952905845932
24.841932,2.219124276624995,0.0936751629932409
24.844316,2.240121775619316,0.0932989262604582
24.846696,2.2632611449869136,0.0928352864341289
24.849096,2.2942691477133192,0.0921301007541263
24.851484,2.326627624880083,0.091339924691848
24.853864,2.3516765471954804,0.0907160784407585
24.85626,2.370998706525348,0.090246958296722
24.858648,2.3878069084296003,0.0898012107138192
24.861028,2.4003313695872985,0.0895067355370904
24.863424,2.413414909252438,0.0891351219768233
24.865812,2.4224942474247446,0.0888819485343426
24.868192,2.429152175970053,0.0887440356536018
24.870588,2.437672435634918,0.088576471711183
24.872976,2.443399198620448,0.0884650850501956
24.87536,2.4507087534718144,0.0883666915618721
24.877756,2.460811805002516,0.088229259907864
24.88014,2.472637418025914,0.0880832484513491
24.882536,2.482740469556616,0.0879403194743351
24.884936,2.494193995527676,0.0877292209334022
24.887324,2.502062628886483,0.0875571416365268
24.889704,2.5174278085517603,0.0871608178018129
24.8921,2.5289285563510635,0.0868411780774175
24.894488,2.53856697303081,0.086549941601369
24.896868,2.5471344545239183,0.0862988432934959
24.899272,2.5546310008303874,0.0860809995421763
24.90166,2.563570569375833,0.0858866430508869
24.90404,2.573441303481057,0.085677325396267
24.90644,2.5818217935190626,0.0855516189319575
24.908824,2.592483923557205,0.0853380930589758
24.939872,2.609569768857309,0.0852441141592818
24.942268,2.616367467029477,0.0851272816463266
24.944656,2.6195802725893924,0.0850412330868227
24.94704,2.624934948522585,0.084900030904496
24.949436,2.6307089333363587,0.0847081426004721
24.951824,2.6366226877769923,0.0844999621492963
24.95422,2.644306225538566,0.0841782999871084
24.956616,2.654411172927136,0.0837729502667775
24.959004,2.664935429196287,0.0833202807791731
24.961384,2.673597354345881,0.0828861601087602
24.96378,2.68067648762964,0.0824374354989866
24.966168,2.68682445535362,0.0819934795788754
24.968552,2.701772221996185,0.0813984229806783
24.970948,2.721934894945083,0.0806731941757061
24.973336,2.7451706038270367,0.0798853233609479
24.975716,2.765333276775934,0.0791734154722521
24.978112,2.7805605826722206,0.0785575697346873
24.9805,2.7940653270758107,0.077953531684008
24.98288,2.806638905919621,0.0773698924161597
24.98528,2.8178620103230743,0.0768427358343764
24.987668,2.828665805845945,0.0763698227164346
24.990048,2.834394464689345,0.0760061017543619
24.992444,2.842776850585219,0.0756280731624902
24.994832,2.8500883012944542,0.0752817703558378
24.997228,2.85739975200369,0.0749366141401692
24.999624,2.865642368272704,0.0745847952077735
25.002012,2.8736054452879976,0.0742666392603579
25.004392,2.8780761774896546,0.0740549940114241
25.006792,2.8846415582363463,0.0738972599030646
25.00918,2.895211140475872,0.0736763201755354
25.01156,2.9084344497678707,0.0734451709113147
25.013956,2.9287349964857605,0.0731008180028764
25.016344,2.9418185361509,0.07289354498614
25.018728,2.9528999750696228,0.0727206843076827
25.021132,2.963701874734625,0.0725815015262632
25.02352,2.9752951703325463,0.0724482396982876
25.0259,2.9898217322366607,0.0722777521963536
25.028296,3.005139690073695,0.0721161969510924
25.030684,3.020457647910729,0.0719579823089476
25.033064,3.0381970153747604,0.071727105990642
25.03546,3.0572868572791507,0.0714501977160471
25.037848,3.0734434328773457,0.0712047102133528
25.040228,3.0916021092219577,0.0709361285555655
25.042624,3.107479145566432,0.0707238251403989
25.045012,3.1233561819109066,0.0705131905092983
25.047392,3.1369515782552435,0.0703587251475316
25.049788,3.150267435345861,0.0702329175686186
25.052176,3.1666563283695326,0.0700583734249314
25.054572,3.179879637661532,0.0698562968025792
25.056968,3.192032011766894,0.0696795361465154
25.059356,3.200459723633142,0.0695278762472118
25.061736,3.203020902887,0.0694460300184228
25.064132,3.2086551180739127,0.0693164538107645
25.06652,3.215080729193744,0.0691951873857186
25.0689,3.2177816780744624,0.0690993301536352
25.071296,3.22062239658204,0.0689894369454764
25.073684,3.224254511022537,0.068888340129963
25.076068,3.225093128783698,0.0688056918858184
25.083232,3.2130351983348238,0.068795025259393
25.085624,3.2115921760958472,0.0687659884287802
25.088016,3.206564261244618,0.0687467515168484
25.090412,3.202095424900829,0.0686728645352582
25.092808,3.19841798448996,0.0686067326719272
25.095196,3.1980931192658653,0.0684689588286208
25.09758,3.200049894041908,0.0682801284477107
25.099976,3.200004568071534,0.0681172114912358
25.10236,3.202612969153635,0.0679519239582425
25.104744,3.204429974302817,0.0677797335748985
25.107144,3.214115612810807,0.0675284338604939
25.109532,3.2235217120650765,0.0673018610853855
25.111912,3.2322761850132884,0.0670558007585335
25.114308,3.240239262028582,0.0668029472359346
25.116696,3.250064670163432,0.0665382106896662
25.11908,3.2603093871788627,0.0662354987231595
25.121476,3.270182017141956,0.0658906450877475
25.123864,3.2821965174783267,0.0655090022381194
25.126244,3.295421722628195,0.0650923550306434
25.128644,3.309997402218424,0.0646350917015879
25.131028,3.327366578487988,0.0641669077209057
25.133412,3.3450152940112705,0.0636825656144541
25.135808,3.362244700653973,0.0632347805855037
25.138196,3.3813364384162323,0.0627818641728743
25.140576,3.3985658450589358,0.06233749274533
25.142976,3.4130017550223037,0.0619101728367568
25.145364,3.423573233119697,0.061513528335049
25.147744,3.434284480843952,0.0611047002328262
25.150144,3.4379184911423177,0.0607703269379789
25.152532,3.4391310918136857,0.060493738511835
25.154912,3.43633949099222,0.0602626204829694
25.157308,3.436620926103809,0.0599957888770202
25.159696,3.4367625915885385,0.0597419196916731
25.162092,3.4350419259537115,0.0594939572244309
25.164488,3.4346717347592435,0.0592056047341511
25.166876,3.435884335430611,0.0589376964998945
25.16926,3.4365378575945384,0.0587213229514583
25.171656,3.4409160419975784,0.0584962314172781
25.174044,3.447296327147036,0.0582541397554038
25.176424,3.4500444978559965,0.0580928922681009
25.17882,3.448788467072124,0.057967149324321
25.181208,3.4411068251684203,0.0579311321182575
25.183592,3.436498219197772,0.0578623258876967
25.185988,3.43361217471982,0.0578005073506105
25.188376,3.434730331734701,0.0577047084054065
25.19076,3.4403645469216144,0.0576097032609354
25.193156,3.450654589907419,0.0575037130172724
25.195544,3.4589425321468075,0.057413956382441
25.197928,3.4765893518122217,0.0572199264203723
25.200324,3.497448977037552,0.0569814527600384
25.202712,3.5172376670762424,0.056758850605752
25.205092,3.536234961182015,0.0565310442682535
25.207492,3.556023651220707,0.0563142164132608
25.20988,3.576463967565456,0.0561167934590647
25.21226,3.596484975029624,0.0559581822068792
25.214656,3.6155748169340143,0.0558045613798237
25.217044,3.6340130325323465,0.0556315231224098
25.219428,3.646444945891428,0.0555059744809676
25.221824,3.6605994207432064,0.0553911299989338
25.224212,3.6802483411550377,0.0551998816841546
25.226596,3.7031100671267847,0.0549693485203622
25.228992,3.7353306705245575,0.0546448457924221
25.23138,3.765828712429634,0.0543176470191621
25.233764,3.792741861722457,0.0539905358284445
25.23616,3.817792679895724,0.0536735432880045
25.238548,3.840189771016516,0.0533563129676955
25.240932,3.8587224302713343,0.0530572501650775
25.243328,3.882050686951905,0.0527427963241199
25.245716,3.901095202885921,0.052481472684907
25.248096,3.920139718819937,0.0522226980042478
25.250496,3.936250968447759,0.0519750551887094
25.252884,3.948218246955885,0.0517627146719914
25.255264,3.958323194344457,0.0515523506009271
25.257664,3.972572112852721,0.0513077038471317
25.260052,3.985889865801207,0.0510646354143633
25.262436,3.999207618749693,0.0508236664315982
25.264832,4.013037228377377,0.0506143538037789
