Time,Force,Position
23.802732,1.0506170301949604,0.1328193193827629
23.805128,1.062954499897556,0.1318797999469409
23.8362,1.0953545113189551,0.1305743952803849
23.838584,1.1043394058347746,0.130296996894674
23.840968,1.1139759266566522,0.130080431664949
23.84336,1.1233801300530526,0.1296966527471666
23.845748,1.1319929375165347,0.1293456781845013
23.848132,1.147682982405906,0.1284920308665914
23.850536,1.1616504658025808,0.1277108626750779
23.852924,1.176549114759034,0.1268403717793478
23.855304,1.193729403715624,0.1258285068526371
23.8577,1.210490383791634,0.1249287430161966
23.860088,1.2317674220396757,0.1237822552934244
23.862472,1.2556981873401911,0.1225220981747183
23.864868,1.286054563760538,0.1206501952480452
23.867256,1.3118476601806108,0.1191719233416132
23.869636,1.3400149443994376,0.1175796668778023
23.872032,1.3641780271254311,0.1163466399786709
23.87442,1.382754116492754,0.1155086860936625
23.912644,1.4710126863536368,0.1154849135708628
23.915048,1.4761803708317265,0.1153663247178229
23.917436,1.4840490041905336,0.1150046037477059
23.919816,1.4944788168031988,0.1144245881480908
23.922216,1.5072828172146178,0.1138244606181028
23.9246,1.52558126318609,0.1128713238051693
23.926984,1.537361550239114,0.1121692706050591
23.92938,1.5480709021054992,0.1115449757404956
23.931768,1.5687907577039688,0.1104492420688987
23.934148,1.591512714048855,0.1092825516470956
23.936544,1.6198216637524112,0.1079250132661996
23.938932,1.6492015486426062,0.1065249368825892
23.941316,1.6805835342792177,0.1049904526733622
23.943712,1.7071699224900776,0.1035872303387958
23.9461,1.731754209954521,0.1023317209975724
23.94848,1.750751504060294,0.1012885064935535
23.950876,1.770307876673508,0.1000836366024158
23.953264,1.786371904473086,0.0991296070273805
23.955648,1.7977801044737722,0.0983580077924
23.958044,1.8073259733549023,0.097668296148846
23.960432,1.821248130781203,0.0968855121715654
23.962812,1.8280930507816149,0.0964498073621899
23.965212,1.833727265968528,0.096119790894554
23.967596,1.8389421722748605,0.0958794609534086
23.969992,1.845647322648412,0.0955131066762308
23.972392,1.851281537835325,0.0952158548757943
23.974776,1.8635736815675463,0.094732024214223
23.97716,1.878659321979103,0.0941955872920767
23.979556,1.887087033845351,0.0938596596030555
23.981944,1.8943040408981,0.093599059492919
23.984324,1.8995189472044325,0.0934092882015473
23.986728,1.9062240975779845,0.0931189363656043
23.989116,1.9147915790710923,0.0927962013533118
23.9915,1.9301567587363693,0.0922900992549525
23.993896,1.9436596072820895,0.0918180472861499
23.996284,1.963540845119398,0.0912416600924601
23.998664,1.9856565011286005,0.0906950060769536
24.00106,2.0168514953101084,0.0898919878672384
24.003448,2.0532141739697063,0.0890513420480566
24.005832,2.088505917442665,0.0882502502598557
24.008228,2.119281602743593,0.0875236411761131
24.010616,2.1540614895373547,0.0866673625868353
24.012996,2.1837662396516437,0.0859653313508655
24.015392,2.214402155325711,0.0852617126829006
24.063168,2.2878168814898614,0.0852194206996484
24.065564,2.2877243336912447,0.0851175781279474
24.067952,2.2888424907061258,0.0849630987574309
24.070336,2.287306920668533,0.0848305521866425
24.072732,2.290846487310412,0.0845715421054319
24.07512,2.2923839532058747,0.0843564977773173
24.077504,2.292850483914698,0.0841745004265478
24.0799,2.293177244996662,0.0840076198469332
24.082288,2.3005812435045145,0.0836557605420643
24.084684,2.3041208101463933,0.0833882745621582
24.08708,2.309382938280969,0.0831179294302601
24.089468,2.31157203048249,0.0829299331343954
24.091848,2.318556720109762,0.0826578028452669
24.094252,2.3284746760432293,0.0823346737423504
24.09664,2.34812359645506,0.0818165733759338
24.099024,2.369495078359587,0.0812969183960389
24.10142,2.389143998771418,0.0807825919881844
24.103812,2.4059994225039145,0.080313935467015
24.106192,2.4245774077291067,0.0798402319688418
24.108592,2.434355594035714,0.0795407665568838
24.11098,2.4453444851558195,0.0791951497609755
24.11336,2.4521894051562314,0.0789575659433448
24.11576,2.459825721089561,0.0787285681013699
24.118148,2.4683932025826696,0.0784880847485877
24.120532,2.474027417769583,0.0783025011248544
24.122928,2.4860872440763275,0.0779436024628408
24.125316,2.5001491711294883,0.0775451676941632
24.1277,2.5212883356085385,0.0769973233107939
24.130096,2.53549003228856,0.0765863044164258
24.132484,2.552205686394195,0.0761805621368609
24.134868,2.5650569086338577,0.0758389979899485
24.137264,2.5788392964332987,0.0754847443818772
24.139652,2.590200274605742,0.0752294621843873
24.146824,2.5927614538596,0.0751213413758667
24.149208,2.5939721586730977,0.075076896783428
24.151604,2.595834489792655,0.0750568173726021
24.153996,2.5978365905390715,0.0750200031332826
24.15638,2.6074277853905747,0.0748865177239112
24.158784,2.61580827542858,0.0747991836984899
24.161168,2.628192966959418,0.074640712927792
24.163552,2.6385755577438403,0.074517720813373
24.165948,2.64960977483432,0.0744197847620475
24.177884,2.690020085099256,0.0743889408684229
24.18028,2.6951877695773456,0.0743863715274862
24.182668,2.6995640581225167,0.0743753021879654
24.185052,2.7059424474141043,0.0743312913022771
24.187448,2.7108778144667163,0.0742552260356512
24.189836,2.7208883181988006,0.0740867944727526
24.192216,2.735834188983497,0.0738405725872067
24.194616,2.753061699768331,0.0735261136915066
24.197004,2.7687989664859454,0.0732949816464271
24.199384,2.786817873203697,0.0730027239745054
24.201784,2.802834679175032,0.0727442155741745
24.204172,2.813404261414557,0.0725221169590174
24.206552,2.823042678094304,0.0723070851587578
24.208952,2.8278854973482987,0.0721493331925084
24.21134,2.8330078558560143,0.0719585201123605
24.21372,2.83840975361745,0.0717377581626949
24.216124,2.8405988458189704,0.07158847611948
24.218512,2.8430674772742117,0.0714059768435126
24.220892,2.848050066155066,0.0712313732748687
24.223288,2.855965921342116,0.071022759641227
24.225672,2.8638817765291664,0.0708169668281307
24.228056,2.872589027649135,0.0706186952250255
24.23046,2.8871628113814936,0.0703486695410791
24.232848,2.8997344943674355,0.0701115854033002
24.235228,2.911235242166739,0.0698946129319045
24.237624,2.9188715581000686,0.0697239321204651
24.240008,2.92557670847362,0.0695632279207207
24.242392,2.932421628474032,0.0693902592935541
24.244788,2.938894461422106,0.069168007563009
24.247176,2.943225423996904,0.0689897286234742
24.249556,2.952631523251173,0.0687412775777628
24.251952,2.965762284744556,0.0684702558565095
24.25434,2.979824211797717,0.0681921673203587
24.25672,3.0008236066499068,0.067836626851964
24.259116,3.024616498181432,0.0674676860640172
24.261504,3.046127749712819,0.0671516265551154
24.263884,3.0689894756845657,0.0667844205278295
24.26628,3.0949242375893675,0.0663755338847878
24.268668,3.1194159772551933,0.065940363651839
24.271048,3.136830479495131,0.0656020415087389
24.273452,3.1551761472948465,0.0652641511496034
24.27584,3.1716594839750045,0.0649343879479881
24.27822,3.182416057669633,0.0646544844990952
24.28062,3.19396402729718,0.0643836035168625
24.283008,3.208305493604062,0.064096168498928
24.285388,3.2237178950975816,0.06378936025572
24.287784,3.2389905269642414,0.063499429954278
24.290172,3.2530524540174026,0.0632445028028906
24.292556,3.263901575510648,0.0630463272325233
24.294952,3.274890466630754,0.0628350499274355
24.29734,3.2815956170043057,0.0627001439881958
24.29972,3.289371702564496,0.0625510871495327
24.302116,3.298358492938185,0.0623727722262243
24.304504,3.301338981072623,0.0622611216788507
24.306884,3.3044592388339216,0.0621385575423732
24.309284,3.308138575102661,0.0619638254783194
24.311672,3.315961882491094,0.0617399429320529
24.314052,3.322714254692889,0.0615352246008845
24.316448,3.333051519506936,0.0613333125458158
24.318836,3.348603690627317,0.0610647053024099
24.321216,3.361222595441502,0.0608197394877414
24.323612,3.3795682632412176,0.0605454685660677
24.326,3.400567658093407,0.0602738002234158
24.32838,3.419984261079761,0.0599838691326302
24.33078,3.440471799252753,0.0596822501262074
24.333164,3.460959337425745,0.0593823045234505
24.33556,3.4797243141060408,0.0590770393762423
24.337956,3.501422557092532,0.0587545321839714
24.340344,3.5259142967583577,0.0584220505925709
24.342724,3.552268367543741,0.0580878706860661
24.34512,3.5787622079559838,0.0577405890448408
24.347508,3.599529285382697,0.0574253731443283
24.349892,3.618945888369051,0.0571506045779009
24.352288,3.638362491355404,0.0568740848384841
24.354676,3.65670815915512,0.0566169658882787
24.357056,3.6795698851268654,0.0563636996221459
24.359452,3.6960059999787815,0.0561981722152234
24.36184,3.7136528196441954,0.0560112528461959
24.364236,3.725712645950939,0.0558394421236484
24.366632,3.734699436324629,0.0556979278851354
24.36902,3.7467592626313726,0.0555288654347002
24.3714,3.7560255922587817,0.0553686398248971
24.373796,3.763569360393495,0.0552012097353413
24.376184,3.7740463948344023,0.0550187521631911
24.378564,3.7857341340888095,0.0548167060483306
24.38096,3.7994239740896334,0.0546030629481662
24.383348,3.81804918114307,0.0543644508554244
24.385732,3.8300164596511976,0.0541461529035838
24.388128,3.840400946293488,0.0539097078093732
24.390516,3.847060770696666,0.0536789586292411
24.392896,3.8519980336071473,0.053438944411292
24.395292,3.862242750622578,0.0532132301124792
24.39768,3.873837942078368,0.0529549270569853
24.400064,3.8874352342805736,0.0526839048859863
