Time,Force,Position
5.283044,0.0030277183463380004,0.0
5.287023999999999,0.005158219817664177,0.0
5.291059999999998,0.009193879938948872,0.0
5.295096000000001,0.013118815160298693,0.0
5.299184,0.01794096725666034,0.0
5.303267999999999,0.02444682820311076,0.0
5.307248000000001,0.03095268914956118,0.0
5.311188000000001,0.03476689947097613,0.0
5.315211999999999,0.039478326667402905,0.0
5.319192000000001,0.043181812088882984,0.0
5.323271999999999,0.04688529751036307,0.0
5.327363999999999,0.05249394158180167,0.0
5.331392000000001,0.05518948522833504,0.0
5.335363999999998,0.05518948522833505,0.0
5.339400000000001,0.055189485228335056,0.0
5.3434360000000005,0.055979870224909925,0.0
5.347515999999999,0.055979870224909925,0.0
5.351607999999999,0.055979870224909925,0.0
5.355643999999998,0.055979870224909925,0.0
5.359680000000001,0.055979870224909925,0.0
5.363712,0.052952151878571926,0.0
5.367751999999999,0.050821650407245754,0.0
5.371796,0.04678599028596106,0.0
5.375883999999999,0.042861055064611235,0.0
5.37998,0.03803890296824959,0.0
5.384067999999999,0.031533042021799164,0.0
5.388103999999999,0.025027181075348747,0.0
5.392136000000001,0.021212970753933795,0.0
5.396172,0.016501543557507017,0.0
5.400264,0.012798058136026937,0.0
5.404351999999999,0.009094572714546854,0.0
5.408439999999999,0.0034859286431082556,0.0
5.412436,0.0007903849965748688,0.0
5.416467999999998,0.0007903849965748688,0.0
5.420448,0.0007903849965748688,0.0
5.424531999999999,0.0,0.0
5.428567999999999,0.0,0.0
5.432644,0.0,0.0
5.436727999999999,0.0,0.0
5.440760000000001,0.0,0.0
5.444792,0.0019090516714564347,0.0
5.448879999999999,0.0019090516714564344,0.0
5.452967999999999,0.0019090516714564344,0.0
5.457059999999999,0.0038181033429128693,0.0
5.46116,0.00684582168925087,0.0
5.465204,0.009984264935523741,0.0
5.469183999999999,0.010209607756891401,0.0
5.473275999999999,0.01043495057825906,0.0
5.477363999999998,0.01043495057825906,0.0
5.481400000000001,0.01043495057825906,0.0
5.485492000000001,0.01043495057825906,0.0
5.489484000000001,0.01043495057825906,0.0
5.493516,0.01043495057825906,0.0
5.497568000000001,0.01043495057825906,0.0
5.501652,0.01043495057825906,0.0
5.505679999999998,0.01043495057825906,0.0
5.50976,0.010881743199496464,0.0
5.513852,0.01233647759568056,0.0
5.517879999999998,0.012893995116852833,0.0
5.5219640000000005,0.012893995116852835,0.0
5.526043999999999,0.0109849434453964,0.0
5.530124000000001,0.013359730067658025,0.0
5.534208,0.024164478615896372,0.0
5.538236000000001,0.03633970364398667,0.0
5.542259999999999,0.05235949899859255,0.0
5.5462880000000006,0.07524769000455413,0.0
5.550263999999999,0.1107197526117469,0.0
5.554351999999998,0.15115505222033684,0.008417013941802306
5.558388000000001,0.19722183125143108,0.01683541013646259
5.562424,0.2505999055336205,0.02499995036944882
5.566512,0.30982701601668605,0.03300653150030384
5.570543999999998,0.3744602631008882,0.04104842776511105
5.574583999999998,0.4443889218862921,0.0491585942470841
5.578672000000001,0.5205102092479096,0.057258879938846804
5.582764000000001,0.6037213420607526,0.06528890160122632
5.586856000000001,0.6884175692748803,0.07367986244322708
5.590948000000001,0.7788596324439843,0.08204341625466015
5.59498,0.8743756575144201,0.0904110617613084
5.599028000000001,0.9769815280360814,0.09875596072500706
5.603059999999999,1.08767766112988,0.10693423286483024
5.607147999999999,1.2045550051243594,0.11496253261673402
5.611232000000001,1.3243415565222458,0.12289661146760439
5.615268,1.4363739130692976,0.13083341189943146
5.619240000000001,1.5450160165651063,0.1387919745200499
5.623276000000001,1.6476869412845712,0.1468138130675898
5.627296000000001,1.7434894703526804,0.15481365187041096
5.631376,1.8317478366942914,0.1626669490776365
5.635456000000001,1.914145749159494,0.16214332867640088
5.63954,1.9900188583486784,0.16170281149263557
5.643567999999998,2.0601536562369214,0.16147776349165366
5.647607999999998,2.1247830102996255,0.16147804234051216
5.651699999999998,2.1914054125611573,0.16109305607764543
5.655784000000001,2.252510953321618,0.1606800914271475
5.659868,2.30709169080606,0.1603377013119085
5.663955999999999,2.355369074814354,0.16004886186199305
5.667952,2.4048530150463985,0.1592910134901617
5.671987999999999,2.448820093777371,0.15856455932453642
5.676068000000001,2.4874917608071425,0.15781851233712754
5.680152,2.522441000085866,0.15703071995694487
5.684235999999999,2.5504225364888318,0.15643275791765912
5.688320000000001,2.5707720206164306,0.15611481484639061
5.692315999999998,2.586402552893568,0.15591381692606723
5.696348,2.6038275189207285,0.15564463044176935
5.700384,2.623268368497783,0.15526803484149748
5.704467999999999,2.6433849851499787,0.1548838231600349
5.708552000000001,2.662272210227358,0.15459279007649235
5.712631999999999,2.6789221019549743,0.15446711397547896
5.716667999999999,2.6982636443076267,0.15423362475985627
5.720692,2.7214155039601953,0.15381721549957844
5.724720000000001,2.7428836547626756,0.1534573280551048
5.728795999999999,2.766810588714789,0.15291708892485195
5.732887999999999,2.779528020567021,0.15289062571175702
5.736964,2.794261335969146,0.15275891447249781
5.741,2.8104454927459575,0.1524988698055638
5.745028000000001,2.8259538824476267,0.15223770008638807
5.749056,2.840675780174219,0.15200522729604693
5.753091999999999,2.856848519275498,0.15165693151601128
5.757176000000001,2.8704403326516763,0.15138347611189534
5.76126,2.8806647283276763,0.15120472063858786
5.765287999999998,2.8904348067284045,0.1509851867072633
5.769327999999998,2.9038930598535817,0.15050677688607864
5.773312000000001,2.912410911328428,0.15013749190917325
5.7773520000000005,2.914083202502984,0.1499736519385705
5.781396000000001,2.911945176377623,0.1499801844019008
5.785491999999998,2.9124873832017637,0.14977264424528416
5.789587999999998,2.9152669233756687,0.14942574307174045
5.793620000000001,2.9154655378244723,0.14915576176408937
5.797599999999999,2.9133046763480452,0.1489301513275895
5.801631999999998,2.903966079871524,0.14897086328026193
5.805664,2.892268007469772,0.14905990921708517
5.809739999999998,2.877091792467907,0.14925806540503944
5.81382,2.8640421859158707,0.14934501747598344
5.817896000000001,2.8474037118637865,0.14957145996937588
5.821928,2.829081528961615,0.14984154535921945
5.825955999999998,2.8089649123094182,0.15018513677139772
5.829988,2.7862673699321214,0.15060486049148458
5.834071999999999,2.7588622933798965,0.15123394220034633
5.838152000000001,2.733583825277499,0.15173909629244842
5.842247999999998,2.709645473649853,0.15212846112915138
5.846284000000001,2.685928571822077,0.15247161381144286
5.850331999999998,2.657282686019502,0.15306159513176287
5.85436,2.6359252601169567,0.15335939171311924
5.858452,2.6208483523394936,0.15342131748604879
5.862539999999999,2.6096924867618827,0.153285137215576
5.866575999999999,2.598204446484467,0.1531974816315627
5.870660000000001,2.585708464432105,0.15315812283542024
5.874692,2.5760148579047133,0.15300317699758417
5.878688,2.5659890766775173,0.15290567635959595
5.882784000000001,2.564259697125297,0.15246799130139768
5.886876000000001,2.5657870103733194,0.15195099760662908
5.890975999999998,2.566982148921537,0.151489360510722
5.895023999999999,2.5716554300698675,0.1509109280103829
5.899059999999999,2.5793525365430376,0.15016996165074026
5.903099999999999,2.5885119020664273,0.14942239209582758
5.907132000000001,2.598347034664959,0.14866857291623192
5.91122,2.6078499925636858,0.14796814630905167
5.915303999999999,2.6215068601376674,0.14714549093846488
5.919336000000001,2.6374124787369446,0.14631460521750728
5.92332,2.6517565310616007,0.1456365317435498
5.927351999999999,2.6654362339866475,0.1450781007862948
5.931380000000001,2.6853964550367775,0.14428056726088814
5.935459999999999,2.703230067637079,0.143632018660287
5.939543999999998,2.7172533629374636,0.14315693999193632
5.943624,2.727244891138062,0.14289356784667853
5.947651999999998,2.7330939273389383,0.14286031515401482
5.951688000000001,2.739618730614956,0.1428335342296816
5.955728000000001,2.7486137347161406,0.1427502192373514
5.959820000000001,2.7601896645424246,0.14258950473797066
5.963916000000001,2.770536202793893,0.14252909703385092
5.968011999999998,2.7789775823954024,0.1425472816293339
5.972107999999999,2.7902213375218823,0.14245440239846743
5.976140000000001,2.802362309523374,0.14233903915681986
5.980176,2.8157440907752154,0.1422622109030956
5.984264,2.8317067977521564,0.14212477463115103
5.988351999999999,2.8522663140040923,0.14183457098318902
5.992387999999998,2.8783198564060335,0.1413714774007556
5.996476000000001,2.9056027903827912,0.14084734092685522
6.000508,2.929186131959567,0.1404500043298138
6.0046,2.9554611241613786,0.13996960013043042
6.00864,2.9840841746128874,0.13935740600725446
6.012671999999999,3.00889690776448,0.13889647351031045
6.016715999999999,3.035725524465966,0.1383652387198717
6.020800000000001,3.0679374424175223,0.1376853376502372
6.024888000000001,3.104967619443942,0.13683080658919766
6.028915999999999,3.1450216217952023,0.13583584287741587
6.032892,3.1842891321713855,0.13485429277315866
6.03698,3.223999542147308,0.13384828482109
6.041063999999999,3.2620262432731426,0.13288557708634094
6.045151999999998,3.2946696431489055,0.1320675566395572
6.049243999999998,3.3294396514744964,0.13114998947150716
6.0533280000000005,3.3615180091750525,0.1303117505340086
6.057416,3.3883237905254724,0.1296063461416541
6.061503999999999,3.412991545750531,0.12890766331436984
6.065591999999999,3.4294736242005484,0.1284328004866643
6.069668,3.4444934436003467,0.12797550613524514
6.073747999999998,3.4515490360249736,0.12771055278718177
6.077772,3.4522133854245824,0.1276190580976592
6.081803999999998,3.4534313593238664,0.12745034294389143
6.085892000000001,3.4506061484478305,0.12733463490806543
6.089980000000001,3.4459865038217714,0.12726394052547277
6.094072000000001,3.441920483695386,0.12711686426094929
6.098164000000001,3.43247116231893,0.12710408965121398
6.102191999999999,3.4170734975171957,0.12720083333151527
6.106231999999999,3.399316356790231,0.12731032809373818
6.110323999999999,3.3800969570130466,0.1274156112306614
6.114415999999999,3.362217673710613,0.12743494208065112
6.118507999999999,3.339630856233251,0.1275846787243889
6.122599999999999,3.3174869383556285,0.12767108021599377
6.126584000000001,3.2967938618526924,0.12766637691508714
6.130668,3.276432960049561,0.12761000681261514
6.134719999999998,3.2565149578461687,0.12749276524703015
6.138815999999999,3.2393993311677463,0.12729792306256033
6.142863999999999,3.220378545839367,0.12715752796821575
6.146895999999998,3.207294686260732,0.12681572686871437
6.150876,3.1886060756321557,0.12663040497204073
6.154972000000001,3.176640882728402,0.12623177474898042
6.158999999999999,3.166691573374542,0.12575586491463417
6.163080000000001,3.1604418564206647,0.12517914460549337
6.167159999999999,3.156883790091822,0.12453445322227216
6.171256,3.1523177819880326,0.12392509299376357
6.175235999999998,3.1467438321092964,0.1233508826260263
6.179292,3.1430750408805195,0.12271285434803689
6.183316000000001,3.143216566951659,0.12195485503726819
6.187411999999998,3.142128701447983,0.12126434370390671
6.191451999999998,3.1399221692694246,0.12062187478040558
6.195452,3.1335731450911446,0.12014169108937073
6.1995000000000005,3.1273348458128005,0.11964121361171268
6.203479999999999,3.1236774722595566,0.11909519987835053
6.207528,3.121260907956661,0.11858337652242282
6.211563999999999,3.1145911267541093,0.11825010235028242
6.215571999999998,3.1082649379268954,0.11797413159618697
6.219604,3.0998121406498527,0.11778844153170856
6.223700000000001,3.0927108775230936,0.11762398030985066
6.227732,3.083483005946507,0.11755026011835046
6.231824,3.08154359426995,0.11728735927628109
6.235824000000001,3.0725485901687666,0.1172866459909722
6.239804,3.0700555539925345,0.11710437705124381
6.243839999999999,3.0644279675915276,0.11704615789147525
6.247872000000001,3.059586873165598,0.11698266666340561
6.251899999999999,3.054635053839734,0.11693490166067821
6.255928000000001,3.0493510598140654,0.1169346296446974
6.25996,3.0456400497385507,0.11692504365501362
6.264056,3.0432805738133193,0.11693696825265916
6.268148,3.0415968649632306,0.11696059775131494
6.272236,3.040367473388415,0.11702785156243739
6.276264000000001,3.0437348910885924,0.11697860507552385
6.280304000000001,3.049351059814066,0.1169314158893921
6.28434,3.0480223610148474,0.11712232345688525
6.288428,3.049606762640534,0.11721952939439975
6.292459999999998,3.0560094233410844,0.11716808406070754
6.296548000000001,3.0642065177916584,0.11707676958098732
6.30058,3.0733008291172443,0.11696147856337376
6.304676000000001,3.0845217488926586,0.11675911661949002
6.308768000000001,3.0976478273180312,0.11650067892958746
6.312867999999998,3.104050488018582,0.11644899040072729
6.3169,3.115271407793996,0.11624393902060064
6.320948000000001,3.119658184944653,0.1162646942792104
6.325043999999998,3.124155686995246,0.11626994329110239
6.329080000000001,3.127534522370956,0.11632677118980787
6.333168000000001,3.133605008371702,0.11632408593064406
6.337199999999999,3.1381025104222937,0.11632877597882917
6.341228000000001,3.144615896022779,0.1162643066617657
6.345255999999999,3.1486590807980983,0.11622940941183278
6.349295999999999,3.1539316571482345,0.11612982986534891
6.353383999999998,3.162560233523015,0.11588173934595218
6.357416000000001,3.1697265508475776,0.11562945691658386
6.361439999999998,3.1765492757968015,0.11532166994381421
6.365468,3.188300984720825,0.11485284332392467
6.369503999999999,3.197471767919747,0.11443280474902583
6.373487999999998,3.2077612177935513,0.11397583237895938
6.3775200000000005,3.214793974867112,0.11354624788889543
6.381556,3.226755715915472,0.11297629095928935
6.385539999999999,3.235350039263654,0.11244908559490152
6.389575999999998,3.2468574630367413,0.11185467762984692
6.393560000000001,3.2614994370346038,0.11114466146136573
6.397592,3.2771493528074127,0.11041420481732521
6.401616000000001,3.2957123690051264,0.1096018830875014
6.405652,3.3142753852028406,0.1087917097552614
6.409627999999998,3.331486867250271,0.10795304506675563
6.413656,3.344322989822577,0.1071816142729187
6.417684000000001,3.361755921669877,0.10631171797508374
6.4217200000000005,3.3736948273671707,0.10555900933571176
6.425756,3.383617849514572,0.10486482803468024
6.429791999999999,3.392532929887026,0.10420583392838671
6.433792,3.4034638938093735,0.10350546225015092
6.437888000000001,3.4151813497067978,0.10280970005269457
6.441987999999999,3.428471789554376,0.10211952614975485
6.446035999999999,3.4401892454518,0.10143411192509373
6.450075999999999,3.448993600924319,0.10081563678652522
6.454172,3.45309042222191,0.10030196201660627
6.458272000000001,3.461894777694429,0.09969308656963523
6.462304,3.466102323891954,0.09917543151109966
6.466396,3.4718828540396327,0.09865587786076274
6.470483999999999,3.467240374062507,0.09835382941996626
6.474567999999998,3.461811402110304,0.09805070089149405
6.478659999999998,3.4543665466082083,0.09780289332372552
6.482748000000001,3.4461351991310356,0.09755451576600048
6.486840000000001,3.4379038516538634,0.09730564629688646
6.490876,3.4340478636518155,0.09700445394891337
6.494955999999998,3.4366938435747194,0.09658731934485433
6.499044000000001,3.4402370403726343,0.09616458347952794
6.503132000000001,3.449384988220492,0.09564328459612252
6.507159999999999,3.4602166449184377,0.09510661135561824
6.511244000000001,3.470040359841436,0.09459450611832779
6.515319999999999,3.474713640989766,0.09422870676725768
6.519355999999998,3.476363096813256,0.09393778364492589
6.523436,3.474202235336829,0.09372134436218367
6.527515999999999,3.4744008497856336,0.09350909411424095
6.531600000000001,3.4819986490344017,0.0931785303881513
6.535688,3.4931853157832173,0.0928021216909181
6.539771999999999,3.5002294905323112,0.09254018606013813
6.543807999999999,3.508060157256482,0.09227995081379824
6.547895999999998,3.5168987657555992,0.09199764039606244
6.551924,3.537057601254533,0.09151295965290153
6.555952000000001,3.560362404653775,0.09104039836105299
6.560036,3.5829914409778745,0.09055327595579388
6.564008000000001,3.608201403027075,0.09005463521705345
6.568048000000001,3.6333006401763406,0.08956984423883599
6.57208,3.6545895600256886,0.08915938402598836
6.576167999999999,3.6730761043500664,0.08880449410565916
6.580251999999998,3.690665431799432,0.08846911480069543
6.584340000000001,3.706238875698905,0.08818468721118768
6.588424,3.724049652948141,0.08783667500222855
6.592459999999999,3.7411846631222354,0.08747141770352314
6.596547999999999,3.7594383399712106,0.08707104343813947
6.600580000000001,3.780715842145026,0.08660473607981327
6.604664,3.805914386518693,0.08606437463370537
6.608751999999999,3.8305478887171533,0.08550580042112721
6.612787999999998,3.848679422990661,0.08504273707550324
6.616772000000001,3.863222089764121,0.08461715047673607
6.620856,3.878883423212463,0.08415726284447901
6.624939999999999,3.895441973535817,0.08369112086999536
6.629027999999998,3.909873915409342,0.08327916469125513
6.63306,3.917803889357915,0.08295730841857071
6.637139999999999,3.922366445606311,0.08264799570608661
6.641216,3.9295099275798075,0.08232664787188168
6.645199999999999,3.9320566002783095,0.08205970791808101
6.649287999999999,3.9368406063265744,0.08173236708364769
6.653312,3.942743279049721,0.08137344659132656
6.657388000000001,3.9459543011478324,0.08103877468717377
6.661372,3.946252222821039,0.0807520825807372
6.665420000000001,3.943858493869209,0.08048857885969886
6.669452,3.936757230742452,0.0802865859150232
6.673487999999999,3.9342527768906868,0.08003457534237683
6.677520000000001,3.9310725559637807,0.07976666199904861
6.681612000000001,3.9297974936868325,0.07947500444311549
6.685644,3.9270601723596656,0.07916533237522093
6.689684,3.922196242582671,0.07890313031561066
6.693667999999999,3.9185617043804912,0.07859848904252666
6.697700000000001,3.916943049728206,0.07825614359690244
6.701732,3.91554584487579,0.07789147437135106
6.705711999999998,3.913472872948232,0.07751209000142807
6.709788,3.9147559010453192,0.07704722828808994
6.713875999999999,3.917157595817288,0.07655085862743706
6.717915999999999,3.917986306639103,0.07604104365144233
6.722003999999998,3.9154475997607405,0.07553491550758433
6.726036000000001,3.9152569511320756,0.0749578021875617
6.730115999999999,3.911145260303559,0.07443992155144719
6.734196000000001,3.9052391357250187,0.07393208299872167
6.738284,3.8990008364466737,0.07345406584969368
6.742263999999999,3.8913002781181096,0.07294974507443339
6.746264,3.88371044468948,0.07242930957983265
6.750304,3.879930928560769,0.07185839454375646
6.754335999999999,3.874246253782098,0.07131616638988017
6.758371999999998,3.869348070978504,0.07077834722618712
6.7623560000000005,3.8560427615999995,0.0703235900571951
6.76634,3.8405001188717316,0.06992296224724179
6.7703880000000005,3.8251789259433333,0.06949696169171307
6.774387999999998,3.810644224990012,0.0690745205955414
6.778388,3.7958880742368217,0.06867393323873189
6.782391999999998,3.7771001563838436,0.06833820471284219
6.786311999999999,3.75730429675592,0.06801651149663107
6.790247999999998,3.737065537528256,0.0677398143210102
6.794243999999999,3.7176132702756686,0.06746661911532416
6.798248000000001,3.7015284207232595,0.06719413167068916
6.802232,3.6871272800209387,0.0669206655496423
6.806324,3.6702673561689854,0.06672383966103294
6.810403999999998,3.653407432317032,0.06652502487108848
6.814492000000001,3.6401363759651257,0.06630573993478585
6.818528000000001,3.6310078116129407,0.06600893857431342
6.822559999999999,3.625246664960934,0.06571551765742818
6.826588000000001,3.6220664440340276,0.06541955764580096
6.830663999999999,3.616870339557228,0.06515548434587327
6.834696000000001,3.608761134655523,0.06492680958416751
6.838728,3.6005412048538834,0.06470922219418518
6.842828000000001,3.6016256185021667,0.06441368782576197
6.846764,3.6033857992255918,0.06413526867411229
6.850691999999999,3.606829688799105,0.06386076144447302
6.854787999999999,3.6120680121226427,0.06358047894975402
6.858875999999999,3.62010871097115,0.0632800411553995
