Time,Force,Position
6.089632,0.06707035972635036,0.0
6.093664,0.081696026990677,0.0
6.097688,0.09833757780489702,0.0
6.101668,0.11677356236914069,0.0
6.105692,0.13621748870833106,0.0
6.10966,0.15465347327257473,0.0
6.113695999999999,0.17235352562187575,0.0
6.117723999999999,0.19067878528618457,0.0
6.121715999999999,0.20620166942552298,0.0
6.125688,0.22161382866492657,0.0
6.129712,0.23740872236426908,0.0
6.133735999999999,0.24950402366362942,0.0
6.137644,0.2633937587130134,0.0
6.141615999999999,0.27303027686274084,0.0
6.145643999999999,0.281326678537717,0.0
6.149676,0.2830103873878057,0.0
6.153703999999999,0.28458337133795963,0.0
6.157651999999999,0.2844726464380248,0.0
6.161616,0.2795436624632262,0.0
6.16564,0.2666618691887889,0.0
6.169672,0.2573689434143989,0.0
6.173584,0.24717880076499713,0.0
6.177548,0.23284616611587367,0.0
6.181524,0.21582188084171477,0.0
6.185447999999999,0.19678171201766242,0.0
6.189475999999999,0.17834572745341878,0.0
6.193527999999999,0.15990974288917512,0.0
6.197559999999999,0.1415844832248663,0.0
6.201476,0.12606159908552783,0.0
6.205435999999999,0.11239331383601357,0.0
6.209408,0.09496527104671658,0.0
6.213436,0.08033960378238997,0.0
6.217468,0.06470599474311664,0.0
6.221435999999999,0.05374077779417073,0.0
6.22542,0.046830163296077296,0.0
6.229391999999999,0.05160620352420327,0.0
6.233419999999999,0.06537724785351316,0.0
6.237392,0.08433297898408997,0.0
6.24136,0.11508608974082106,0.0
6.245324,0.15685008814862947,0.007699439421039681
6.249295999999999,0.19975558858238512,0.015576856683036346
6.253216,0.24447835811723015,0.02376315575985926
6.257247999999999,0.2981847140777263,0.031638573162799624
6.261208,0.3555027728893354,0.03981798894300469
6.265184,0.41923491007702784,0.0480184251527367
6.269212,0.4878797245059831,0.05631326296590809
6.273175999999999,0.5638358341860336,0.0644415971149941
6.277116,0.644300863592209,0.0726545056811114
6.281136,0.7330851300244261,0.08064207956374621
6.285164,0.8265396008428372,0.08857349909696095
6.2891840000000006,0.9284841987270256,0.0963774354720871
6.293127999999999,1.0350484412372738,0.10423403381944
6.2971,1.1485803866232798,0.1119337134674088
6.301124,1.265075992194325,0.11954649265755264
6.305147999999999,1.3807622704392277,0.12703687572882297
6.309199999999999,1.4855369682574553,0.134533350468999
6.313172,1.578846461149333,0.14216806665108742
6.317136,1.6708923094397954,0.14961457606840614
6.321007999999999,1.7503542861290269,0.15722144437784627
6.325028,1.8202562165418672,0.15716586257760806
6.328944,1.8891273698286954,0.1567858047570498
6.332927999999999,1.9577542379645876,0.15600158662826819
6.33682,2.0194134032247226,0.15555044350568645
6.340843999999999,2.08295489178375,0.1545878910479877
6.344764,2.140303751766564,0.1536189051591869
6.348784,2.1950488506732113,0.15246357153323653
6.352803999999999,2.2405774956788056,0.15156668770508175
6.356664,2.28451032138318,0.15043800677983965
6.360616,2.3210211269365244,0.14950078710174033
6.364583999999999,2.348315478588815,0.1487439250268298
6.368611999999999,2.3687528522652834,0.1481356799040262
6.3726400000000005,2.3880487239158037,0.14735727735466786
6.376616,2.4011633846656437,0.14672266218534163
6.380583999999999,2.4093376437651517,0.1462360870859189
6.384544,2.4163932361897786,0.1458382489500912
6.388503999999999,2.426262621814908,0.1454413799811402
6.3923760000000005,2.438823658065074,0.14491948643571786
6.396416,2.449479535665281,0.1445122621391195
6.400444,2.465850889215364,0.14382099329494746
6.40442,2.4837952267156003,0.14309273513941412
6.408384,2.4988264637909317,0.14253061437681022
6.412404,2.5101581084662805,0.14213526003479224
6.416432,2.5222762451167067,0.14172511636833077
6.420451999999999,2.529797572492139,0.14152238365972158
6.42442,2.5407970424676836,0.14121038213483847
6.428388,2.5514643377434236,0.14096737857395725
6.432388,2.563815341869252,0.1406706190848284
6.436411999999999,2.572023853995359,0.14060998838526337
6.440448,2.5803430910214007,0.14053264180942487
6.444424,2.591243253772543,0.14036953599862
6.44834,2.6021434165236856,0.1402045663095826
6.452308,2.6076602780247575,0.14024053748291296
6.456332,2.6112719808758706,0.140362038075081
6.460255999999999,2.618018233951758,0.14030519159063357
6.464228,2.6265589207776694,0.140188506797992
6.468195999999999,2.6371154911534744,0.13997489929206353
6.47214,2.6529446378794157,0.13960582634067933
6.476132,2.666425726355659,0.13939183444396894
6.480119999999999,2.677558756582204,0.13933754371047716
6.48404,2.6907076703586426,0.1391913212188103
6.488007999999999,2.7066589596600514,0.13894415902029333
6.492028,2.72283169876133,0.13865227435186694
6.49606,2.7373207290125197,0.13839767778315415
6.500092,2.7519204841636444,0.1381254871914975
6.504064,2.765955197139562,0.1378422608998558
6.508092,2.776954667115106,0.13758270021381874
6.512008,2.7911994122153607,0.13715590340197142
6.516036,2.8079029404652474,0.1365647546050057
6.520023999999999,2.822590585165241,0.13606575635653856
6.52402,2.8433258805149153,0.13531929732471712
6.527875999999999,2.8643933505643946,0.13452135988635752
6.531927999999999,2.88949258771366,0.1335479065398461
6.535928,2.9158212164377417,0.13248626882738487
6.53998,2.9387824274616454,0.1315160277705641
6.544008,2.9583762207853725,0.13062914991607252
6.548012,2.9738161044338445,0.12982761015050984
6.55198,2.9831969197571033,0.12917989358902027
6.555975999999999,2.9921234178050904,0.12847883639290125
6.560003999999999,3.001492815452816,0.12770901432030066
6.563924,3.0080598375755723,0.1270370348788208
6.567883999999999,3.009575733148062,0.1264644662423903
6.571831999999999,3.012321020295368,0.12581509394829732
6.575792,3.0174143656923724,0.12503276511693515
6.579844,3.0246343195392047,0.12416040614217788
6.583867999999999,3.0261387974361615,0.12347900452957049
6.587904,3.0293269841832062,0.12276381397921442
6.591847999999999,3.0297127954052816,0.12214469650511922
6.5958760000000005,3.0280827230774636,0.12160595156701152
6.599904,3.0270062752493194,0.12098080074733533
6.603928,3.0156175421963067,0.12067450953120071
6.60796,3.007031184668264,0.12028339929437364
6.611927999999999,2.9956424516152507,0.11997230965844871
6.6159040000000005,2.985593835036988,0.11957255639675655
6.619824,2.97711820240888,0.11916167148730976
6.623851999999999,2.966626686230878,0.1188228794489808
6.627856,2.955802995353072,0.11853121220555678
6.631888,2.946663013325354,0.1182109738716434
6.635856,2.9403254068226072,0.11780755110136264
6.639816,2.935782234069884,0.11736242625846667
6.643839999999999,2.932136278192173,0.1168948815332191
6.647779999999999,2.9299525813646805,0.11642942513538619
6.651748,2.9313577520372354,0.11588631412773678
6.655664,2.9277232138350566,0.11552598363735243
6.659692,2.9199461836331566,0.11533076810670881
6.663663999999999,2.917552454681327,0.11500939768722285
6.6676400000000005,2.915834492804639,0.11470101704522591
6.671604,2.9129978642530703,0.11444569097167913
6.675568,2.9108370027766433,0.11420203921149658
6.679532,2.9099169505505658,0.1139995424672226
6.6835,2.916396083124453,0.11359541360406411
6.687467999999999,2.918732723698618,0.11336020822490454
6.69144,2.9225316233230023,0.1131336573011959
6.695404,2.926784840222659,0.11295689200563977
6.699375999999999,2.9290221735724224,0.11285227029975253
6.703408,2.936753533072192,0.11261292036366433
6.707431999999999,2.949081701846955,0.11226082455128285
6.711428,2.9630935794718063,0.11189048508800885
6.715387999999999,2.978002673971669,0.11151069868293846
6.719351999999999,2.9878720595967994,0.11130263015577077
6.723267999999999,2.9985279371970064,0.11109345187986253
6.727292,3.013891348972142,0.11076592362425125
6.731316,3.0225313430224556,0.1106317002755867
6.735344,3.0413728973977037,0.11025814502344142
6.7393160000000005,3.0629061023979873,0.10982576908991754
6.743347999999999,3.081636931873301,0.10946450827381209
6.747372,3.099581269373537,0.1091088843716572
6.751339999999999,3.1202172574988096,0.10870183825993662
6.755303999999999,3.140963970524016,0.10827819117447499
6.759271999999999,3.1629400751240393,0.1077994276247668
6.763244,3.1820030792991574,0.10741245335495364
6.767272,3.2012875332741446,0.10698866542199438
6.7713,3.218888278399044,0.10658351780255106
6.7752680000000005,3.2333544732991673,0.10629145441521222
6.779296,3.2490500597741074,0.10593549744541701
6.783324,3.260148836974055,0.10568381485766733
6.787288,3.268445238649031,0.10550227713988168
6.791304,3.274160714598907,0.10535740606287299
6.795356,3.2807734074237946,0.10520113720153867
6.799315999999999,3.2935444757982966,0.10484648009708798
6.80334,3.3056397770976567,0.10448160093840564
6.807395999999999,3.316051369546928,0.10414537943505153
6.811363999999999,3.331281221071063,0.10368923869582014
6.815391999999999,3.337428178945145,0.10340486513174442
6.819419999999999,3.342112877769009,0.10310803277885996
6.8234200000000005,3.3480269681676886,0.10275352067998295
6.827475999999999,3.353043841691357,0.10241323984717451
6.8314520000000005,3.356598456164805,0.10206302388502451
6.835483999999999,3.3604852453380585,0.10167169346632468
6.839528,3.360783167011265,0.10133796899191265
6.843572,3.359397379834382,0.10101696512129996
6.847572,3.359351709132251,0.10062521620912217
6.8516200000000005,3.3595274882299893,0.10020347201510309
6.855587999999999,3.3595811247522596,0.09969344524459633
6.8595880000000005,3.3586268194995834,0.09921107177588266
6.863631999999999,3.3627122231216413,0.09858976107591039
6.867668,3.3643274259185327,0.09797774672035321
6.871587999999999,3.3680692371652525,0.09729659240089611
6.875532,3.366538472061836,0.0966857453262622
6.8795280000000005,3.359513680808414,0.09617034020110374
6.883443999999999,3.352599614454927,0.09564029027586164
6.887404,3.339970072151564,0.0952288606440755
6.891396,3.3235302125482846,0.09489714439348859
6.895363999999999,3.3092169613948337,0.09449251015633109
6.899331999999999,3.2969195937912756,0.09403092635482409
6.903336,3.2877567764124924,0.09347601734828345
6.907276,3.2806098425836034,0.09286817691948687
6.911187999999999,3.2706605332297434,0.09230615268831618
6.915108,3.2617191656508298,0.09171801713538222
6.919108,3.2507619145220232,0.09117418506503924
6.923152,3.2409233300680973,0.09058539038268694
6.927204,3.229855354039356,0.09004870573914675
6.931172,3.2186766531106796,0.08952318287288373
6.935219999999999,3.2079522694572757,0.08903853161744656
6.939219999999999,3.198235827578818,0.08852567218978935
6.943275999999999,3.183479676825627,0.08814227569604513
6.9473,3.172312393572483,0.08770915415063864
6.951279999999999,3.1561054014446057,0.08740313790819157
6.955247999999999,3.1394555097169894,0.0871529822498277
6.959244,3.1261730356895505,0.08688133872979212
6.96318,3.112890561662111,0.08660651283519052
6.967127999999999,3.1044263467095363,0.0862260350419591
6.971095999999999,3.0979780153068552,0.08579014978037146
6.975095999999999,3.093999884729339,0.08534935726112257
6.97902,3.0867764790271126,0.08501520935618248
6.982996,3.073394697775272,0.08484982205640544
6.98696,3.059902191623496,0.08469614473530891
6.990883999999999,3.0528009284967377,0.0844513654047941
6.9948,3.045367490670174,0.08424921931884322
6.998744,3.044436020768564,0.08394633324768841
7.002675999999999,3.0442910428420307,0.08364722141093778
7.006592,3.0458297737655866,0.08334253804938392
7.010508,3.0522974886639402,0.08293725594124858
7.0145,3.0605596373123176,0.0825127472706743
7.018436,3.0707269446106538,0.08206103952505374
7.022435999999999,3.0838073523338947,0.08155297487736672
7.026436,3.097895701832083,0.08103112901851686
7.030436,3.1178102521800812,0.08039703488478275
7.034436,3.1415351198279966,0.07969305910065307
7.038432,3.163354828825953,0.07902291432443417
7.042375999999999,3.181929262699201,0.0784450663506244
7.046336,3.2002822467725784,0.07790367687691678
7.050312,3.2176272890710087,0.0773861440954049
7.054247999999999,3.2310512891695877,0.07694671280474104
7.058183999999999,3.2483963314680184,0.07643106780468334
7.062151999999999,3.269662415966301,0.07583470264143556
7.066075999999999,3.2890233418146257,0.07527340102889014
7.070052,3.3026687917130744,0.07481204017488542
7.074016,3.3142983580616288,0.07439532392539884
7.077883999999999,3.326935866185131,0.07397037131481027
7.081908,3.343051516908745,0.0735361871342752
7.085875999999999,3.3584914005572175,0.07308593522681493
7.089839999999999,3.3715832259559915,0.07272812817746956
7.093807999999999,3.3850072260545705,0.07233569804791011
7.09778,3.399106993228291,0.07197118068250329
7.101751999999999,3.4102936599771065,0.07165174277855653
7.105715999999999,3.41755928452607,0.07139748772637572
7.109715999999999,3.4237062424001525,0.0711782681239538
7.1137,3.4308611420491815,0.07094355042204778
7.117687999999999,3.4408184172231806,0.07067990281730745
7.121739999999999,3.454696734597032,0.07035270698021112
7.125676,3.463756792896019,0.07008997315082506
7.129652,3.4737140680700183,0.06982118864875932
7.1336200000000005,3.484679285018964,0.0695303734501198
7.137599999999999,3.491834184667993,0.06929041924265354
7.141563999999999,3.49787041764214,0.06908322947134862
7.145531999999999,3.5020014919663285,0.06889865369234868
7.149495999999999,3.5098321586905,0.06867737011773455
7.153464,3.5169870583395295,0.06843421752493506
7.157428,3.515513381613778,0.06831031187829811
7.161396,3.5104508373879786,0.06821117017649404
7.165367999999999,3.506285510037191,0.06810585192017844
7.169343999999999,3.5015551405111967,0.06796861189594501
7.1733080000000005,3.49570610431032,0.06786152089087048
7.177275999999999,3.4823471584095445,0.0678356828072597
7.181239999999999,3.4747036884586446,0.06773883350295831
7.185207999999999,3.4717677526826742,0.06759073813852878
7.189168,3.467934600031692,0.06744797537260233
7.19314,3.460291130080792,0.06734994918651199
7.197111999999999,3.4498452846049217,0.06727911560651832
7.201139999999999,3.4413045977790104,0.06718564831230464
7.205104,3.4375821700279623,0.06703077330068746
7.209052,3.4365513929019498,0.06686249519412175
7.213016,3.4375364993258306,0.066660547578025
7.216991999999999,3.4415454310745517,0.06640797085146097
7.221012,3.4455543628232723,0.06615539412489692
7.225044,3.454160103846987,0.06586694060979784
7.229072,3.4581690355957084,0.06561340883080857
7.233048,3.4640831259943883,0.06533772534396863
7.237024,3.47694208391776,0.06495388204151578
7.241047999999999,3.485093507666203,0.0646129154510152
7.245016,3.4931342065147106,0.06428757155749633
7.248991999999999,3.498261804938313,0.06400105210160692
7.252955999999999,3.5024921864869034,0.06371866882994087
7.256871999999999,3.51265949378524,0.06334365260422815
7.260876,3.5150954415838074,0.0630673998258721
7.264904,3.5120373632323685,0.062829968868654
7.268908,3.5098765017559415,0.06258885791141326
7.272883999999999,3.511415232679497,0.06231860222773687
7.276828,3.5141833551778685,0.06200649711159375
7.280792,3.5131411603763234,0.06173721363989845
7.284839999999999,3.5150120659996835,0.06143586894277484
7.288755999999999,3.5125076121479197,0.061141794159955784
7.292752,3.5109003751711674,0.0608464656508727
7.296796,3.507055804844651,0.06060599024978344
7.300796,3.5035434092179405,0.06032939803343248
7.304796,3.4982365798412056,0.060060431469962844
7.308847999999999,3.4975265597394647,0.05976295807285877
7.312908,3.4965950898378546,0.05948945333102178
7.316955999999999,3.493315561686546,0.059282603558523626
7.321007999999999,3.494743567710166,0.05903394338655214
7.325051999999999,3.492471981333805,0.05880844705397005
7.329044,3.4898682202576383,0.05861724965058723
7.333088,3.489169617831431,0.058407672301011584
7.337132,3.488360290505288,0.058211417447515984
7.341175999999999,3.4915827302789326,0.05795265067719688
7.345227999999999,3.496267429102796,0.05772173838707293
7.349216,3.4999441861517124,0.05750699446108093
7.353211999999999,3.5018265094506056,0.057299622587794544
7.357263999999999,3.5042738749247055,0.0571268409997427
7.361303999999999,3.507839907073687,0.05692681454997963
7.365304,3.5066984050477403,0.056766040383166516
7.369171999999999,3.5062326700969346,0.0566257607938264
7.37312,3.5047589933711825,0.05650102822001786
7.37712,3.508435750420099,0.056294706375602084
7.381143999999999,3.511669607869276,0.05613619470287777
7.385064,3.517595115943488,0.05597294892189341
7.389108,3.5216154653677414,0.055826616701843405
7.393112,3.5285489152169007,0.055652732468494566
7.397112,3.535703814865929,0.055455674426783036
7.401083999999999,3.5446531482649823,0.05525644815446366
7.405084,3.5581992909390285,0.05503605042878009
7.409084,3.5727533753880216,0.05479859369201422
7.412996,3.58719673493708,0.05457567227379333
7.416959999999999,3.602315861561281,0.054376804960585
7.420928,3.6209131307855937,0.054186275497817266
7.424951999999999,3.6425342253347472,0.0539564201533519
7.428979999999999,3.663479552808758,0.05370634899016996
7.433,3.6827411714326805,0.05344890992884038
7.436968,3.700319081206513,0.05318396394776422
7.440996,3.7196914247303696,0.05291996928194009
7.444967999999999,3.7388423184543575,0.052677248690348476
7.448995999999999,3.7597876459283683,0.052431547477094595
7.452976,3.7798357565273673,0.052189387374613226
7.456999999999999,3.7917096080268577,0.052060575629739064
7.460948,3.803804909326218,0.0519091929477147
7.464971999999999,3.813208560000543,0.051763687987577744
7.468968,3.823730877349749,0.05159570447750234
7.472996,3.8325694858488673,0.05142235355775068
7.477019999999999,3.8412973694480503,0.051260307359921264
7.481055999999999,3.8501359779471676,0.051089892168120266
7.485083999999999,3.8562829358212496,0.050923133334941716
7.48906,3.8675803274700002,0.050690190514057404
7.493091999999999,3.879774935993762,0.05045895569584824
7.497119999999999,3.886475518367519,0.05024139076535338
7.501139999999999,3.8886900163662164,0.05002922356600039
7.505172,3.8893315304147595,0.04979856657832719
7.509088,3.891656753313392,0.04957769329144846
7.513052,3.897349393912202,0.04937629200613306
7.51708,3.9048364682610357,0.0491744970273149
7.521112,3.9064973417600584,0.04901636313751583
7.525136,3.9083796650589515,0.04883631412066821
7.529164,3.912499321707608,0.048615829484916384
7.533163999999999,3.9147138197063045,0.048405576851190985
7.5372,3.920173592829712,0.04813814558715547
7.541195999999999,3.9267520326280008,0.047850749247323895
7.54522,3.928733663151296,0.04757220714253164
7.549248,3.9279129181496204,0.047304632845711125
7.553215999999999,3.9239576229231696,0.04707981153332341
7.55724,3.9164134601966722,0.046853248238864977
7.561211999999999,3.9051697050701923,0.04663710043065978
7.565175999999999,3.89280728326883,0.046441229891935054
7.569208,3.8705868935178724,0.04633100278248584
7.57324,3.8426510278170385,0.04625387922936309
7.577207999999999,3.8168417705660325,0.04614126475497061
7.581192,3.79304839686492,0.04600364038521347
7.585172,3.7651125311640845,0.04591955067363112
7.5892,3.7361687236883037,0.04584589307997086
7.593223999999999,3.703746773612411,0.04575912441328137
7.597196,3.668633172911481,0.04566924152293961
7.601227999999999,3.636432672635457,0.04555815772276098
7.605252,3.6051293892344454,0.045445117131862806
7.609171999999999,3.5668812383087416,0.04539613581678696
7.613172,3.530427521133061,0.04534756069987503
7.617227999999999,3.49587896260734,0.04528488044336847
7.621152,3.456290695206885,0.045276194238040864
7.625147999999999,3.422982945931513,0.0452705885002717
7.629175999999999,3.3884458050813238,0.04530093767919067
7.633099999999999,3.3530114473561237,0.04533352018563
7.637143999999999,3.322063174005982,0.04536817840440874
7.641147999999999,3.2907827259560363,0.045440937429237375
7.645171999999999,3.260510219681037,0.04550333229414791
7.64922,3.2359531893559135,0.04553386765293384
7.653219999999999,3.2136334923805525,0.04551435699908332
7.657219999999999,3.194681213105369,0.04551989992629904
7.661275999999999,3.1715864418304647,0.04558709774895768
7.665327999999999,3.1542071465054358,0.04561899317591143
7.669376,3.132120317005478,0.04567747739228675
7.673427999999999,3.111717196355608,0.04574904285153351
7.677484,3.0909819010059345,0.045862127653988796
