Time,Force,Position
5.605651999999999,0.10702813376711004,0.0
5.609743999999999,0.11679893645748646,0.0
5.613844,0.12488603029777409,0.0
5.617936,0.12994929881322165,0.0
5.622032000000001,0.1340046255537225,0.0
5.626124000000001,0.13219804983851763,0.0
5.630219999999998,0.13131225063903865,0.0
5.634252,0.1303157265396248,0.0
5.638344,0.1305485940150274,0.0
5.642375999999999,0.12672613474992916,0.0
5.646408000000001,0.12099851683487238,0.0
5.650492,0.11235779849491039,0.0
5.654579999999999,0.10404925485475301,0.0
5.658667999999999,0.0968593778894772,0.0
5.662755999999998,0.09146393467422502,0.0
5.666847999999998,0.08304466613413279,0.0
5.670939999999998,0.0747361224939754,0.0
5.675035999999999,0.06452242020385951,0.0
5.679131999999999,0.05419799301380874,0.0
5.683219999999999,0.040173973423775815,0.0
5.6873039999999975,0.029284504058517825,0.0
5.6913920000000005,0.01951370136814142,0.0
5.695475999999999,0.011426607527853783,0.0
5.699563999999999,0.008402782203013699,0.0
5.703647999999998,0.006386898653120309,0.0
5.707728,0.012236659143644812,0.0
5.711807999999998,0.015936251543626975,0.0
5.715888,0.018738627068597316,0.0
5.719971999999999,0.02243821946857948,0.0
5.724,0.028287979959103985,0.0
5.728047999999998,0.0331297986746818,0.0
5.732075999999999,0.03819306719012935,0.0
5.736172,0.04415355258058872,0.0
5.740255999999999,0.05212992152094148,0.0
5.744351999999999,0.060106290461294246,0.0
5.748435999999998,0.0693234686519963,0.0
5.752479999999999,0.08303814889329034,0.0
5.756508,0.10036453198569734,0.0
5.760596,0.12478076052932978,0.0
5.764692,0.1555003425491107,0.0
5.7687399999999975,0.1917367860699631,0.0
5.772839999999999,0.23158493244192851,0.006692621883908755
5.776927999999998,0.27975231583993576,0.01323247339087806
5.7809719999999984,0.3308320753731999,0.019845804034781412
5.785015999999999,0.3880930458071447,0.02632667116858591
5.7890479999999975,0.445598301392025,0.03293220187340502
5.793147999999999,0.5080553763027695,0.03978292532992003
5.797143999999999,0.5754642705393785,0.046666827892245855
5.801196000000001,0.6493979680520057,0.05345628954174736
5.805291999999998,0.7261568764406687,0.06038779858158276
5.809391999999999,0.8115671965551783,0.06720454332752301
5.813499999999998,0.9023836532708245,0.07405905827562181
5.817547999999999,0.9963574955623116,0.08097744586238359
5.821596,1.0904648981047993,0.08806111811774418
5.825683999999999,1.1914292786231093,0.09505434273271278
5.82978,1.295871801741532,0.1019633048769161
5.833763999999999,1.3973898067595167,0.10884571316418276
5.837759999999999,1.4985413840510986,0.1155174533017149
5.841756,1.5884492062162,0.12229221862478928
5.845803999999998,1.6722751247050227,0.12902259759618562
5.849907999999999,1.749908414617632,0.13574289722658148
5.853939999999998,1.8222462928290397,0.13581781086433267
5.857983999999998,1.88659710871421,0.13597773709588667
5.862012,1.9457746554736464,0.13610931150635902
5.866047999999999,1.9992253086076741,0.1364284758228142
5.870076000000001,2.0492971263659916,0.13663268029517542
5.874075999999999,2.098448891898231,0.13647832157567186
5.878107999999997,2.1396250127797667,0.1364623641205674
5.882144,2.171252505060444,0.13666045605909619
5.886184,2.1996118868653456,0.13674839835719568
5.890183999999998,2.221114290694424,0.1369366372153056
5.894220000000001,2.237775600097574,0.13707284035261993
5.898256,2.250836624325143,0.13719918973552495
5.902343999999999,2.2623132469270253,0.13719113951441766
5.906323999999998,2.2663792670534106,0.1373874876630726
5.910352,2.2671885943795536,0.13766012048881732
5.914331999999998,2.267444297206022,0.1380411089343434
5.918368000000001,2.2658062590580648,0.1386462461277458
5.922452,2.271578823385605,0.13906613334868495
5.926431999999998,2.2767977632134695,0.13959524971765166
5.930464000000001,2.287965046466613,0.13994399969237029
5.934504,2.3031755144950763,0.14020652109426568
5.938535999999999,2.3163815166491797,0.14071328452424134
5.942571999999998,2.3301525609784894,0.1412431043290015
5.946659999999998,2.343923605307799,0.1417650215282572
5.950696000000001,2.3584811416121862,0.14226858724048955
5.954732,2.3750659791419997,0.1427958339017279
5.958763999999999,2.3997257685469195,0.14301697955240222
5.962799999999998,2.427974425451886,0.14309440441429694
5.966832,2.4602548494566396,0.1429744234325123
5.970863999999999,2.491416606786512,0.14292256263125835
5.9748920000000005,2.52336485609146,0.14286330943629888
5.978932,2.5565424969712263,0.14271135204615476
5.982955999999998,2.5944276720259207,0.14238404032862123
5.986979999999999,2.636344614180402,0.14185736851180292
5.991008000000001,2.67758578925974,0.1413300918079469
5.995044,2.7178076048885997,0.14072101334124618
5.999132,2.7557806694921636,0.14012337759051036
6.003163999999998,2.788591882645526,0.13967528286768147
6.007199999999997,2.821735270498692,0.13916234534850314
6.011232,2.8496060820017224,0.1388398535645734
6.015267999999999,2.8771333011294153,0.1384726975878232
6.019355999999998,2.9076729279064164,0.13783956050409474
6.023447999999998,2.9392090787828304,0.13705026486283872
6.027491999999999,2.9734254626087475,0.13608209597978954
6.031523999999997,3.0044958785343567,0.13515201184667425
6.03556,3.0300608506344284,0.13430992999859748
6.039648,3.049001712234079,0.13361666334135108
6.043683999999999,3.0658045477083675,0.13292258862487671
6.047712000000001,3.0737459393324733,0.13248017870371112
6.051739999999999,3.081454463481177,0.13195862663222532
6.055820000000001,3.084333310879483,0.1315070605247419
6.059908,3.086082073927376,0.13100935517510032
6.063939999999999,3.079523017624759,0.13066994358013123
6.0679719999999975,3.0644346921717633,0.13051838105620453
6.072004,3.04620039881846,0.1304019631375554
6.076083999999998,3.0278439628896887,0.13018465748403601
6.080164,3.012057035010485,0.12978996358895026
6.084243999999998,3.0007447738308075,0.12915514916915588
6.0882760000000005,2.987970253600911,0.12851560457167227
6.092359999999999,2.9711525485956964,0.12792723371209147
6.096447999999999,2.950180933915226,0.1274066234223819
6.100539999999999,2.9246125099597617,0.12702279488865106
6.104635999999999,2.894558001629238,0.12675717716371473
6.108663999999997,2.858112250273697,0.1266749607438655
6.112707999999998,2.8208800069430793,0.12660904839787815
6.1166920000000005,2.7874580809123795,0.1263872212426549
6.120723999999999,2.753249662906602,0.1261742661238887
6.1247240000000005,2.718033303125877,0.1260021808816074
6.128655999999999,2.6864058108452005,0.1257313351152594
6.132683999999998,2.6576914189894283,0.12532798001793827
6.136763999999999,2.633463111508715,0.12478960596018679
6.140795999999998,2.6081161373531203,0.12430235717827162
6.144780000000001,2.585915131097834,0.12378134563572468
6.148807999999999,2.5699946429676297,0.12307313796023876
6.152836000000001,2.5575522974375384,0.12227467473127893
6.156915999999999,2.544224152707968,0.12162116350054361
6.160955999999999,2.528215775028895,0.12116490353912934
6.165051999999999,2.5077327306502957,0.12095305051591322
6.1690799999999975,2.487925453346838,0.120752046955375
6.173168,2.4729478527937774,0.1204937503719453
6.17726,2.459886828566208,0.12029180399811966
6.181348,2.4508689891139586,0.12003625993188076
6.18544,2.447578043287117,0.11969263631533504
6.189536,2.450124715985619,0.11924177123772232
6.193576,2.457943965034257,0.11865439163823079
6.197659999999999,2.4630829811333923,0.11828090774581278
6.201751999999999,2.4751782824327524,0.11775110035323233
6.205787999999998,2.4925461600822487,0.11710172617300736
6.209875999999998,2.5169810478319055,0.11630886643833624
6.2139120000000005,2.5386249777321246,0.11574057764517584
6.218,2.560612500007681,0.11525360129157126
6.22204,2.58261143995877,0.11488318669940611
6.226140000000001,2.6042782052100537,0.11456603333592948
6.230235999999998,2.627185779711687,0.11430747485738799
6.234331999999998,2.6505476714885927,0.11410645275143563
6.238364000000001,2.6776091556654817,0.11380463264380136
6.242456000000001,2.7063543486924586,0.1134711490392213
6.246544,2.741380059844518,0.1129911920706978
6.250632,2.779773188696755,0.11246819078218775
6.254724,2.820857968174028,0.11189900691144979
6.258816,2.864745123176271,0.11125519943621817
6.262847999999998,2.909640219953461,0.11058600414019526
6.266935999999998,2.9545353167306496,0.10994237163489176
6.271011999999999,2.9967387628828037,0.10936825693881144
6.275040000000001,3.038942209034958,0.10882579768918291
6.279119999999999,3.080580613011905,0.10824191691590158
6.283200000000001,3.1175114828139234,0.10780505432384889
6.287236,3.1524264690660484,0.10745577189449437
6.291315999999998,3.1818474291681675,0.10724785282876229
6.295392,3.2138378973198543,0.1069039804708341
6.299471999999998,3.2461605401713456,0.10652426335729526
6.303560000000001,3.2810526910724045,0.10600824503454931
6.307648,3.316277016673268,0.10544582862716032
6.311736,3.348355374373824,0.10489665351147602
6.315776,3.3791929228240303,0.10431438325988057
6.319855999999998,3.409354704199095,0.10373725377229147
6.32394,3.4381649514238757,0.10313381251250323
6.328028,3.463153463673207,0.10254082329028226
6.332111999999999,3.484996008022229,0.10195839433986788
6.3361920000000005,3.5008902089459744,0.1014391530482689
6.340275999999999,3.516551542394316,0.10086522212441035
6.344359999999998,3.5308613416923738,0.10027180049314534
6.348447999999998,3.5421358979900583,0.09967098969043553
6.352532,3.5528454121125357,0.09904187593774116
6.356628000000001,3.561981942284859,0.09842247884375004
6.360723999999998,3.5734665307068814,0.09771434342947322
6.364756,3.585615468528512,0.09692978429991098
6.368807999999998,3.59170533802493,0.09620066892671196
6.372836,3.5946492396210403,0.09546672069434449
6.376939999999998,3.594901490592115,0.0947738677386139
6.380924,3.5935807576130356,0.0940833730544331
6.38496,3.590576315783868,0.09340759846240426
6.388884000000001,3.587904048654505,0.09269350033617524
6.392931999999998,3.588255606849981,0.09190965012050996
6.397027999999999,3.586923456195369,0.09113301337698475
6.401063999999998,3.5841290464905375,0.090344794706183
6.405100000000001,3.5843584621105467,0.08949011161053412
6.409147999999998,3.579548168855822,0.08874266404357826
6.413072,3.5747378756010972,0.08799209182664242
6.417075999999998,3.5700383072463073,0.0872182005582174
6.421060000000001,3.556599437616802,0.08660989711781555
6.425091999999999,3.5438363350624393,0.08601665230885054
6.429127999999999,3.531748999583218,0.08543642265488115
6.433167999999998,3.5199938388038015,0.08481284887500282
6.437207999999998,3.5054363024994144,0.08422951023516043
6.441236,3.485949782220229,0.08374225251558916
6.445323999999999,3.465123145466292,0.08331291689264225
6.449372,3.449114767787219,0.08278919028367125
6.453468000000001,3.430647606958513,0.08235853065583429
6.457567999999998,3.4090458959050323,0.0820094645880364
6.461655999999998,3.386436243076605,0.08168009501736259
6.46574,3.362929373373165,0.08135546885059407
6.469832,3.3402089956448027,0.08102900986827989
6.47392,3.312448909041706,0.08081389850061177
6.478012,3.288842732113866,0.08058768934388197
6.482108,3.2599753965114213,0.08050243387355158
6.4862,3.22685484400932,0.08053236762519234
6.490296000000001,3.2002362594321716,0.08046899630707274
6.494391999999998,3.1761986005801237,0.08038596790481257
6.498487999999998,3.159227951828235,0.08024058047976684
6.502579999999998,3.152458863401282,0.07995626212064141
6.506671999999998,3.142776674549423,0.07972479491258476
6.510759999999998,3.1319758190226827,0.07952848458826238
6.514855999999998,3.123312989621303,0.07937288478941112
6.518903999999999,3.1172310859450247,0.07920431819321018
6.522991999999999,3.1212400176937454,0.07891873466485912
6.527027999999998,3.127940600067502,0.07861020683946329
6.531064000000001,3.1370006583664893,0.07832283186931076
6.535091999999999,3.156373001890347,0.07789749481294977
6.5391200000000005,3.1862790804389425,0.07731701152769878
6.543156,3.218876809612574,0.07672129391392972
6.547239999999999,3.2567471151363416,0.07611076883309748
6.551268,3.2960796797103287,0.07553877858467785
6.555299999999999,3.345724529509185,0.07485781669151408
6.559328000000001,3.3935749455580178,0.07420504242488962
6.563364,3.4480380544317377,0.07345559114482604
6.567447999999999,3.50642220550531,0.07264160585242185
6.571483999999998,3.564695631678947,0.07186000561050498
6.575579999999999,3.6218503911777025,0.07112376883263706
6.579675999999999,3.677210716926435,0.07043087816731021
6.583772,3.7308873338250783,0.06976299734662351
6.587864,3.790168701773662,0.06904539698744085
6.591956,3.8515766781720737,0.06828681673054303
6.596043999999999,3.9113009457203964,0.06753539918286999
6.600144,3.972033155043667,0.06678086096139903
6.604236,4.025476904466907,0.06610466857353246
6.608328,4.0753317863901,0.06545199781346389
6.612427999999998,4.124621626138086,0.06478903993537974
6.616519999999998,4.16874961443587,0.06415216422905716
6.620608000000001,4.203351809483863,0.0636245703255643
6.624700000000001,4.231341311706968,0.06315411004433415
6.628727999999999,4.253161020704925,0.06270784013829377
6.632828,4.26981887825268,0.06226390777048246
6.6369240000000005,4.272464858175585,0.06192909902912728
6.641012,4.27062475372343,0.06160987604300154
6.645104,4.269116823971079,0.061262083129706914
6.649139999999999,4.266933127143586,0.06089920541808514
6.653236,4.260263345941036,0.06055110499423331
6.657291999999998,4.250226147038306,0.060192757219216984
6.661383999999998,4.235924313560387,0.05982782811646345
6.6654199999999975,4.21691494590754,0.05949592306004879
6.669515999999998,4.188933409504575,0.05918834177316669
6.673511999999999,4.159943931326662,0.05889108184879329
6.6775439999999975,4.130167961173672,0.05858346967627415
6.68158,4.092095589345707,0.05831571121278631
6.68562,4.052118058867784,0.058059326679275124
6.6896679999999975,4.013259195064741,0.05777413383278543
6.6937159999999984,3.9685741304118882,0.05754124574073825
6.697763999999999,3.922881123984088,0.05731300160052957
6.701808,3.8784175091311055,0.05704513297982627
6.705904,3.839890820027868,0.05670514327114066
6.709948000000001,3.799348247374737,0.05638377996227356
6.7139919999999975,3.7598136164965523,0.05604116517948271
6.718035999999998,3.7249865197932968,0.05566011917066034
6.722131999999998,3.694756232365035,0.0552526820441425
6.726184,3.6576918023120166,0.05491122906727483
6.730224,3.615809113184134,0.05460630976018983
6.734324000000001,3.57885540803105,0.05423896873683594
6.73836,3.5456012952779483,0.053847240937150785
6.742411999999998,3.5119042829251073,0.053494930059439776
6.746455999999999,3.4801124292222245,0.05312214986022205
6.750503999999999,3.4554983105194363,0.05273192081257662
6.7546,3.426065932741785,0.05237885271916531
6.7586999999999975,3.394728396314174,0.05203439734905231
6.762751999999999,3.3697821029115813,0.05166229854469133
6.766856000000001,3.347527460134024,0.051282256993633486
6.77084,3.3259485844316092,0.05092207985205494
6.774932,3.306053417579283,0.05056735340223478
6.779028,3.283920917377194,0.050260734053658995
6.783064,3.264147893100335,0.04998589013807872
6.787156,3.2422482603736476,0.049747435701647656
6.791135999999998,3.226739870671978,0.04948768029156501
6.795216,3.214598898670486,0.0492482337338519
6.799299999999999,3.20514957729403,0.04900542194174219
6.803343999999999,3.19368437236768,0.04878838132253079
6.807435999999999,3.186815976716325,0.0485528247094757
6.811527999999999,3.1833149987651463,0.048337769848324524
6.815572,3.175560803914312,0.04820176430352793
6.8196239999999975,3.1656800006136487,0.048104344349311386
6.823727999999999,3.1554670226131813,0.04804604022929724
6.827832000000001,3.1478349703378146,0.0479983151403098
6.8318239999999975,3.1382977594124895,0.047963483591832036
6.835775999999999,3.13705695016214,0.04789977144010522
6.839804000000001,3.140412950186785,0.04782173452593386
6.843888,3.1474685426114113,0.04773181005503149
6.847975999999999,3.156207843886127,0.047655147329442746
6.852067999999999,3.1658443620358545,0.04757939794402201
6.856159999999999,3.178393980610487,0.04747806246000055
6.860251999999999,3.19374597471009,0.04736234772873394
6.864348,3.207414259959604,0.04723461655581555
6.86844,3.226576571359124,0.047097720925369936
6.872532,3.242604332533869,0.04701177084097225
6.876628,3.2584106439087446,0.04695144642769174
6.880716,3.272422521533596,0.046892060571278794
6.884751999999999,3.2891260497834836,0.046833235568794644
6.888783999999998,3.307058969608187,0.04673991910368803
6.89282,3.3221895139079205,0.046655778154688216
6.896856,3.3391144919576776,0.0465701213642226
6.900887999999998,3.3579446286573935,0.046472860941922864
6.904923999999998,3.3790120987068724,0.046323384651417436
6.908975999999999,3.397166468331445,0.04619932712613168
6.912887999999999,3.4142021712811372,0.04609999481186588
6.916871999999998,3.4258545729807577,0.04600197190866215
6.920848,3.4352696413306156,0.045953716246665575
6.924851999999998,3.444795434580408,0.0458961484417878
6.928791999999998,3.4525267940801765,0.04583834403881644
6.9327760000000005,3.458352994929987,0.045792222285518235
6.936812,3.4651871375547443,0.04573560955534012
6.940908,3.4731399468543827,0.0456564347047102
6.944939999999999,3.4798633645792045,0.04561171888224061
6.949031999999999,3.4752665553042106,0.045621722307852594
6.95308,3.4690967620790625,0.04560728816357316
6.957083999999998,3.458440884478855,0.0455918543982799
6.961084,3.449468715728737,0.045588777527881756
6.965083999999997,3.436907679478572,0.04558446699254981
6.969064,3.4249116854036132,0.04561530400302686
6.973103999999999,3.418852617078401,0.0455883388163492
6.977048,3.4092046812531405,0.04555996481166303
6.981092,3.3985488036529334,0.04554302600898957
6.985015999999998,3.3889008678276737,0.04551349090943926
6.988896,3.38048232357723,0.0454478935958132
6.992927999999999,3.3701586206768277,0.0453936964328293
6.996959999999998,3.3625265684014605,0.0453401813868961
7.000988,3.3553374157258333,0.04523777094518166
7.005067999999998,3.3384010200005436,0.04521620905403284
7.009156000000001,3.3187729736502183,0.04519289098388596
