Time,Force,Position
7.55914,0.058649300586113846,0.0
7.563187999999999,0.04624153794523587,0.0
7.567191999999999,0.03584965885425127,0.0
7.571228,0.029469833504766493,0.0
7.575323999999999,0.028018992130080318,0.0
7.579372,0.023453313888906153,0.0
7.583412,0.01899836054766685,0.0
7.587447999999999,0.013314015631611116,0.0
7.591492,0.007942132057073028,0.0
7.595512,0.00537262400750528,0.0
7.59954,0.007732099932736136,0.0
7.60358,0.011744153674235949,0.0
7.607608,0.017882815865564023,0.0
7.611579999999999,0.024132202956826967,0.0
7.615556000000001,0.03071376474789452,0.0
7.61954,0.038303268313908775,0.0
7.623527999999999,0.0470114385548046,0.0
7.627508,0.05449021722088398,0.0
7.631543999999999,0.061968995886963356,0.0
7.635523999999999,0.07225015007801308,0.0
7.639556,0.08443646291902132,0.0
7.643588,0.09101802471008887,0.0
7.647671999999999,0.0947972109761861,0.0
7.651751999999999,0.09736671902575383,0.0
7.655791999999999,0.09525982393421255,0.0
7.659819999999999,0.09525982393421255,0.0
7.663851999999999,0.09702312665041637,0.0
7.667931999999999,0.09702312665041637,0.0
7.672016,0.0968213902088336,0.0
7.676056,0.09546985605854943,0.0
7.680084,0.09389687210839553,0.0
7.684171999999999,0.09142667128322982,0.0
7.688256,0.08571119533335426,0.0
7.692296,0.08179015313350237,0.0
7.696328,0.07529960288408272,0.0
7.700363999999999,0.06771009931806844,0.0
7.704451999999999,0.05900192907717263,0.0
7.70854,0.05152315041109325,0.0
7.712628,0.04404437174501387,0.0
7.716715999999999,0.033763217553964144,0.0
7.720756000000001,0.021576904712955897,0.0
7.724787999999999,0.014995342921888343,0.0
7.728876,0.012868734472060083,0.0
7.732964,0.010963575822101565,0.0
7.737056,0.01765586251310399,0.0
7.741091999999999,0.029166408278970147,0.0
7.745128,0.03555765130398778,0.0
7.749216,0.04709103242091965,0.0
7.7533,0.06234684128889936,0.0
7.757276,0.08417000214224998,0.0
7.761308,0.10997129357311676,0.0
7.765344,0.15457192053249408,0.008399677793874077
7.769372,0.21978915212147124,0.017098631069044194
7.773456,0.30810460684074686,0.025723062583083652
7.777536,0.42613097751520834,0.034209699059612325
7.781624,0.5756544022121252,0.042520148511090074
7.785652,0.757813260964666,0.0506423468246475
7.789632,0.9701373529476647,0.058679749192686106
7.793672,1.2093699853608788,0.0667042159606048
7.797704,1.4729302324792084,0.07476600352414328
7.801752,1.7655256284775813,0.08275244060259025
7.805836,2.0823379142811347,0.09078129314602836
7.809876,2.4233982209236875,0.0988244671259196
7.813871999999999,2.7945130358967636,0.10683937116728705
7.817872,3.184140682400677,0.11492095180594993
7.821919999999999,3.594297043985322,0.1230427930826076
7.826007999999999,4.038749713124614,0.13108325599450332
7.830096,4.506044902567735,0.13908237749476743
7.834091999999999,4.992803776938979,0.14705791449460814
7.838119999999999,5.4919364907871175,0.15501399758289156
7.842092,6.008780674660089,0.16285939751203804
7.846136,6.513926786131309,0.1623274648125515
7.850176,7.00788277899832,0.16143640509313137
7.854220000000001,7.4776218820601486,0.1606158753312911
7.858156,7.924140619416214,0.1598702753577301
7.862191999999999,8.336550245990901,0.15929755409490912
7.86624,8.713289195509592,0.1589239594169311
7.870328,9.060527261197436,0.15860674607621716
7.874415999999999,9.378840902905168,0.15832923411510402
7.87846,9.6763050725079,0.1579846248209336
7.882456,9.941599543005813,0.1577602173623548
7.886492,10.186155266298659,0.15746354272542426
7.890528000000001,10.405818332711181,0.1571392572067997
7.894616,10.597664224142944,0.15681123368531946
7.898712000000001,10.763819549043776,0.15641475087615206
7.902748,10.90809462471359,0.15591996202520583
7.906728,11.02399890090297,0.15545744453289853
7.910760000000001,11.111998112562722,0.15504816489215675
7.914848,11.175803269768357,0.1546754247552372
7.918935999999999,11.222824974995374,0.15428803472825203
7.922904,11.249165021394989,0.1539949260349935
7.926936,11.269522471342727,0.15366211778529648
7.930924,11.282690768614836,0.15337187447275782
7.934907999999999,11.29853929883645,0.15302962144361737
7.93894,11.308561628208254,0.15275707118495957
7.943027999999999,11.323635084130322,0.15244922901914568
7.947116,11.344091841302463,0.1520922240695687
7.951099999999999,11.365002915749875,0.15174685292408926
7.955136,11.390167207096942,0.15134134768190122
7.959172,11.411177588768759,0.15096435652602663
7.963259999999999,11.436662637140099,0.15051698538575767
7.967351999999999,11.461017601161027,0.15006205683641544
7.971384,11.485926189681626,0.1495863559594997
7.97538,11.511621270177304,0.1491101798014885
7.979356,11.542921101722921,0.14858025521814547
7.983351999999999,11.567497515543717,0.1481244273010287
7.987384,11.589050104039675,0.14770750092954654
7.991416,11.61194280901038,0.14726407559253887
7.995448,11.637405022030654,0.1467742092900607
7.9995,11.661515700900644,0.14628513723300987
8.003544000000002,11.685504237195167,0.14577500589069478
8.007591999999999,11.711840831739389,0.14523102102797553
8.011576000000002,11.73693661703326,0.14468123715768474
8.015623999999999,11.759119301902226,0.14416603561427654
8.019708000000001,11.782531378346013,0.14362947462720949
8.023696000000001,11.802354587289749,0.14312383562963465
8.027724,11.8184782038335,0.14265306915957246
8.031692,11.834258228001918,0.14216904908874572
8.035723999999998,11.849473209995125,0.141681677949146
8.039808,11.864123149813128,0.14118772728017392
8.0439,11.880788973181021,0.14067365469932724
8.047927999999999,11.893755204148933,0.14019331558304235
8.051960000000001,11.90358688489207,0.1397518674776599
8.055988,11.910051147935029,0.1393306720285776
8.060068000000001,11.912926543477942,0.13893942728276612
8.064156,11.922414631845742,0.13848693849345123
8.068248,11.931570545513738,0.1380469587001849
8.07234,11.944426051581718,0.137576820231078
8.076367999999999,11.958178774524708,0.13710224651302583
8.080452000000001,11.965994571717951,0.1366887745310817
8.084536,11.971573035561432,0.13630656257141727
8.088628,11.969420139905147,0.13599948933297396
8.09272,11.970523937049101,0.1356791336178197
8.096751999999999,11.971184834593316,0.13537597719340302
8.100788000000001,11.973640165887556,0.1350598893967915
8.104816,11.977557756232013,0.1347430751963439
8.108903999999999,11.986969372726477,0.13438357889958952
8.112995999999999,11.993922206071309,0.13406245836627034
8.117044,11.998416256266506,0.13378015391583817
8.121071999999998,12.009080099686853,0.13345794197769725
8.125108,12.015712176007414,0.1331792588824975
8.129144,12.02593311982802,0.13287545275342252
8.133236,12.04198026449844,0.13251801981382894
8.137324,12.060386885094086,0.13215460980079646
8.141411999999999,12.079247822965009,0.1318027094049938
8.145436,12.094076993736142,0.13149378516066398
8.149463999999998,12.112040714732048,0.13115049764153677
8.153544,12.130569477903164,0.1308166540003637
8.157623999999998,12.145066473974492,0.1305242321706698
8.161704,12.167184104645655,0.13016673591147718
8.165792,12.193787819691876,0.1297808709566613
8.169823999999998,12.229695878188023,0.1293235555596561
8.173856,12.262912286059132,0.1288869074917642
8.177883999999999,12.295563651755037,0.12844425625379924
8.181964,12.33079594317604,0.1279917487586888
8.186048,12.366249684396912,0.12753208838137187
8.190124,12.39789310831787,0.12710687097887843
8.19416,12.435584182888505,0.12662513918388896
8.198191999999999,12.475623315708837,0.12611306486877708
8.202224000000001,12.508595438429012,0.12564508574092415
8.206312,12.54470211137396,0.12514590641593884
8.210396,12.57721991681886,0.12467045602499224
8.214424000000001,12.602227812563864,0.1242528509566232
8.218464,12.624433332783896,0.12385608012995183
8.222448,12.64349288510362,0.12346571438867311
8.226479999999999,12.661876670348203,0.12307242753446769
8.230567999999998,12.680371180492719,0.12267765914029868
8.234648,12.690901463662064,0.12232843987145306
8.238736,12.701542471731345,0.12197439310499797
8.242764000000001,12.708594612300578,0.12164331817968095
8.246792,12.706896033919561,0.12135839435775532
8.250875999999998,12.700711371163488,0.12110136639761765
8.254904,12.692732274657391,0.12085471436025325
8.258980000000001,12.685650395026304,0.12060258123203434
8.262975999999998,12.67329593904508,0.12037844934970661
8.266967999999999,12.66206014973874,0.12014121019711503
8.270944,12.649362101382179,0.11990232597204051
8.275032,12.629043418425788,0.11972028708459882
8.279084000000001,12.605700910144552,0.11956493721709062
8.283192,12.582136952063452,0.11941684021248544
8.287192000000001,12.553976184707354,0.11929773012767288
8.291191999999999,12.526823359126205,0.1191689676620795
8.295188,12.502472909070024,0.11902039785382228
8.299284,12.480359792363608,0.11884534880467232
8.303376,12.461724818257302,0.11865305754900511
8.307424000000001,12.4460029445759,0.11843717032798681
8.311471999999998,12.425794986519442,0.11824616749055977
8.315472,12.41029456263791,0.11802123696125084
8.319451999999998,12.397928688981155,0.1177651340322371
8.323491999999998,12.387357249074425,0.11749884481887252
8.327532000000001,12.38317705219271,0.11719269133700704
8.331572000000001,12.377313146460908,0.11689235872114462
8.335615999999998,12.373465124278997,0.11657394768774422
8.339604000000001,12.368830610122012,0.11625651198025048
8.343588,12.36599052971505,0.11592892248871649
8.347624,12.362253232433075,0.11560668906622314
8.351672,12.360199644001192,0.11527836876280155
8.355771999999998,12.363861531519179,0.11490898337189737
8.359763999999998,12.37166591103689,0.11450135503233058
8.363748000000001,12.38328060785452,0.11406653868254843
8.367784,12.400389330822154,0.11359999104897162
8.37182,12.4183952706648,0.11312923400661239
8.375907999999999,12.438527818957272,0.11263848865336591
8.379936,12.460454800999772,0.11214052402055302
8.383963999999999,12.480587349292245,0.11165295394499722
8.387944000000001,12.498814738934762,0.11117958853005055
8.391971999999999,12.516599228977537,0.11071999596657897
8.396052000000001,12.534383719020314,0.11026154984175773
8.400132,12.552057484163155,0.10980895907189757
8.404171999999999,12.566031656906015,0.10937830175457301
8.408148,12.578997887873927,0.10895717742740492
8.412184,12.594655769466875,0.10852332433196372
8.41628,12.611100143034903,0.10809019270320926
8.420368,12.630346892127898,0.10764152828108046
8.424464,12.64970436612083,0.10719014370148228
8.428552,12.667943173438879,0.10675122207359115
8.432587999999999,12.685284763881914,0.10631713108721391
8.436620000000001,12.70072119567499,0.10589698180138056
8.440704,12.713920294118308,0.10550189438027036
8.444796,12.728238059236505,0.10509705396606414
8.448875999999998,12.737848290179771,0.10472119800578565
8.452912000000001,12.751268838422959,0.10432372371471224
8.456992,12.764578661766208,0.10393153606328609
8.461027999999999,12.77710199313438,0.10354147220516598
8.465112000000001,12.792427700027526,0.1031371540828567
8.469204000000001,12.80954784067069,0.10272590270885033
8.473299999999998,12.832604907063605,0.10227410907534581
8.47738,12.856227015631728,0.10183077569692493
8.481472,12.880746341074856,0.10138606533269266
8.48556,12.911989084242808,0.10090247359759694
8.489647999999999,12.945136986060724,0.10041015829830444
8.493735999999998,12.9781741629787,0.0999237758396798
8.49782,13.012330006571561,0.0994294879118456
8.501904,13.041778315989491,0.09896113496457018
8.505991999999999,13.072910334257509,0.09849141171732585
8.510083999999999,13.107963394725381,0.09799922330192881
8.514168000000002,13.147834714268116,0.09748222653730385
8.518260000000001,13.188603250685864,0.09696377068126544
8.522355999999998,13.229482512003544,0.09644315770125775
8.526451999999999,13.268456614671267,0.09593564935410073
8.530539999999998,13.311241034638906,0.09540928869112632
8.534628000000001,13.344610386256686,0.09493063273067233
8.538712,13.379663446724559,0.09445198901829335
8.5428,13.411581956967654,0.09399789390586441
8.546835999999999,13.439579425010898,0.09356814795334539
8.550920000000001,13.468695559729023,0.09313067966271078
8.554896,13.494787869122309,0.09271522696864179
8.558983999999999,13.520425861240323,0.09229043657364215
8.563071999999998,13.543261477833367,0.09187968754736446
8.5671,13.561278835351548,0.09149638949755255
8.571127999999998,13.576383092444823,0.09112989892156916
8.57516,13.590479407763151,0.0907706469546926
8.579244,13.60054395598169,0.09043731143263198
8.583279999999998,13.616323980150103,0.09007702364116803
8.587323999999999,13.628515136818471,0.08972889920300137
8.591359999999998,13.635998759311912,0.08940265506441289
8.59544,13.63485380543057,0.08911880588048746
8.599523999999999,13.631914417799205,0.0888407227023609
8.603611999999998,13.627180596417816,0.0885679655443427
8.607648000000001,13.623233267011504,0.0882961185213042
8.611695999999998,13.616594286980158,0.08803269209607065
8.615616,13.617465216648707,0.08773706365675024
8.619612,13.612731395267321,0.08746438638100897
8.6237,13.61113212411071,0.08717030234967123
8.627731999999998,13.613453895153949,0.08685584710918663
8.63176,13.6117438990974,0.08656547817853372
8.6358,13.61327917816556,0.08625161763746503
8.63974,13.616387441183877,0.08594007973537149
8.643819999999998,13.617590545552233,0.08563635803446441
8.6479,13.617785708145643,0.08533810768175698
8.651936,13.61787014583912,0.08504295513334056
8.656023999999999,13.61997046708249,0.08473687258552387
8.660011999999998,13.624983888750764,0.08441684253194434
8.664100000000001,13.626973485094199,0.0841150270177987
8.668136,13.62952812361284,0.0838202878794816
8.67222,13.634663687856582,0.08352172720269405
8.676268,13.64619049512534,0.0832027775406084
8.680304,13.656709360619155,0.08288930178727245
8.684391999999999,13.67070636871308,0.08257014404082053
8.688483999999999,13.685600593682015,0.08224995214598338
8.692571999999998,13.70195707770117,0.0819355373395204
8.696604,13.718092111920456,0.08162922146564436
8.700692,13.738148188339595,0.08130419946830665
8.704775999999999,13.758769306933939,0.08098824945257627
8.708856,13.780287642403295,0.0806721873114617
8.71294,13.807632178722464,0.0803315225607397
8.717027999999999,13.829604831467092,0.08002841499671463
8.721115999999999,13.847767166911806,0.07974077213936909
8.725155999999998,13.8722100204816,0.07943923210519069
8.729232,13.901138958426454,0.07912820750576419
8.733319999999999,13.933202446596086,0.07879941357614029
8.737404000000002,13.96224210944087,0.0784874093480087
8.741492000000001,13.991392497185595,0.07817370736125923
8.74558,14.02144010180533,0.07785899726205099
8.749664,14.055519473524852,0.07752504267224812
8.753751999999999,14.087472236794548,0.07720497308021787
8.757836000000001,14.119535724964175,0.07688361385788293
8.76192,14.157990456158819,0.0765475031644949
8.766008,14.196666637153335,0.076207307670223
8.770091999999998,14.23231899282301,0.0758830386452291
8.774172,14.26808207339262,0.0755568820962684
8.778251999999998,14.304853095737178,0.07522801442507775
8.782332,14.34319710203189,0.07490383988357935
8.786408000000002,14.379635949676642,0.07458747676896893
8.79044,14.412940247096621,0.07429007134208791
8.794524,14.441204835641866,0.07401791386066946
8.798615999999999,14.471706757536873,0.07373024658624203
8.802703999999999,14.505908271831867,0.07343344845134658
8.806792000000002,14.533607818201903,0.07315513372734249
8.810876,14.560520872596863,0.07287714472651755
8.81496,14.58710175229202,0.0726098678410506
8.819047999999999,14.61659573241208,0.07233262153054651
8.823135999999998,14.645757537832338,0.0720655346588108
8.827224000000001,14.67581656012761,0.07179813535076095
8.831299999999999,14.704867640647931,0.07153709075951242
8.83538,14.738958430042986,0.07125485689912658
8.839416,14.773835711413117,0.07097595397296018
8.843443999999998,14.804902675483333,0.0707106223605746
8.847528,14.836534681728757,0.07045435139569504
8.851564,14.872309179973902,0.07017899653875569
8.855595999999998,14.906178519569087,0.06990995143050235
8.859687999999998,14.93656971656416,0.06964473708748245
8.863672000000001,14.963372046059185,0.06938586066732028
8.867756,14.990285100454146,0.0691245797015124
8.871839999999999,15.014727954023941,0.0688613217427542
8.875924000000001,15.03950298229354,0.068589458828343
8.880012,15.064167285663205,0.06832111022919884
8.884052,15.087369329982653,0.06804771770505377
8.888084,15.118524183601737,0.06774526468664882
8.892123999999999,15.146987386595788,0.06744750954562254
8.896168,15.173656155839813,0.06715317634935847
8.900264,15.197522549558869,0.06686611974017104
8.904264000000001,15.220602451302845,0.06657802843257926
8.908363999999999,15.240314935346648,0.06628949238134506
8.912412,15.254533393240443,0.06601081126731491
8.916452,15.263368549884168,0.06573974082063648
8.920483999999998,15.266931130177756,0.06547274588745446
8.924479999999999,15.267237017671102,0.06520147431663656
8.928519999999999,15.260586619964222,0.06493293229496012
8.932548,15.250125904957425,0.06467464148077313
8.936523999999999,15.241116031325316,0.06440101097330685
8.94052,15.23009027414331,0.0641344892453192
8.94452,15.219175241861242,0.06386482190771442
8.948576,15.205679283854073,0.06359482418392322
8.952676,15.195207151171742,0.06331287912210706
8.956779999999998,15.183727076714467,0.06303426048697336
8.960832,15.168658134757143,0.06275880635034088
8.964832000000001,15.152470526124937,0.06248970829058461
8.968927999999998,15.129448774867976,0.06224139607914714
8.97298,15.104521864961054,0.06199694081079626
8.97702,15.076227537353956,0.06174952116205949
8.981068,15.046249500896769,0.06150015712131215
8.98516,15.013911988514351,0.061244013007506794
8.989256000000001,14.983479634781894,0.060982555285596325
8.993300000000001,14.954952439699392,0.06071543058092158
8.997340000000001,14.925417302841943,0.060450854329741996
9.001432000000001,14.897787324634455,0.06018087175748966
9.005531999999999,14.871054563301978,0.059908981047497645
9.009624,14.849029336144431,0.059626466326168893
9.013668,14.8233045165869,0.05934864850901519
9.017724,14.798366189004446,0.059072690680906675
9.021764,14.774435803196939,0.05879214142252503
9.025804,14.748710983639405,0.058512087400278634
9.029848,14.723994105856823,0.05822737803036198
9.033936,14.698158561399358,0.057948571862371324
9.038028,14.673663133416646,0.057656843284083756
9.042124,14.65477245648387,0.057355070465161855
9.046172,14.63599250445103,0.05704992842928713
9.050224,14.617323277318128,0.05674108337711588
9.05432,14.603472309260088,0.0564204668159521
9.058419999999998,14.59029710827719,0.05610366803710245
9.06252,14.578019124169302,0.05578535830816987
9.066616,14.56619545733669,0.055477083791601704
9.07066,14.551126515379368,0.055184209356799505
9.074756,14.53594684852211,0.05489345032189532
9.078855999999998,14.524466774064836,0.05459743927417508
9.082916,14.515678350232596,0.054300220780231744
9.086963999999998,14.511265285875478,0.054003902234846766
9.091064,14.502599004618705,0.053725932697510546
9.095108,14.50032396638695,0.053441710678416014
9.09916,14.493795711255538,0.05317613941479914
9.103208,14.491642815599251,0.052911739962300544
9.107308,14.494983946092967,0.05264244993415888
9.111404,14.498668668962022,0.0523868320938109
9.115504,14.504037100681167,0.05213363859220856
9.119588,14.511543558525675,0.051894256459041756
9.123572,14.516136915945271,0.05166196061801334
9.12762,14.52028737376513,0.05144099564919605
9.131712,14.52522432356007,0.0512224238434703
9.13576,14.525121564480276,0.051019492048085625
9.139848,14.531410048425496,0.05081229000893047
9.143895999999998,14.540168733195882,0.05061018667981922
9.147936,14.548816693066335,0.050410590480524854
9.15202,14.560488478261627,0.05020166655910712
9.156104,14.574851914081954,0.049992335693860135
9.160144,14.58597007477757,0.049797972138982356
9.164228,14.590143367948494,0.0496217727178019
9.168224,14.585798809644574,0.0494582357455418
9.172311999999998,14.583691584690417,0.049282369874091944
9.176352,14.575647433986518,0.049121497142071285
9.180432,14.567824733082482,0.048954269644157125
9.184416,14.552602847378488,0.04879356033575088
