Time,Force,Position
10.240956,4.252775482672634,0.04586753822913784
10.245052,4.243658335995981,0.04564074235786656
10.249144,4.227928496494442,0.045439606280468975
10.253192000000002,4.2050323396683424,0.04531377726136287
10.257236000000002,4.176642156692235,0.04519548590708988
10.261332,4.146911857241378,0.04511664683604345
10.265388000000002,4.117968049765596,0.045048193733518566
10.269492,4.081403607689981,0.04501617155710621
10.273584,4.044163398539224,0.044962685165211375
10.277632,4.006923189388466,0.044906946854765636
10.281668,3.96968298023771,0.04485022990745146
10.285716,3.9276245120120885,0.04482193742231078
10.289768000000002,3.8806370598116695,0.04483211019929442
10.293828,3.8316337240613567,0.04486047267189295
10.297864,3.7798280127860737,0.04490016179348464
10.301916000000002,3.7282437513106603,0.04491426595022667
10.305948,3.6690388552354127,0.04497355793830026
10.309984,3.6100554089600347,0.04500981037700863
10.314068000000002,3.548048137359818,0.04508269267758229
10.318172,3.4840249822097067,0.04517942400388457
10.322212,3.415294292884666,0.04529456861015813
10.326308,3.344990619609472,0.045384419844461676
10.330404,3.2776000467591833,0.04545139871047602
10.334432,3.2151384578836932,0.04547473814367933
10.33848,3.1592895618330905,0.045460328419704384
10.342576,3.1027648987073455,0.04542207030050218
10.346628000000004,3.0456751934063933,0.045338607986724636
10.350728,2.985561662780601,0.04529971041385823
10.354824,2.9245509152797977,0.04525307239939879
10.358916,2.8578246918291184,0.04524714267827095
10.363016000000002,2.7902012515034262,0.04523918688001796
10.36712,2.7252694618027706,0.045239355379455226
10.371224000000002,2.6602269472021796,0.04526589998454362
10.375328,2.5963030992764704,0.045252229797673224
10.379432,2.5371975104256252,0.045187758702755904
10.383528000000002,2.476973254899898,0.04514683110941906
10.387628,2.4234724170989934,0.045048377721227426
10.391660000000002,2.369750129498219,0.04498055502762028
10.395760000000005,2.3181544503472726,0.04486171442966954
10.399864,2.2675667129712735,0.04472606492688827
10.403972,2.2208007105707233,0.04472649448989624
10.408008000000002,2.175519802571458,0.045155514794380555
10.412104,2.136454358499473,0.04629242368430444
10.4162,2.105875964731128,0.04842339616456415
10.420292,2.0896336574673007,0.051425965032591094
10.424388,2.102537223983452,0.05491160018143075
10.428416000000002,2.145373156254659,0.0587116249724749
10.432512000000004,2.2174542695302457,0.06269478269684986
10.436608,2.311935003509924,0.06687813482889776
10.440704,2.436424575117994,0.07103842335193239
10.4448,2.584199566629633,0.07528347790014166
10.448900000000002,2.7514496607449255,0.07963598371097817
10.452992000000002,2.9446882430643555,0.08405586220150409
10.457088000000002,3.159551371788332,0.08863060534901523
10.461188,3.3945882055421692,0.09338343962731513
10.46528,3.652933294550641,0.09823440306624355
10.46932,3.9368239721635123,0.10312457448114236
10.473416,4.247378905055664,0.10803559810443228
10.477508,4.578206850202078,0.11304827408793894
10.481604,4.931323691152648,0.11810912397075504
10.4857,5.307947401806659,0.12302934380795888
10.489756,5.706592887762824,0.1275213647619236
10.493796,6.121609727269073,0.13125194555379438
10.497852000000002,6.542739271622804,0.13392885028862345
10.501884,6.952113655197119,0.13572727086426328
10.505984000000002,7.330757763365768,0.13705309373434663
10.510088,7.675979945503718,0.13810984725406453
10.514176000000004,7.993739962711777,0.1389561199090879
10.51826,8.295159427540959,0.139594237860837
10.522348,8.57275126564243,0.14027349624213806
10.52644,8.833017444941142,0.14089359532929582
10.530528,9.078527473486663,0.14139082219134094
10.534564,9.30566964842788,0.14175016546953267
10.538652000000004,9.510511509889408,0.14199226722840397
10.542696,9.696065465520556,0.14204734825373597
10.546796,9.860315631771428,0.14196561225546248
10.550788,9.997668675267619,0.1418659557287395
10.554872,10.110594796834288,0.14173136366996708
10.558908000000002,10.206050281671669,0.14150201604964976
10.562944000000002,10.283027188004809,0.14120221672357297
10.567036000000002,10.337383023833988,0.14089851271176432
10.57112,10.368896339359335,0.14059969527663455
10.575220000000002,10.377589969931922,0.14036815858093143
10.579304,10.369091501952747,0.14020234483200594
10.583284000000004,10.356882023898061,0.1400417470014087
10.587368,10.350399439468783,0.13984924446091693
10.591448,10.350208790840117,0.13963147045667595
10.595532000000002,10.355290718561587,0.13937006222982565
10.599616,10.35251914420782,0.13917062461672625
10.603648,10.35084340117787,0.13888945823179055
10.607736000000004,10.34779328864657,0.1385416238473659
10.611820000000002,10.342815182114249,0.138152328791768
10.615908,10.332896673931593,0.13779068105436915
10.62,10.32499404929883,0.13740287072075116
10.624028000000004,10.31474336641637,0.1370548653308624
10.628056,10.30270966745942,0.13675335615763182
10.63214,10.294264836002519,0.13642020755731676
10.636220000000002,10.289962496545336,0.13603154105283863
10.640252,10.286213781587831,0.13561912863718426
10.644296,10.279319098730017,0.13521769444853426
10.64828,10.27140505642172,0.13479660737276222
10.652328,10.265396172763385,0.13435442174779622
10.656368,10.259055114405244,0.1339245071002333
10.660412,10.25776518259737,0.13346301830026291
10.664464000000002,10.255245859214677,0.13302325432108514
10.668552000000002,10.252050768756845,0.13258117028356067
10.672552,10.248290636123805,0.13213168656020707
10.676604,10.242171027565533,0.13168962639309223
10.680632000000005,10.240304635906922,0.13118624306843193
10.684676,10.239003286423513,0.1306911867567651
10.68872,10.235132428890537,0.1302449402061665
10.692752000000002,10.228127021132787,0.12983960753130927
10.696784,10.226615639525043,0.12938598695987868
10.700872,10.22129394061738,0.12897008215324365
10.704952000000002,10.215750791909851,0.12856288267898383
10.709044000000002,10.212334251652148,0.12812585727088738
10.713128,10.205218118994463,0.12772224295173387
10.717216,10.194967436112002,0.1273601812112339
10.72126,10.182590144779715,0.1270269215851836
10.725352,10.168983461872608,0.1267142908601565
10.729444,10.154712429565896,0.12643013075130904
10.733532,10.140784989634522,0.12616295505592479
10.73762,10.130557142103129,0.1258616843627568
10.741708000000004,10.116076077672078,0.12561769025116548
10.745800000000004,10.104065214066193,0.12536203650688524
10.749896,10.09441382638554,0.1251000858881367
10.753992,10.086224697755105,0.12483887845834354
10.75808,10.081181537024978,0.12456972005683704
10.762132,10.079284344195159,0.12429339035980812
10.766236000000005,10.075481992715378,0.12403556717416658
10.770336,10.077395117185475,0.12372353678804232
10.774432,10.084470093105775,0.12338148001034586
10.778532000000002,10.087181127226483,0.12310080700717632
10.782632,10.096848446547416,0.12277743309990886
10.786728,10.107302257843427,0.12245166679683113
10.790832000000002,10.119661227789395,0.1221097000419109
10.794928000000002,10.136506282110423,0.12173568216498817
10.79898,10.155035045281537,0.12135438848488993
10.80308,10.174350300427728,0.12097190428107767
10.807176000000002,10.198262364848913,0.12055302122689528
10.811276,10.225874021670084,0.12010490602582397
10.81538,10.252477736716305,0.11966827805187763
10.819424,10.28155165258769,0.11922527660635329
10.823520000000002,10.316341044408956,0.1187311872029974
10.827560000000002,10.350343944255142,0.11824072323731494
10.831612,10.378742093051388,0.1177971515955084
10.835708,10.404670041022468,0.1173635432457272
10.8398,10.429811497018473,0.11693408534558204
10.8439,10.453490693964257,0.11650612656026697
10.847952,10.47716989091004,0.11607806982683216
10.852052,10.494236395030935,0.11570758215617506
10.856088,10.50714898947658,0.11535399182813519
10.860176000000004,10.522741816871726,0.11495200136348575
10.864232,10.532497025741527,0.11457369643436376
10.868284000000004,10.547291943486062,0.11414518891022221
10.872320000000002,10.558952311005822,0.11375371421732791
10.876296,10.567810303000611,0.1133849739432749
10.880396,10.575881803020323,0.11301819035286445
10.884476,10.586977128364877,0.11262265606241986
10.888512000000002,10.597396686634287,0.11222559434856846
10.892536,10.608713461778711,0.11182572857823053
10.896572000000004,10.624848495997997,0.11138728057464424
10.900656,10.639521271167062,0.1109487969860743
10.904748,10.650715903736018,0.1105286519355926
10.908832,10.661910536304973,0.1101092232305116
10.912916000000005,10.681733745248708,0.1096223001890652
10.916892,10.704137879917544,0.10912507875009382
10.920936,10.72474758083636,0.10863921762168814
10.924968,10.74334139820528,0.10817367403177545
10.929068,10.762267390274001,0.1076950258704005
10.933104,10.785335874342447,0.10717432571294926
10.937208000000002,10.809080125486034,0.1066570323848724
10.941204000000004,10.829357651705042,0.10618649993955322
10.9453,10.854686304474315,0.10570071145396152
10.949384000000002,10.877101856818683,0.10524268658902827
10.953412,10.901533292712944,0.10476705451523735
10.957456,10.927869887257167,0.10427846061764748
10.961512000000004,10.953419989826312,0.1037911569542654
10.965612,10.974041108420657,0.10334670099850254
10.969704,10.99544871899008,0.10290467934288905
10.973764000000005,11.012370245184444,0.10248726325426037
10.977796,11.023908470128735,0.10209914171680212
10.981840000000002,11.032201419948318,0.10174639250657883
10.985884000000002,11.042288803517925,0.10138532563431185
10.989932,11.050471028437574,0.10103738794511358
10.993904,11.054732211157367,0.10072246439588374
10.997948,11.06000133565211,0.10040020270950425
11.002036,11.067507793496613,0.10005303819973875
11.006084,11.074117034466106,0.0997097348533555
11.010056000000002,11.083307201160702,0.09935890803411306
11.014100000000004,11.091378701180414,0.09902184910260964
11.018188000000002,11.100679592774943,0.09866828016881045
11.022288,11.11053410886915,0.0982928251958365
11.026324000000002,11.118139873938057,0.09791463541636837
11.030424,11.122046046606982,0.09755687938756624
11.034468,11.123371293550807,0.09720721840194636
11.038552000000005,11.124131498319425,0.09684973358064354
11.042596,11.126575411938132,0.096488840588283
11.0467,11.133383267356429,0.09608358466831686
11.050728,11.136491530374744,0.09569864225318996
11.054828,11.142512893817962,0.09529398989416542
11.058860000000005,11.15032869101121,0.09488159747669776
11.062912,11.158698112704126,0.09444744695814619
11.066952,11.167067534397047,0.0940147942764052
11.070988,11.179579448089687,0.09354727259297872
11.075084,11.189288986257358,0.09309530470600595
11.07912,11.195409656924978,0.09265890101803577
11.083156000000002,11.199071544442969,0.09225516900060238
11.087208,11.205646532385865,0.09183254713340802
11.091236000000002,11.21053781147867,0.09141440547824227
11.095280000000002,11.216215582546553,0.09099770106891734
11.099268000000002,11.223687787364462,0.09057547953918522
11.103292,11.235535351657493,0.09014125621100304
11.107368,11.245145582600761,0.089730174542376
11.111448,11.25946334771896,0.08929447537474523
11.115528,11.274789054612102,0.08885122881002665
11.119572000000002,11.29090125348032,0.08841039170728215
11.123572,11.306337685273398,0.08796616319847858
11.127616,11.316512958391872,0.08756696182375169
11.131672000000002,11.329490607035318,0.08715445467167582
11.135772,11.34157103880375,0.08674650342766108
11.139808000000002,11.352864978597106,0.08633822474033485
11.143792,11.366961293915432,0.08591737304058508
11.147848,11.378365958608722,0.08550622536571637
11.151896,11.386857522877108,0.0851135110476625
11.155932,11.39657847872031,0.08470548382758639
11.160024,11.406975201638653,0.08430200328990269
11.164124,11.419498533006827,0.08388121660233566
11.168104,11.432586906550206,0.08347126720752894
11.172148,11.446240322268793,0.08307142941080504
11.176172,11.460115187787249,0.08266526780607583
11.180224000000004,11.471076952880802,0.08227654623938102
11.184272,11.482260167774221,0.08188289580911667
11.188368,11.496356483092548,0.08147362452827975
11.192396000000002,11.506310306411153,0.08109512182212557
11.196492000000005,11.517615663880042,0.0807274154555055
11.200536,11.527691629774116,0.08037491751513338
11.204616,11.53664892899331,0.08003312505210536
11.208704,11.5505352121873,0.07966324942323835
11.212732000000004,11.562737786531201,0.07929547590205432
11.216824000000004,11.570011376900302,0.07895484129181735
11.220908,11.578071459244486,0.07861592791574394
11.225012,11.583107716263825,0.07829633860133596
11.229104,11.589938407033188,0.07797184103744519
11.233204,11.597334139977757,0.07765671970056828
11.23724,11.605516364897404,0.07734341605039813
11.24134,11.616943864941762,0.07700479149431812
11.245440000000002,11.625790439261019,0.07666974166355442
11.249472,11.626672786605104,0.07635058585664709
11.253532,11.626203599798906,0.07602094975998648
11.25758,11.621924095692789,0.07570773349334588
11.261676,11.618763258261556,0.07538456666095135
11.265656,11.60999766978038,0.07508232021638245
11.269712000000002,11.600556314224065,0.07477479950859091
11.273744,11.594692408492262,0.07443028557054507
11.277784,11.585793259760084,0.07407466617217871
11.281832,11.578344952402594,0.0736983428179601
11.285876000000002,11.56910221129508,0.07332505222979743
11.289972000000002,11.56097813686245,0.07294367858948547
11.294016000000004,11.553640554404895,0.07256396696940616
11.298112,11.555939490097069,0.07214269695727547
11.302208,11.559135642664256,0.0717203506256202
11.306236000000002,11.56793654628138,0.07128061663064364
11.310336,11.574721566348613,0.070851875984296
11.314336,11.58273597799066,0.07041104116777895
11.318368,11.588955955882687,0.06997372131113548
11.322464,11.593049325324882,0.06955248331763292
11.326440000000002,11.597818461842222,0.06913652046455766
11.330476,11.610994724934473,0.06869317948412995
11.334500000000002,11.624060263126786,0.06825393610287724
11.338556,11.638133743094047,0.06780828760953227
11.342616,11.651199281286363,0.0673685747149626
11.346600000000002,11.667853686978724,0.0669226481340516
11.350652,11.682492209121193,0.06648769322244517
11.35474,11.69579061478891,0.0660706768219547
11.358832,11.711559221281792,0.065656617909612
11.362928,11.720272235350048,0.06527793442823569
11.367024,11.734700725368183,0.06488025469594594
11.371068,11.744986723386594,0.06450819763268752
11.375164000000002,11.755948488480145,0.06414299801768472
11.379256000000002,11.761084052723886,0.0638023813896998
11.383288,11.76341724144266,0.06346947314563281
11.387376,11.760145679111492,0.06315231084517854
11.391360000000002,11.761127333679976,0.06280863459780037
11.395452000000002,11.760990321573583,0.06247403516968282
11.399540000000002,11.764331452067301,0.062138678528469674
11.403628,11.764759482136112,0.06181358836429725
11.407656,11.766306178879805,0.061480192951324994
11.411636,11.766734208948618,0.06115629733728552
11.415672,11.768735222967587,0.06083781915172316
11.41976,11.771522728961628,0.06052150641386082
11.423844000000004,11.775207451830685,0.060204325929717147
11.427936000000004,11.774295365424745,0.05989531132209846
11.431964,11.773272554118872,0.05958920336441448
11.436040000000002,11.772249742812996,0.05928335201963713
11.440128,11.774029307032091,0.058972185126122956
11.444208,11.783540230750955,0.058635221346694404
11.448288000000002,11.790138054044915,0.05830948506631644
11.452368,11.792139068063879,0.05799005470845302
11.456448000000002,11.79559092345753,0.0576530525131993
11.460532,11.799153503751116,0.057312334261037025
11.464616,11.804399792894793,0.05697342768640272
11.468644,11.811661965588359,0.05662582712058009
11.472684,11.815568138257285,0.056302686558740954
11.476780000000002,11.81779060207612,0.05597723875084962
11.480884,11.8184400819448,0.05564686669037074
11.48498,11.825702254638369,0.055301975305587565
11.488964000000005,11.830837818882111,0.05496889620982107
11.493052000000002,11.834178949375824,0.054637447501443476
11.497084,11.835947095919389,0.054300454666729184
11.501124,11.838833909137833,0.05395599013499176
11.505224000000002,11.844523097881247,0.05360775200159335
11.509320000000002,11.85380115412471,0.053256926894504036
11.513412000000002,11.863976427243186,0.05290531524050151
11.517508,11.872246541711704,0.05255812802830047
11.521544000000002,11.873006746480323,0.0522247840197862
11.525592,11.871972517498918,0.05189309934425546
11.529644,11.867017246317658,0.051572580491291375
11.533736,11.867888175986211,0.05123458870236721
11.537788000000004,11.8590118626051,0.05092328289782503
11.541832,11.848008940774163,0.05062226983757076
11.545864000000002,11.836440976768017,0.0503106519191618
11.549904000000002,11.819046811912061,0.05001328409065118
11.553956,11.797953054656123,0.049718962559194946
11.558056,11.774843413850292,0.049430588441901506
11.562160000000002,11.748820672619557,0.0491488428746007
11.566252000000002,11.710469762614057,0.0488894797619189
11.570344000000002,11.671221635733545,0.04862871989249084
11.574440000000005,11.626036583103287,0.048384814499282953
11.578416,11.574803879823351,0.048161271918935745
11.582504,11.517523525893736,0.04795841235581981
11.5866,11.447017786314344,0.047776658736409454
11.590696,11.370796570785078,0.047604543756184566
11.594792000000002,11.289646371281012,0.047445736622793985
11.598824,11.202669970927133,0.04729996847875872
11.602912,11.115472120773385,0.04715945967640462
11.60696,11.020432186219937,0.04703932288321807
11.610996,10.922700601041452,0.04691687336578296
11.615092,10.816229714588252,0.04681462292013931
11.619192000000002,10.707742944585156,0.04671865503533561
11.623192,10.594770090207003,0.046620116389337864
11.627304000000002,10.47216071767912,0.04654165669130658
11.631352,10.349329895351376,0.04646947444813463
11.635396,10.22358597259872,0.046403477281644706
11.639432,10.094818224521223,0.046347479960783575
11.643528,9.959216333818967,0.046309604215591806
11.647568,9.825519601766672,0.046266330363941816
11.65166,9.685210176889491,0.046232967737877786
11.655752,9.545122201812177,0.046188976970037245
11.659856,9.404247734759789,0.04613894487688644
11.663944,9.261800283757246,0.04607742826364213
11.66804,9.12013932472978,0.04601965967481421
11.672140000000002,8.975675990177345,0.045964285724521346
11.676232000000002,8.828521004999873,0.04590734649972769
11.680268000000002,8.679571586072377,0.04584865124182393
11.684356,8.527819791619912,0.045792457988648956
11.688392,8.376178722067381,0.04572897045319885
11.692484,8.223308260940033,0.04567818784882371
11.696576,8.06942985803774,0.045631738537511686
11.700664,7.919472497335297,0.04556772688954432
11.704744000000002,7.765372644633134,0.0455289945066431
11.708832,7.617553310056053,0.045490334133342386
11.71292,7.467939541728947,0.04545012789676341
11.717012,7.318436498301779,0.04540159854015992
11.721088000000002,7.168146962899533,0.045344210512870915
11.725180000000002,7.014157835097302,0.045292870630353636
11.729208,6.858374273545051,0.045236397578506345
11.733284,6.705282362617832,0.045178431838771065
11.737364,6.54927735126571,0.04512723747596903
11.741444,6.389351297713735,0.04509387476834035
11.745528,6.229203794361893,0.04506890686410068
11.749608000000002,6.071747941635083,0.045046523776942016
11.753644,5.9153000306832215,0.04501324007879204
11.757728,5.760868003281253,0.04495936838426908
11.761816,5.6092383514042545,0.04489365928178585
11.765904000000004,5.455703540877298,0.04483296504052749
11.769988,5.30105006367546,0.04478426561388257
11.774072,5.142807718973574,0.04473406483743375
11.778156000000005,4.98736774979666,0.044675013994294493
11.782244000000002,4.82969044726998,0.0446479557008324
11.786324,4.676831403818166,0.044599801730810594
11.790404000000002,4.517802567141205,0.04453010137535224
11.794484,4.359892397139123,0.044427468417025634
11.798568,4.203665935987131,0.044326431215206005
11.802652000000002,4.045312866385311,0.04425213336701923
11.806728,3.8963748651333487,0.04413085638158839
11.810760000000002,3.7491205727314743,0.04400861775495204
11.814832000000004,3.6010797883545234,0.04385632602554831
