Time,Force,Position
7.759028000000001,4.561801408256162,0.04847882391640909
7.763120000000001,4.581372366228822,0.04811847975476854
7.767195999999998,4.597243731801503,0.04777120262206797
7.771283999999998,4.611996430699299,0.04744447178828059
7.775255999999999,4.623725304272256,0.04714270210113991
7.779339999999998,4.632430352520372,0.046868926405666714
7.783424,4.637325083468571,0.046612740525282
7.787459999999999,4.640203930866878,0.04637430685551338
7.791491999999998,4.639051011165399,0.0461727990876748
7.795531999999998,4.635317165738819,0.04596169816239855
7.799623999999998,4.6279944528121915,0.045750976160591185
7.803712000000001,4.611821713710913,0.045601419038871806
7.807796,4.59385454085961,0.045450373238045745
7.811827999999998,4.569053225383551,0.045342757251346864
7.815923999999999,4.5347261166576995,0.04528117440362047
7.819963999999999,4.496588690631931,0.04523487106506093
7.824023999999998,4.458894164205902,0.04514836316835719
7.828123999999999,4.418175812455033,0.04508878202705673
7.832159999999998,4.370401868279536,0.0450935258522799
7.836251999999998,4.317588215229304,0.045147534175953075
7.840339999999998,4.259956303104212,0.04522926281915858
7.844439999999999,4.200529957229095,0.04531107386875957
7.848488,4.134380193629155,0.04543743097775793
7.852487999999997,4.064530837629233,0.045572781485540274
7.856535999999998,3.996697365179205,0.045688830737070446
7.860635999999999,3.9278559509542306,0.045818551662792965
7.86468,3.8601332034041365,0.045927939999137295
7.868776,3.791734688778901,0.046012079507690526
7.872871999999997,3.7197473066536184,0.04610066672761937
7.876967999999998,3.6448468241034297,0.04621291101448912
7.8810639999999985,3.5650173575784434,0.04637324092952805
7.885103999999998,3.4928085256532913,0.04649414646633343
7.889151999999999,3.420488968828204,0.04663143305305443
7.893248,3.3538848879529914,0.04673167219986364
7.897344,3.2998304256524125,0.046737879432638636
7.901439999999997,3.24376007980194,0.04676817621012606
7.905472,3.1807448664267763,0.04687390431347267
7.909583999999999,3.116045944201523,0.04697018864055942
7.913684,3.0563867308510035,0.047004907273156246
7.917787999999998,3.0018779512751514,0.04695996051383988
7.921839999999999,2.950392997024141,0.0468717279973169
7.925879999999999,2.898010825898117,0.04678067756019512
7.929872,2.851454855621904,0.046635884321501314
7.933968,2.8066933190957144,0.04648883807476347
7.93806,2.762042507469461,0.0463180121918818
7.942111999999998,2.7176131456430763,0.046113106558846054
7.946155999999998,2.672175842041745,0.045916443709939525
7.950208,2.627192855715686,0.04577903756423246
7.954259999999998,2.587925345339502,0.04559265733072971
7.958363999999999,2.555381252688141,0.04534243915373305
7.962403999999999,2.5259717102615555,0.04502090356855869
7.966504,2.4920760834599096,0.044685829098373604
7.970535999999999,2.45526735623336,0.04437799184750067
7.974515999999998,2.4150033217577622,0.044359039308396374
7.978563999999999,2.374452783284492,0.045008580363551695
7.982659999999999,2.3448480782644956,0.0464907956022744
7.986708,2.346737305274176,0.04868958703567713
7.990755999999997,2.377108056664225,0.05150677261870892
7.994795999999997,2.4357388826347743,0.05476098885244671
7.998839999999998,2.518697323310438,0.05837019974965206
8.00282,2.6214858766406253,0.062270094788394
8.006855999999999,2.7521566591493762,0.0661982545644475
8.01096,2.9043184278116727,0.07022807862543627
8.015003999999998,3.0770853834280363,0.07440840690243218
8.019047999999998,3.2740578111740475,0.07874400215792969
8.023032,3.4983816789500133,0.08320742154654641
8.027059999999999,3.7519621454058925,0.0877460944446056
8.031108,4.032771909316259,0.09230711737625795
8.035143999999999,4.337000653381196,0.09696016040086147
8.039175999999998,4.655676208850585,0.10178196018843057
8.043267999999998,4.999221585849232,0.10667776224759998
8.047304,5.3686447261520795,0.11163064381630235
8.051348,5.766969455083973,0.11656429174880945
8.055443999999998,6.186884477393814,0.12127519106935795
8.059539999999998,6.6227279536540005,0.1253288098491573
8.063572,7.071418970162024,0.1284174012404968
8.067664,7.500489906139862,0.13068504031183423
8.071763999999998,7.9025187414364835,0.13230380861933388
8.075855999999998,8.270770640651534,0.13350399245575786
8.079888,8.613675565710992,0.1343728040298706
8.083924,8.937315420291132,0.13498799453974236
8.088011999999999,9.239032806793519,0.13559982980412427
8.092043999999998,9.522870909993474,0.13616808527316385
8.096128,9.790933502989759,0.1365818850678351
8.100211999999999,10.037150099781627,0.13687396525527698
8.104256,10.257576822818159,0.13704201717814884
8.108332,10.448846254399184,0.13712682649673502
8.112383999999999,10.613882912625131,0.13713846195854262
8.116475999999999,10.753706156946485,0.13709942865418545
8.120563999999998,10.878750415163582,0.13692761819668076
8.124651999999998,10.984762470376767,0.1367048349411379
8.12874,11.06893994706107,0.13645971334476745
8.132828,11.13654400389109,0.13612962458831288
8.136916,11.189147624816984,0.13570921718713178
8.140999999999998,11.221955386114951,0.13531027714497199
8.145091999999998,11.231634123111418,0.13503515822689316
8.149176,11.233016458432907,0.13483196563684258
8.153208,11.23530742830494,0.13465034080771465
8.157287999999998,11.243901751653125,0.13447755212222973
8.161316,11.250380884227011,0.13436084514630894
8.165399999999998,11.259208075050598,0.13420795444270245
8.169484,11.265099330098211,0.13402660376908435
8.173568,11.274545199619272,0.1337319225743313
8.177651999999998,11.2811658582643,0.13340545780551744
8.181739999999998,11.286423565083506,0.13304601541699548
8.185768,11.292799938577598,0.13267081707041684
8.18986,11.302543729771866,0.13227725468588825
8.193947999999999,11.313074012941213,0.1318813396059953
8.198039999999999,11.326849571235268,0.13144334147595826
8.202127999999998,11.342297420703881,0.1309704415147921
8.206163999999998,11.352239826346953,0.13051338438335594
8.210211999999999,11.35891412151425,0.13003957030344032
8.214251999999998,11.353470280031122,0.1296404223921453
8.218247999999999,11.342078095122714,0.12927387293484874
8.222279999999998,11.327097042714257,0.12893174265519713
8.226327999999999,11.313234656980685,0.1285726082117281
8.230328,11.303071863647093,0.12818150306006212
8.234416,11.29391701208845,0.12777864936254413
8.238443999999998,11.284640017954336,0.12735077908451609
8.242483999999997,11.279948415419687,0.1268555848700378
8.246575999999997,11.269419194359696,0.1263869728230768
8.250675999999999,11.25675194717434,0.1259137803963638
8.254771999999999,11.232875197889106,0.12553494751492986
8.258863999999999,11.20855554900413,0.12517275910074876
8.262908,11.182452884044663,0.12485120977578432
8.267004,11.153104943960486,0.12456973938816263
8.2711,11.11983596167646,0.12432599130445586
8.275195999999998,11.085559037617482,0.12409185276840787
8.279287999999998,11.048479738033539,0.12387961357321847
8.283387999999999,11.006692904274663,0.12370597010564754
8.287479999999999,10.965803287390802,0.12352502252465178
8.291576,10.931083463732088,0.12330305457112586
8.295668,10.902090533698782,0.12305909269654056
8.299768,10.875235629790835,0.12281775740788815
8.303867999999998,10.85332112753322,0.12255627206084893
8.307959999999998,10.833655376300904,0.12229341373591851
8.312051999999998,10.81466539214373,0.12203278882841793
8.316156,10.797359116836644,0.12176389229502697
8.320252,10.781182925879971,0.12150942846012426
8.324348,10.768374152623476,0.12123996422601035
8.328443999999998,10.763197431642348,0.12093459628912656
8.332539999999998,10.761055953661593,0.12062713078309063
8.336631999999998,10.767665194631087,0.12026860166022815
8.340732,10.777198953701017,0.11991437662291891
8.344828,10.792791781096163,0.11952869377796099
8.348916,10.815119443891662,0.1191144663849988
8.35302,10.844403391887386,0.11866330608980141
8.357112,10.875038874033395,0.11821825992420051
8.361207999999998,10.908598874279843,0.11777773042088593
8.365303999999998,10.94429690065165,0.11734245050372288
8.36936,10.985046053573726,0.11688838902360148
8.373459999999998,11.024122915321245,0.11647524743449525
8.377488,11.066002152593734,0.11604340705585904
8.381575999999999,11.109343648916441,0.11561569979675355
8.38562,11.151677203464203,0.1151995565089146
8.389647999999998,11.196702408636998,0.11476975176295362
8.393684,11.24307914796008,0.11434838432149635
8.397724,11.291704638308456,0.11393219907368406
8.401771999999998,11.339211461981952,0.11353106772132388
8.40586,11.38055991010583,0.11319438574157469
8.409952,11.418773808004937,0.11289374962810396
8.413988,11.45945790672921,0.11258783682407394
8.418076,11.501039222328492,0.1122808188013636
8.422163999999999,11.54104755397762,0.1119776962688313
8.426255999999999,11.579593626576528,0.11167547671919142
8.430343999999998,11.618804048575049,0.1113525370474162
8.434428,11.654536327973457,0.11104767646146145
8.438516,11.694189649571712,0.11071326480640062
8.442612,11.734396595669647,0.11036088831491236
8.446704,11.776054383142268,0.10998545685543963
8.450788,11.816471361364538,0.1096035004652331
8.454875999999999,11.854418138761643,0.1092283527077373
8.458887999999998,11.892586365958616,0.10884905509262391
8.462983999999999,11.929292334105373,0.10846860616553299
8.46698,11.96801418580202,0.10807282037137954
8.471076,12.004155111773565,0.10768910644960178
8.475175999999998,12.040284620069581,0.10728061079054764
8.479303999999999,12.0715844516152,0.10688091957587635
8.483391999999998,12.10197564861027,0.10645869908070979
8.487479999999998,12.136055020329794,0.10598819120490104
8.491571999999998,12.168217815723827,0.10550378406744462
8.495659999999997,12.197566817917355,0.10501147721124143
8.499751999999997,12.222086143360485,0.10452779769429865
8.503779999999999,12.246483326228152,0.10402277152960963
8.507811999999998,12.270647641620414,0.10350167706437251
8.511896,12.288642163787525,0.10300773886019615
8.515979999999999,12.304498659829278,0.10250658362990402
8.520008,12.314517537345687,0.10201999622605348
8.524092,12.321279722061853,0.10153890583169534
8.528179999999999,12.320864171777925,0.10108905261713906
8.532263999999998,12.314057378468979,0.1006704756374863
8.536296,12.305223283934607,0.10023931400971023
8.540379999999999,12.292567454424784,0.09980505834270176
8.544463999999998,12.279678757439559,0.09935127172702764
8.548563999999999,12.264762759228908,0.09888622790951253
8.552668,12.246811518017884,0.09841595022951309
8.556763999999998,12.226955118156901,0.09795681918183204
8.560863999999999,12.206533676120712,0.09748820855765813
8.564968,12.18970110158457,0.0970044935428373
8.569071999999998,12.170066151523457,0.09653510361798848
8.573172,12.150541926362278,0.09606045567645377
8.577268,12.13292285985106,0.09557455340401347
8.581371999999998,12.11530379333984,0.09508724759929663
8.585424,12.093763684628772,0.0946240371607425
8.589468,12.06808108391798,0.09419283844947308
8.593564,12.043295700082197,0.0937563737906393
8.597656,12.021091241971517,0.09331211807155164
8.601748,12.00236492646095,0.09285714480031163
8.60584,11.98330643625058,0.09241224787486058
8.609939999999998,11.970860638865094,0.09193076318814479
8.614031999999998,11.965703301379637,0.0914182629167309
8.618123999999998,11.965032048269238,0.09088868102346165
8.622219999999999,11.96448293773431,0.09038206895497906
8.626311999999999,11.96237226092476,0.08990108311867426
8.630403999999999,11.95870001784059,0.08944565696028656
8.6345,11.95526064223182,0.08900804722346577
8.638596,11.953726425273011,0.08856075922072765
8.642692,11.953322292664614,0.08812925146516541
8.646784,11.949783609831448,0.08772304292960499
8.65088,11.947817910948428,0.08731805413179769
8.654972,11.94731447111563,0.08691823062427184
8.659064,11.946368131683094,0.086534656081052
8.663159999999998,11.948567760150864,0.08615483087721479
8.667251999999998,11.958953065393676,0.08574597145668526
8.671347999999998,11.972030021261522,0.08532816908657415
8.675443999999999,11.987355728154665,0.08491731588495262
8.679488,12.001341318573056,0.08452487309806059
8.683564,12.011295141891662,0.08415887204741734
8.687615999999998,12.024051340735236,0.08378119093632166
8.691699999999997,12.039277740403978,0.08340541374812063
8.695788,12.050472372972932,0.08305667735159092
8.699884,12.061224105942145,0.08272412853905056
8.703979999999998,12.075786156211276,0.082374967888256
8.708075999999998,12.094158523780324,0.08200891020964586
8.712167999999998,12.1172384255243,0.08162399309589706
8.716263999999999,12.148049686768045,0.08120251449698841
8.72036,12.175615672887083,0.08080784903961588
8.724447999999999,12.208221367880853,0.08038509707544148
8.728531999999998,12.24295367132445,0.07994809210707135
8.732623999999998,12.279480408518074,0.07950853452596322
8.736712,12.316007145711694,0.07907044701761164
8.740748,12.350739449155295,0.0786384539097612
8.744844,12.383898768648741,0.07820596604136151
8.748932,12.411453337092246,0.07779712835935539
8.753031999999997,12.438897180635816,0.07739291185735328
8.757123999999997,12.464202998054022,0.07697827303579187
8.761219999999998,12.490848931946985,0.07654795730736826
8.765324,12.528139325764618,0.07607291874197845
8.76942,12.566548386257134,0.07559202222572638
8.773516,12.598676928624567,0.07512749983655825
8.777611999999998,12.630461878616662,0.07464765179468891
8.781707999999998,12.663586945083509,0.07415456063712034
8.785803999999999,12.693233868950243,0.07366821518193604
8.789835999999998,12.723212967516783,0.07317486331786738
8.793927999999998,12.75083259015809,0.07267964810191169
8.798016,12.772847461749457,0.07220513450232738
8.802104,12.79743184139039,0.07170366802065334
8.806155999999998,12.816632919781254,0.07121489606240443
8.810188,12.833363797346953,0.07072539305099433
8.81428,12.849972532337183,0.07021628988363579
8.818331999999998,12.868032108702101,0.06969038946504538
8.822384,12.888439743316718,0.06914593928139054
8.826471999999999,12.90559068513109,0.06859725493850816
8.830563999999999,12.921390092795177,0.06803768548279156
8.834651999999998,12.934375707258763,0.0674599455791833
8.838743999999998,12.946464104847337,0.0668828690140979
8.842831999999998,12.960900560685607,0.06628861998781882
8.84692,12.963451747348856,0.06572096487482194
8.850947999999999,12.961516849637043,0.06516013029575578
8.854983999999998,12.963724443924953,0.0645776615889666
8.859079999999999,12.96783719686282,0.06398960948114298
8.863108,12.966788098350488,0.06340208930167891
8.867135999999999,12.96517395766295,0.06280530292840353
8.871168,12.95604990727551,0.0622261811261195
8.875143999999999,12.942107597813209,0.06166068953976767
8.879123999999997,12.926703029300686,0.06108589946964065
8.883119999999998,12.908163910563392,0.0605263352416209
8.887104,12.889514066926163,0.05996858721568087
8.89114,12.871761440163942,0.059408792912845856
8.895176,12.846953220977092,0.05887652332422163
8.899228,12.818445409390264,0.058349816432986354
8.903156,12.783103455178676,0.05784309261201523
8.907208,12.748326543142296,0.057342517080998814
8.911235999999999,12.715122615056066,0.05684504594162742
8.915232,12.685064654870148,0.05635600440402907
8.919215999999999,12.659492779059292,0.05586276870177243
8.923259999999999,12.627651802798882,0.05539875597186787
8.927252,12.595700101638533,0.0549342749909279
8.931231999999998,12.563416225778386,0.054477345511467816
8.935227999999999,12.526092641043503,0.054038025033846394
8.939271999999999,12.488436881608818,0.053607793367601755
8.943259999999999,12.454713582049514,0.053190129478875144
8.947308,12.41831004954071,0.05279766531137692
8.951291999999999,12.384265992957138,0.05241101790324187
8.95534,12.353921528773546,0.05201709943567801
8.959336,12.322015498315332,0.05164126140116532
8.96338,12.291903901607144,0.05126305421038206
8.96742,12.25966569644913,0.0508934669572814
8.971412,12.222055607716571,0.05055006470088653
8.975392,12.188710153559207,0.050209825718298
8.97944,12.15638405885232,0.04989130261627741
8.983491999999998,12.12742538184561,0.04957637740587297
8.987487999999999,12.10183412253908,0.04926648964049535
8.991436,12.071092429457883,0.04897621369696703
8.99542,12.035200302602014,0.04870588811687294
8.999468,11.993149800196534,0.04845943962479299
9.003467999999998,11.952783006641143,0.048214423700431996
9.007516,11.913324847636295,0.04799495971919344
9.011508,11.873534513931641,0.04778430656800372
9.015508,11.83285838102751,0.04760003696283368
9.019531999999998,11.787253264148582,0.04742862763775251
9.023564,11.73560049661997,0.04727769091057671
9.027552,11.682939787316414,0.04712889255323104
9.031579999999998,11.632073511762878,0.04697869365994065
9.03558,11.579424220134854,0.04685577542395989
9.039668,11.529355854231932,0.046735182942536924
9.043699999999998,11.473915604754469,0.04664200528228487
9.047791999999998,11.418818947652344,0.0465658492212192
9.05184,11.369216316700225,0.046485334247933496
9.055875999999998,11.317708527098148,0.04640736019181534
9.059908,11.261382478421208,0.046339525643646906
9.06394,11.202929821294438,0.04628171586190077
9.068032,11.138540238417923,0.04624118684545689
9.072124,11.079423231891544,0.046204276163121574
9.076211999999998,11.020195500465231,0.04617055875610015
9.080299999999998,10.96186498591393,0.04613629722484307
9.08436,10.899834878962645,0.046104213593368144
9.088387999999998,10.837018280036284,0.04606825526178046
9.092472,10.773083014435045,0.046039138477466095
9.096556,10.709701373333477,0.04599040633315773
9.100535999999998,10.644193123782081,0.04595228827104822
9.104592,10.577898382255608,0.04590997569025092
9.108636,10.513508799379094,0.045862878340095586
9.11272,10.442506523677693,0.045825645628304865
9.116796,10.365334454751144,0.045783372056364645
9.12088,10.28166041789964,0.045747225440489835
9.124964,10.199105047723018,0.045703239839239795
9.128988,10.114079476721232,0.045650181874673276
9.133063999999996,10.021543996019547,0.04560764087162413
9.13712,9.924190256242998,0.04557600456761125
9.141147999999998,9.82795518314133,0.04553556108441949
9.145132,9.72992567628964,0.045494295345985515
9.149228,9.628196577037965,0.045457367756660545
9.153268,9.517384584136238,0.045423397398214625
9.157308,9.408588474784404,0.04537944383958144
9.161348,9.295982048132654,0.0453432069679492
9.165447999999998,9.183719213856243,0.04532969157304328
9.169496,9.068764728954795,0.04531537273594487
9.173588,8.950110651653365,0.04530527755686107
9.17768,8.827314082352212,0.04531707535360556
9.181711999999996,8.706311946801083,0.04533039110717671
9.1858,8.58351537749993,0.04534331022187566
9.189832,8.455003332248905,0.04536919771798358
9.193928,8.327277778972952,0.04540105644140234
9.197976,8.20314109319705,0.04543369406302105
9.20208,8.083490491796207,0.045467266553238656
9.206156,7.959132356220434,0.04551227465342052
9.210155999999998,7.8356714375196725,0.04555607349161871
9.214251999999998,7.714115677468868,0.0455960165999712
9.218304,7.591662700543054,0.04563788784498643
9.222396,7.469098998717304,0.045684643014256746
9.226484,7.348329730641579,0.04573202597223482
9.230572,7.232489446540652,0.045757857605524734
9.23462,7.12045947973964,0.045772865933928875
9.238708,7.006413629388736,0.04579723216618684
9.242795999999998,6.892478503937768,0.04581652237215417
9.246896,6.777191844336516,0.04581289033840546
9.250923999999998,6.66011075098524,0.0458081041496197
9.255008,6.544148324308844,0.04579010246089568
9.258992,6.4310989980573545,0.045761252237262205
9.262988,6.316476687855711,0.04571768207574148
9.267084,6.204546028279102,0.04567348290709256
9.271135999999998,6.0972121779774895,0.04562354032785553
9.275232,5.992680703200846,0.045567329867321704
9.279328,5.886244069774243,0.04551729650943285
9.28342,5.773416193322623,0.04547229544639827
9.287516,5.667311734595825,0.0453980200718952
9.291608,5.560199334094081,0.04532762540866062
9.2957,5.45207899181739,0.04526380765080951
9.299699999999998,5.347658241940682,0.04519253392671749
9.303795999999998,5.240545841438937,0.04511782102490293
9.307835999999998,5.1281608645870564,0.045027925926071154
9.311923999999998,5.011854845535324,0.044957161983186916
