Time,Force,Position
7.896616,4.942504600894442,0.051093979032400386
7.90066,4.937629253441914,0.05078994759798222
7.904707999999998,4.9278249220145875,0.05052229321396798
7.908803999999998,4.915107490162356,0.05027236484132408
7.912895999999998,4.903176550285202,0.050028819731237885
7.916991999999999,4.892475001982863,0.04975747555212151
7.921083999999999,4.8778524114806725,0.049511390295395655
7.925175999999999,4.866929413378464,0.04925306488758397
7.929267999999999,4.855452790776581,0.049037357522848685
7.933363999999999,4.842181734424675,0.04882027158298833
7.93746,4.8249896358729165,0.048630470543996294
7.941552,4.807465362621355,0.04846589156035687
7.945648,4.788822422694911,0.04831779133651489
7.949743999999997,4.769171540993519,0.048177112557782384
7.953839999999998,4.750417876167141,0.048035061187507215
7.957931999999998,4.735585253540614,0.047864815506161555
7.962031999999999,4.712910546514382,0.04774786398663036
7.966123999999999,4.683401696863394,0.04767466315528523
7.970219999999999,4.656695222737376,0.047591225273656085
7.974316,4.6248383148366905,0.04756047535792562
7.978408,4.596005232260845,0.04750102448067703
7.982459999999998,4.5707610171850455,0.04744107841578603
7.986555999999998,4.548319177634216,0.047371214305820336
7.990655999999999,4.525545163383583,0.04732829529094489
7.994755999999997,4.499182281632903,0.047285194463274956
7.998851999999998,4.473605891857299,0.04724853798905217
8.002951999999999,4.453966427831442,0.0471653171039384
8.007048,4.430405921605732,0.04710881821448277
8.011148,4.4062803732048135,0.04702392804005536
8.015243999999997,4.383838533653985,0.04694794309077622
8.019339999999998,4.3597129852530685,0.04686089412844436
8.023435999999998,4.334800944877074,0.04676419563989692
8.027531999999999,4.309999629401014,0.04665652318689819
8.031628,4.283182430375062,0.04656673687375583
8.035724,4.252333464249323,0.04651536181148156
8.039819999999997,4.215658297273772,0.04650096271814715
8.043915999999998,4.18279344759814,0.04646842167788559
8.048011999999998,4.152730973447477,0.046426391918459466
8.052107999999999,4.11975539887191,0.04640419631117179
8.056156,4.088906432746171,0.046351937846165765
8.060255999999997,4.054025699520645,0.046338709377029455
8.064351999999998,4.017350532545095,0.046325320150299
8.068451999999999,3.9776629579202374,0.046435383310526025
8.072556,3.942373578121571,0.046740175866729655
8.076599999999997,3.9172321221255677,0.047452137255511964
8.080695999999998,3.90451017630859,0.048713216844227775
8.084795999999999,3.9137563692714963,0.050480997115722515
8.088892,3.9524920283897194,0.052672242555296095
8.092991999999997,4.016796111463406,0.05524851001803301
8.0971,4.110013200841669,0.058025573243816526
8.101144,4.229894545499212,0.060985309535089974
8.105127999999999,4.369472442560277,0.06408759561894821
8.109176,4.52819326752519,0.06735517515919916
8.113279999999998,4.708305771419248,0.07078457077342519
8.117332,4.913066647042691,0.074334341123096
8.121376,5.144281745821079,0.0780254552345373
8.125475999999997,5.401053850879397,0.08183175248998732
8.129508,5.684501628892528,0.08572336397369745
8.133595999999999,5.994502937285005,0.08967210312679015
8.137651999999997,6.325674474806758,0.0937114486876178
8.141632,6.679921400107743,0.09781821194147153
8.145676,7.05724371318796,0.10197969615358915
8.149703999999998,7.460199504421446,0.10605592734885483
8.153784,7.879793769707018,0.10994734240895243
8.157883999999997,8.313842812217178,0.11339160183901723
8.161927999999998,8.742783639799407,0.11629870374464008
8.166015999999997,9.150985720176571,0.11869211177481831
8.170115999999998,9.525189414672296,0.12065182391113143
8.174168,9.868086373911611,0.12223898876387897
8.178208,10.1756676661458,0.12365179920724281
8.182183999999998,10.456928295476049,0.12492774743513639
8.186264,10.71985532422859,0.12610531985924206
8.190347999999998,10.96791547732801,0.12714068844290383
8.194431999999997,11.203777570048267,0.1279640213478327
8.198464,11.413750481788794,0.1286653160551814
8.202515999999997,11.594898276773613,0.1292236863990423
8.206615999999999,11.743853537302545,0.12967554251714392
8.210716,11.858157480225962,0.13007461400211026
8.214812,11.94477780841962,0.13041717483816495
8.218911999999998,12.010560082183805,0.13066950915942563
8.222972,12.055393576618586,0.13084163420600464
8.227019999999998,12.071989831823933,0.13099677975976767
8.231072,12.064945657074837,0.13110132701627586
8.23512,12.0339288776715,0.13117111943938925
8.239171999999998,11.97223891124016,0.1313246880959459
8.243272,11.896269946681969,0.1314936146173966
8.247372,11.808637162748623,0.13174862251759387
8.251471999999998,11.726288372840944,0.13199840099998864
8.255567999999998,11.646421201433965,0.13226814052550118
8.259668,11.575526198777107,0.13247387508296077
8.263767999999997,11.505738445119592,0.13263812572042696
8.267819999999999,11.432671163310774,0.13276199532027128
8.271924,11.352735485850596,0.13286976388854319
8.276027999999998,11.262808280189823,0.13302463397478015
8.280128,11.174442640803669,0.13314723011271867
8.284231999999998,11.091349577767653,0.13323266635148306
8.288331999999999,11.014548450532251,0.13330010647733917
8.292432,10.943584941822195,0.13334052981223152
8.296531999999997,10.874415866862162,0.13336775825727903
8.300627999999998,10.802555141277093,0.13341612195404617
8.304727999999999,10.728334939766793,0.1334721180238983
8.308824,10.657925055556408,0.13349342437587233
8.312923999999997,10.586396504671145,0.1335294094855991
8.317023999999998,10.522167831361443,0.13353123626436655
8.321119999999999,10.4727489453272,0.13342960254709532
8.32522,10.428503328418694,0.1333248862449325
8.329319999999997,10.39267625576063,0.13317222658940236
8.333415999999998,10.359097934127863,0.13301604310598905
8.337515999999999,10.331467955920376,0.13282239768316847
8.341616,10.301489919463188,0.13266682328903934
8.345711999999997,10.27297414205622,0.13251032315744693
8.349807999999998,10.252422591624425,0.13229179630239704
8.353907999999999,10.239735960943396,0.13204828704868013
8.358004,10.232444049187974,0.1317917698447283
8.362104,10.231444073233167,0.13151608060217856
8.366199999999997,10.234720149529082,0.13124623915999908
8.370303999999999,10.24495251102522,0.13093074246790995
8.374404,10.258109390621795,0.13061460102029143
8.378499999999997,10.27441223811868,0.13028911707549165
8.382599999999998,10.293861053515872,0.12995325762474488
8.3867,10.3182502705634,0.12959381373890058
8.3908,10.348920005736005,0.1291864263691559
8.394899999999998,10.379711883484083,0.1288038919028553
8.398943999999998,10.407147761207515,0.12847288500887843
8.403044,10.432346305581182,0.12817909216067447
8.407095999999997,10.462030934329908,0.12785156381260263
8.41108,10.498438980803456,0.12746033584149116
8.415131999999998,10.539665286351868,0.12702527093982177
8.419227999999999,10.57920788305019,0.1266013865010503
8.423324,10.621663580173418,0.12614814077556566
8.427372,10.66781886969663,0.1256664023760542
8.431419999999997,10.70893445034511,0.1252449890767758
8.435463999999998,10.744888179543386,0.12485538096139587
8.439444,10.781174083441467,0.12445350950652412
8.443527999999999,10.815211236314253,0.12405648627201694
8.447615999999998,10.845426654211588,0.12366621012544092
8.451696,10.868575062008766,0.12332512337968465
8.455736,10.896419586305337,0.12291626782442718
8.459763999999998,10.92560422707666,0.12248551973650046
8.46384,10.95713692609768,0.12202172335539704
8.467927999999999,10.988215307843427,0.12154874625846816
8.472007999999997,11.015815546989062,0.12109916624997333
8.47604,11.049574161684314,0.1205842723907807
8.480127999999999,11.086123734229002,0.12001864432182328
8.484156,11.120313830848458,0.11945951543053714
8.488248,11.153263118217568,0.11889421917339704
8.492303999999999,11.177240236836557,0.11838980943269008
8.496335999999998,11.194150345355387,0.11792928477832883
8.500368,11.210606136598946,0.11745757548933175
8.504451999999999,11.2268290603671,0.1169670820975522
8.508487999999998,11.238898074460002,0.11649300933779305
8.512583999999999,11.252417929927589,0.11599187688842641
8.516643999999998,11.267388626769861,0.11546296589527859
8.520735999999998,11.279999847686906,0.11493799917756865
8.524831999999998,11.287227767353876,0.11444504688839076
8.528927999999999,11.295574353695729,0.11393844063903347
8.532963999999998,11.306047548487411,0.11340795844546672
8.536999999999997,11.313607642854189,0.11290590699939651
8.541032,11.316903102645774,0.11242211117320272
8.545067999999999,11.317949811412063,0.11193801396782001
8.549107999999999,11.314731885603168,0.11147068915799435
8.553204,11.309940975844114,0.11100477114443616
8.557235999999998,11.300885431509872,0.11055709704567848
8.561268,11.289814003625736,0.11012809540346413
8.565315999999997,11.280869184191431,0.10967644047478642
8.569424,11.268224772357142,0.10924823838140257
8.573527999999998,11.256588302297798,0.10880877318187468
8.577567999999998,11.247643482863491,0.10835364608664884
8.581663999999998,11.240493097179208,0.1078889437288299
8.585755999999998,11.234694245645208,0.10743250793749001
8.589847999999998,11.228563219411404,0.10698767784112867
8.593928,11.2224321931776,0.10654309587644276
8.597975999999997,11.218882092668895,0.10608927492690119
8.602071999999998,11.220039526335123,0.10560472328339002
8.606115999999998,11.228485419901377,0.10507895640123392
8.610207999999998,11.236820588567701,0.10455844868475533
8.614303999999999,11.243139873684125,0.1040554423185205
8.618395999999999,11.2455381166007,0.1035829057209362
8.622492,11.250517285242376,0.10310071559541763
8.626584,11.256847988034336,0.10262729328262328
8.630635999999997,11.268451267176435,0.10213184595216056
8.634679999999998,11.28151680536875,0.1016403093428483
8.638671999999998,11.2923450102113,0.10117353436407545
8.642715999999998,11.305864865678886,0.10069532968834263
8.646747999999997,11.31736883759658,0.1002352415558398
8.650803999999999,11.334145385864412,0.09975505905165155
8.654835999999998,11.354178626932484,0.09927065589307796
8.658883999999999,11.372195984450663,0.09880313722590862
8.66298,11.387976008619079,0.09836149073282961
8.667076,11.400167165287446,0.09793717009783905
8.671111999999999,11.416168639255732,0.0974893023293325
8.675143999999998,11.431162171449069,0.09705026083038429
8.679231999999997,11.44425054499245,0.09662508616171975
8.683316,11.453307151436043,0.09623362454771503
8.687347999999998,11.45855344057972,0.0958670540962753
8.691391999999999,11.464364771898605,0.09550960815835155
8.695427999999998,11.47275702894259,0.09514504694470895
8.69946,11.488659195686477,0.09473982189334361
8.703555999999997,11.505126404605567,0.09434417176392272
8.707583999999999,11.521593613524658,0.09395019245500177
8.711675999999999,11.53593421399392,0.09357698225233116
8.71572,11.549488322488106,0.09320380398672651
8.71982,11.567417790457414,0.09281700402150073
8.723795999999998,11.582544882901754,0.09244619997617726
8.727872,11.599244959296248,0.09207721427664572
8.731927999999998,11.614261326840648,0.09171349570780259
8.736015999999998,11.630617810859807,0.09133249804089033
8.740072,11.649998120203803,0.09093032360098756
8.744107999999999,11.669599879347667,0.09052039711795756
8.748139999999998,11.692004014016502,0.09009739861739652
8.752235999999998,11.708692672735461,0.08970615811992055
8.756336,11.725159881654553,0.08932280692554172
8.760375999999999,11.744429466098614,0.08892791313433554
8.764435999999998,11.761904616792648,0.08853883742115068
8.768468,11.783190084786606,0.08813092254045297
8.772515999999998,11.80301329373034,0.08771861025244079
8.776603999999997,11.820034127149103,0.08731992143031826
8.78064,11.828537109093022,0.08696576857230318
8.784687999999997,11.834459165311841,0.08661706541373784
8.788668,11.840270496630724,0.08627325396881849
8.792699999999998,11.845406060874463,0.08592486397289062
8.796676,11.854241217518185,0.08556189967190539
8.80072,11.861614115111692,0.08519444455886838
8.804812,11.870781446455219,0.08482179291261367
8.808904,11.879051560923735,0.08445281948286378
8.812992,11.885416516742291,0.08409397127800065
8.817084,11.890662805885967,0.08374697183623898
8.821176,11.89456897855489,0.08341858258026143
8.825272,11.902285468523734,0.08307291730220191
8.829367999999997,11.90877256691776,0.08274195782114742
8.833459999999997,11.924674733661645,0.08237080552653063
8.837555999999998,11.942703508855356,0.08198399388388376
8.841647999999998,11.955914024974204,0.08162236195451913
8.845739999999997,11.9727134085931,0.08125051621076924
8.849835999999998,11.984018766061991,0.08089845316666758
8.853883999999999,11.99700783238097,0.08054587027621124
8.85798,12.013131448924723,0.08017150726417027
8.862079999999997,12.031049499218499,0.07979084235384368
8.866175999999998,12.051880649937182,0.07939600074182451
8.870267999999998,12.069909425130893,0.07901251690999499
8.874359999999998,12.09085130074951,0.07861588010144575
8.878388,12.107982859068208,0.0782376974980328
8.882443999999998,12.125790184462053,0.0778657514799596
8.886548,12.139787192555977,0.07751044107275011
8.890547999999997,12.151879041999944,0.07716332088074457
8.894575999999999,12.166662542068948,0.07681042507039107
8.898676,12.178643666612981,0.07646827956885187
8.902716,12.190624791157013,0.07612654015902028
8.906771999999998,12.198684873501191,0.0758057185859767
8.910879999999997,12.205958463870298,0.0754835166595958
8.914975999999998,12.205611419639567,0.07519420078569532
8.919023999999999,12.205264375408834,0.0749056119819871
8.923115999999998,12.204130839203025,0.07461456731824845
8.927216,12.201424319047064,0.07432056677368128
8.931299999999998,12.201298724616203,0.07402368467546282
8.935391999999998,12.196465596010412,0.07374360667912154
8.939444,12.192308234479762,0.07346952665389384
8.943495999999998,12.190166756499007,0.07318405553973509
8.947591999999998,12.187803828718382,0.07290639389472835
8.951623999999997,12.186559567612639,0.0726191784095732
8.955732,12.182402206081992,0.07234518697805395
8.959819999999999,12.181047220076314,0.07206244317179877
8.963864,12.17722203324547,0.07177795024885557
8.967895999999998,12.178104380589557,0.071477309523497
8.971987999999998,12.18301849503343,0.07115566023315176
8.976083999999998,12.183900842377515,0.07085549578754384
8.980184,12.186466898571691,0.07055521901559561
8.98428,12.189365129465669,0.07024456447254288
8.988324,12.192263360359645,0.06993373870688921
8.992416,12.197177474803517,0.06961285502334534
8.996511999999997,12.20321025592227,0.06928283078795773
9.000548,12.20812437036614,0.0689622427781017
9.004651999999998,12.215951585234919,0.06862948570282702
9.0087,12.225351784053847,0.06830122276324194
9.012724,12.23587064954766,0.06796516945074402
9.016767999999995,12.250089107441456,0.0676188560201833
9.020811999999998,12.259710756060258,0.0672839810149892
9.024864,12.271126838429083,0.06694725734422757
9.028964,12.281977878622701,0.06660236705578482
9.033067999999998,12.292939643716254,0.0662541134644783
9.037168,12.304798625684816,0.0659048317240985
9.041271999999998,12.314863173903358,0.06555945391441141
9.045272,12.326611430971985,0.06521504379264503
9.049372,12.33656525429059,0.06487440599492852
9.053471999999998,12.3415900936344,0.06455441933200985
9.057567999999998,12.348287224152761,0.06420843216429875
9.061624,12.356435196045812,0.06384463312361167
9.065732,12.362678009288901,0.06348678006422273
9.069839999999996,12.369142272331862,0.06312193961801153
9.073944,12.3738121016248,0.0627600023079183
9.077995999999995,12.380608539367566,0.062386051772920094
9.0821,12.388634368685148,0.062001519305016475
9.086207999999996,12.396770922902665,0.0616142807493144
9.090255999999998,12.402548001194948,0.061220133227943584
9.094352,12.406419920837275,0.060831965777505
9.098455999999995,12.413426390704375,0.060428647452461556
9.102551999999998,12.421440802346421,0.060019974688372155
9.106656,12.426985013163304,0.059608206810295064
9.110704,12.428497456880395,0.05921298026552087
9.114807999999998,12.431915059247448,0.0588131451787319
9.118856,12.434435444739488,0.05841430031577913
9.122896,12.436390788056324,0.058006312282370374
9.126996,12.443164390448018,0.057586381865585276
9.131095999999998,12.446459850239606,0.05716541036181774
9.135148,12.453111310055835,0.05672163321090904
9.139183999999998,12.460549261847142,0.05628109690058034
9.14328,12.465971330088555,0.05584941352748331
9.147376,12.47161484812984,0.055410366138007275
9.151424,12.478155583046139,0.05497106486993217
9.155523999999998,12.487387968587468,0.05453109098223271
9.15962,12.491691370153998,0.05410700325080763
9.163664,12.489382078895643,0.05369553132829966
9.167699999999998,12.486962062737351,0.05328781040365149
9.1718,12.484099146979323,0.052892653272921565
9.175896,12.477425913921378,0.0525044641226218
9.179992,12.462234829388585,0.05213271050987117
9.184084,12.447830236830871,0.05176308240682545
9.188179999999996,12.430401818948313,0.05140325043741268
9.192279999999998,12.41510000951559,0.05103090151932494
9.196324,12.395877157883014,0.050669299456028036
9.200424,12.370828105400623,0.050320844866634955
9.204468,12.339731402268555,0.04999209962362983
9.208563999999996,12.295520038386645,0.04968221633109402
9.212592,12.250976499804933,0.04937999005376672
9.216684,12.203863453173653,0.049100665614659825
9.220763999999996,12.148797597242732,0.04884451073998596
9.224859999999998,12.087905540462003,0.048600582742309356
9.228951999999998,12.022760266781617,0.04837545103585989
9.233,11.94786775005157,0.04817362392755523
9.237048,11.861655006321703,0.047988084522857154
9.241075999999998,11.775110087892033,0.0478109033652656
9.245119999999998,11.688011544962688,0.04764933833327574
9.249159999999998,11.590157817208736,0.04751521831804724
9.253195999999996,11.486588613504907,0.04739057775559218
9.257228,11.38391662667609,0.047263097992270964
9.261316,11.279118031397445,0.04714383147284049
9.265408,11.166698801518963,0.04703748589294729
9.269439999999998,11.050247804540698,0.04694383856271817
9.273492,10.928646373787764,0.046870014029150205
9.27754,10.800210800410072,0.046813372446416215
9.281624,10.67278316880733,0.0467508295886243
9.285679999999996,10.544015420729833,0.046703258509301605
9.289712,10.414694048152663,0.04667450841609822
9.293808,10.282570300050526,0.04664690137480357
9.297907999999998,10.14024499162345,0.046630334604146714
9.301943999999995,9.99892762497132,0.04660874651022611
9.305996,9.855262200069493,0.04660851301938307
9.310044,9.710588833392721,0.04661185424249614
9.314071999999998,9.5698365089158,0.04660158468444441
9.3181,9.427744067964127,0.04661008319356817
9.322136,9.279149659087503,0.04662749708744636
9.326228,9.128085049385712,0.04663581027221814
9.330267999999998,8.978139106358801,0.046636384150533824
9.334312,8.827406671356814,0.04663125565569958
9.338356,8.670958760404952,0.04663777161309748
9.342448,8.516305283203113,0.04664257220588361
9.346536,8.361651806001278,0.04664727427177736
9.350636,8.206101111924426,0.04665181127426755
9.354732,8.045056391697571,0.04666216516800652
9.358827999999995,7.883225179495637,0.046668151205229526
9.362923999999998,7.715678491343829,0.04668921313572502
9.366952,7.543756443716896,0.04670844561548246
9.371048,7.3702614121398105,0.04671885852907653
9.375084,7.190829454812977,0.04676122370597038
9.379187999999996,7.0143105979110505,0.046792234135834054
9.383227999999995,6.834989365484155,0.046828607428489266
9.387327999999998,6.6573404242318155,0.046817546429492374
9.391372,6.4759918905794915,0.0468143585831835
9.395476,6.287919939202345,0.04683883313666541
9.399527999999998,6.10309326294991,0.04682948027557478
9.403639999999998,5.919163803572487,0.046824203294104104
9.407744,5.735345069094999,0.046803291774543974
9.411851999999998,5.551415609717574,0.046791942355061227
9.415956,5.3673754254402155,0.04678543991766261
9.420055999999995,5.182216574487975,0.0468019372258976
9.424155999999998,4.992350189360806,0.046837187671154815
9.428252,4.800800095383549,0.04686017311748927
9.432311999999998,4.606558350781256,0.04688362358712376
9.436312,4.417921357228903,0.04688630451664605
