Time,Force,Position
7.737779999999999,2.828555125758136,0.04696467154665734
7.741724,2.8159940895079707,0.046961739987491084
7.745687999999999,2.8006306777328343,0.046971758506342165
7.749739999999999,2.7900855250325627,0.046940109778460797
7.753731999999999,2.7766272719073855,0.046938238653546405
7.757771999999999,2.7660821192071134,0.04690833262451509
7.76172,2.7602445006817704,0.046848328571412
7.765763999999999,2.754517607056362,0.04677333209060262
7.769815999999999,2.750806596980847,0.04666911094099647
7.773811999999999,2.744858253555569,0.04662358920513625
7.777868,2.741036518580118,0.046532871600435136
7.781867999999999,2.7347445827795025,0.046410618171109676
7.785848,2.7283419220789518,0.04630256920479596
7.789904,2.7201448276283773,0.04619346325004743
7.79396,2.710718341602987,0.04612981902972472
7.798003999999999,2.7059993897525256,0.046036781494618755
7.801976,2.698588787277028,0.04594226664653064
7.806027999999999,2.688043634576756,0.04590669993584131
7.810084,2.674585381451579,0.045898694985635105
7.814128,2.661459303026206,0.04584569496555194
7.818151999999999,2.652143541900751,0.04576315111463641
7.822072,2.6418198390003482,0.04569531536034878
7.826124,2.630598919224934,0.04562623057028051
7.830043999999999,2.619267274549585,0.04557222423752309
7.834095999999999,2.6101729632239987,0.04545472915055134
7.838144,2.5976005092983003,0.0453172399838868
7.842207999999999,2.582004230047762,0.04522540919045175
7.846183999999999,2.5646135170472,0.045130661893744935
7.85018,2.540499386321816,0.04509545238357979
7.854224,2.516828155196171,0.044994777160656196
7.858252,2.4922597071955144,0.04488965978189634
7.862271999999999,2.4712801266949045,0.04478399841970356
7.866216,2.449403329319283,0.044675943655531375
7.870212,2.4264078652687804,0.04460019061009486
7.87424,2.400720750593242,0.044524110868085914
7.878219999999999,2.3675237262178053,0.044491454416393725
7.882216,2.3305163845424506,0.04449027470137855
7.886255999999999,2.294849159341847,0.044414808671502826
7.890255999999999,2.258395442166167,0.04431482269777806
7.894311999999999,2.2208230583156054,0.044250157999824846
7.898303999999999,2.182242732690097,0.04419975197490375
7.902348,2.145678290614482,0.044112206418464535
7.90638,2.110011065413879,0.04402421982427359
7.910368,2.0698577558382167,0.043926019602704015
7.91436,2.0275778378127263,0.04387973967015219
7.918412,1.9881002953122058,0.04380363324159883
7.922407999999999,1.9486227528116853,0.043734269981583127
7.926408,1.910153152086112,0.04363771406440251
7.930455999999999,1.8735887100104969,0.043528864310750974
7.934396,1.8391622940602428,0.043548226183253096
7.938395999999999,1.8039722214859775,0.04397153960409408
7.942423999999999,1.7709430103881392,0.04493086077889062
7.946396,1.749734014267521,0.04653006507395818
7.95036,1.7395815765001117,0.04897646345182339
7.954319999999999,1.7512637172615857,0.052007070377068504
7.958264,1.7912938221524284,0.05543002253227192
7.962263999999999,1.8596718911726398,0.05912570032784724
7.966236,1.9493309142220603,0.06310095981433773
7.970267999999999,2.0568920559249797,0.0672845102834057
7.974243999999999,2.1842490572558235,0.07150716798193738
7.978183999999999,2.327148701314935,0.0758820173649628
7.982163999999999,2.4823457129776045,0.08048537542629465
7.986151999999999,2.653994001919086,0.08525263352744641
7.9902,2.8499470702146175,0.09011669207139497
7.994199999999999,3.07110213473921,0.09500409135801705
7.998244,3.3118544444429223,0.10000855561096979
8.0023,3.5730897985252343,0.10502495853870389
8.006295999999999,3.854697472086211,0.11010737414147714
8.010296,4.157009639825657,0.11520853706126935
8.014296,4.477999000518145,0.12021660704445628
8.018343999999999,4.816856226837536,0.12484102491295898
8.022368,5.167400107883147,0.1289494463357433
8.026399999999999,5.516703179678407,0.13244457803959392
8.030444,5.865838438196069,0.13501415845995068
8.034488,6.19515500173474,0.13698807312200278
8.038535999999999,6.49633363326838,0.13856213423364505
8.042584,6.769595782596857,0.13984285870765278
8.046555999999999,7.016636576245794,0.14092321579207534
8.05058,7.246118843616571,0.14185477964967055
8.05454,7.4548087272600085,0.14281010618867437
8.058512,7.64987254450067,0.14363655386121327
8.06254,7.837800845587974,0.14420058308572684
8.06654,8.014317578271198,0.1445319726754821
8.070632,8.171679965375045,0.14474119105413918
8.074724,8.30483688034924,0.14489136734230892
8.078771999999999,8.416147799119024,0.14496845521044563
8.082863999999999,8.505734864259855,0.14501735122878984
8.08696,8.575846826797035,0.14503477366031908
8.090988,8.62794594578078,0.14502144386758775
8.094964,8.660913554536211,0.1450044475300367
8.099008,8.680587271588669,0.14493859678511284
8.103104,8.684275446313118,0.14485399101536856
8.107199999999999,8.676364855860216,0.14474370426400723
8.111296,8.66046720308108,0.1446415794513321
8.115392,8.64243152417658,0.14453920250975513
8.119487999999999,8.628439030047401,0.1444101410018161
8.123584,8.61502299576896,0.1443265576690906
8.127676,8.611033447515911,0.1441559263789235
8.131772,8.608494740637548,0.14394486968625772
8.135868,8.612668033808474,0.14360088767893117
8.139911999999999,8.617051359103739,0.14320771438808969
8.144003999999999,8.613802632123637,0.1428822615318826
8.148056,8.603941212318645,0.14264475748731956
8.152152,8.596549993338819,0.14238974661122156
8.156255999999999,8.591186075584421,0.1421403184192534
8.160352,8.589643892805471,0.14187748820860963
8.164456,8.593152836576788,0.1415741781356382
8.168555999999999,8.599353430973142,0.1412422370670575
8.172611999999999,8.607902083619193,0.14086253769303655
8.176712,8.619474561590081,0.14043712901459962
8.180819999999999,8.62835538893594,0.1400427115733905
8.184868,8.642176617932126,0.1396170756054793
8.18896,8.661724740553721,0.1391557488625758
8.19306,8.67915767240102,0.13876858631444375
8.197104,8.70321471474874,0.1383373362632385
8.2012,8.728512566346808,0.13791772124435772
8.205252,8.763336211194673,0.13737951375291846
8.20928,8.794460263642552,0.1368880646527085
8.213376,8.82771092454026,0.136364224656609
8.217471999999999,8.858380659712866,0.13586713601257588
8.221568,8.888042453110527,0.13538669293754793
8.225603999999999,8.923087547758259,0.1348547756406913
8.229704,8.96071356813109,0.13430017182278434
8.2338,8.993521329429061,0.13380918535729647
8.2379,9.028344974276923,0.13329263315625142
8.241996,9.060022651224477,0.13278940151053972
8.246096,9.089230127346866,0.1323042338521712
8.2502,9.115856677744153,0.13184067182957873
8.25428,9.140578069491482,0.13140267387828147
8.258376,9.162607810613775,0.13099187795374986
8.262476,9.184637551736067,0.13058219738246407
8.266575999999999,9.202402658283171,0.13020585220473527
8.27062,9.215792405355153,0.12986649879865286
8.27472,9.229846501826742,0.1294932490013446
8.278815999999999,9.2415411223731,0.12913105941646494
8.282919999999999,9.251773483869242,0.12876898188555416
8.28702,9.253598718790471,0.1284976331471025
8.291127999999999,9.254858911536491,0.12821783845215798
8.295224,9.253206003857606,0.12797334226363533
8.299324,9.248972170453623,0.12774709031753007
8.303424,9.245746278824585,0.1275077205603136
8.307528,9.241623170320537,0.12727719927973388
8.31162,9.238729453391302,0.12702301658606788
8.315716,9.236954403136952,0.12674968800482425
8.319811999999999,9.230361093807737,0.12653102895339607
8.323908,9.228143143953647,0.12627949077620743
8.328004,9.224917252324607,0.1260408443524295
8.332108,9.224715186020408,0.12576359379088747
8.336204,9.225410336591224,0.12547925697033252
8.340247999999999,9.225994762262102,0.12519990577709833
8.344348,9.221871653758052,0.12496803869006448
8.348443999999999,9.214724719929162,0.1247743475918485
8.35254,9.209372219850298,0.12456503442860573
8.356636,9.20379826997156,0.12436619490705657
8.360736,9.195311219667918,0.1242007680270778
8.364832,9.191642428439142,0.12398171733641343
8.368932,9.190776012735336,0.12373421410906468
8.373032,9.189798872131593,0.12349181386689569
8.37712,9.193639990602716,0.12319709166127196
8.381219999999999,9.200283484598808,0.12287508591346473
8.38532,9.20714842839477,0.12254373837520256
8.389324,9.211321721565696,0.12223497850870216
8.393419999999999,9.217400173386583,0.12190851797718055
8.397516,9.224265117182545,0.12158023785653337
8.401548,9.236059044953304,0.12119537164869384
8.405584,9.242248221674124,0.12086400163839865
8.40962,9.250453281944838,0.12050843624438112
8.413727999999999,9.256531733765723,0.12018402333840386
8.41776,9.261602243811662,0.11987250599977135
8.421856,9.271491012932461,0.11951253848024099
8.4259,9.291692067278134,0.11905781715484315
8.429996,9.320521697998588,0.11851788412876017
8.434092,9.350359270493987,0.11796831067514604
8.438127999999999,9.383331393214162,0.11738057480170448
8.442224,9.41753290750915,0.11676997986569615
8.446308,9.445121728979256,0.11622429362165106
8.450403999999999,9.474504984199383,0.11566822037084284
8.45438,9.50669061494448,0.11508982010742884
8.458408,9.535963145264672,0.11454650821291802
8.462432,9.564792775985124,0.11402622331242561
8.466528,9.596424782230546,0.11348795415231418
8.470632,9.628167513375901,0.11294482575236034
8.474727999999999,9.65710786899629,0.112429227302391
8.478819999999999,9.688285557966442,0.11188454619513138
8.482908,9.718455305161644,0.11135488787370741
8.486956,9.753554036331646,0.11077621191135761
8.491052,9.787755550626638,0.11020614633513875
8.49514,9.823186456496444,0.10961780126046501
8.499179999999999,9.85816304509098,0.10901675166691145
8.503264,9.88854282441052,0.10845380623543383
8.507356,9.912531360705042,0.10794056176924086
8.511436,9.931812362824639,0.10746937018875179
8.515524,9.95411719026907,0.10697178401661585
8.519563999999999,9.975414075938561,0.10648779072394354
8.52356,10.00130777088304,0.10597609100286509
8.527612,10.03101178312744,0.10543415696041727
8.531647999999999,10.05734837767166,0.10490517843522641
8.5357,10.083119930040674,0.10437100507241374
8.539736,10.103729630959487,0.10385710888673737
8.543771999999999,10.125114406177842,0.10331278963926874
8.547868,10.138313504621157,0.10281940877752231
8.551955999999999,10.153639211514301,0.10230334232344261
8.555992,10.168178426432368,0.10178813327706744
8.560072,10.179239498750322,0.10128929608854254
8.564108,10.191529962643093,0.10077439994406437
8.568156,10.20056373373562,0.10026595618378607
8.572244,10.210040404427888,0.09974021291973735
8.57634,10.215141715645032,0.09923260421739906
8.580435999999999,10.222148185512134,0.09871226497891253
8.584463999999999,10.230384046954052,0.09817408293815023
8.588484,10.240967966645668,0.09760526961910436
8.592512,10.250089627287066,0.09703170352998768
8.596556,10.250017669378474,0.09651143184040938
8.600648,10.247254060844845,0.09600433100436552
8.604676,10.238209934186138,0.09552820961902889
8.608716,10.22748209867734,0.09505614481454973
8.612756,10.219888813393318,0.0945530647999898
8.616848,10.211398311234282,0.09405480189935053
8.620887999999999,10.209520501900132,0.09351341623589518
8.624932,10.207531967666048,0.09297820988839577
8.628964,10.207227142282056,0.09243622045232325
8.633068,10.202104057823195,0.09192697332573845
8.637112,10.198996856914231,0.09140121538030264
8.641164,10.197462639955422,0.09087628995784691
8.645208,10.18729984662183,0.09040718374371493
8.649248,10.177702095463447,0.08994673827293082
8.653279999999999,10.166088460755168,0.08950230136666786
8.657368,10.160866069071908,0.0890266687655567
8.661456,10.15373851873869,0.08856330742172468
8.665552,10.145713751530462,0.08810347419644762
8.669547999999999,10.133657217222444,0.08767540285824862
8.6736,10.12148995801449,0.08725038855561616
8.677696,10.11862704225646,0.08677593947186252
8.681792,10.117780010048328,0.08628520752887284
8.685888,10.121640512015121,0.08576862543155606
8.689936,10.126398230856926,0.08524906209753075
8.694032,10.128021399473957,0.08475793548593993
8.698068,10.125723525891134,0.08429233534351312
8.702107999999999,10.117599451458501,0.08386383603899673
8.706188,10.105665059725952,0.08345655978911684
8.710284,10.100343360818293,0.08301400994148818
8.714331999999999,10.099839920985495,0.0825415654777141
8.718432,10.095415438952847,0.08209458180957792
8.722524,10.09379333244517,0.08163551511641275
8.726624,10.099902585437258,0.08112791180389037
8.73066,10.109822155729264,0.08060144997774121
8.73476,10.12142543487136,0.08007360958916501
8.7388,10.129329121613473,0.07956410850173974
8.74284,10.137908575430732,0.07906095214640302
8.746879999999999,10.145147912773236,0.07857768515555061
8.750928,10.154968175840839,0.07808982477623366
8.754972,10.166361422858598,0.07760524844806979
8.759072,10.170920527251601,0.07716314884454066
8.763128,10.176155398719743,0.07672832374423011
8.767216,10.177247778188164,0.07632646116296447
8.771324,10.178229432756652,0.0759294682266942
8.77542,10.181792013050242,0.07552928130534875
8.779475999999999,10.189951402618826,0.07511163325410722
8.783524,10.203604818337414,0.07467465497571132
8.787504,10.219839159781102,0.07423430959423076
8.791552,10.231255242149928,0.07382154025428371
8.795584,10.24244987471888,0.07341926312967652
8.799636,10.25824131656283,0.07300152268223184
8.803671999999999,10.268428007356839,0.0726071509208579
8.807768,10.279401190125922,0.07221702882494523
8.811812,10.285334664020274,0.0718601767857889
8.815856,10.292165354789635,0.07150214470726302
8.819948,10.298663870859194,0.07115677246699081
8.824024,10.303478678078664,0.07081125506404701
8.828052,10.311095860823103,0.07045544367719565
8.832148,10.320728927117436,0.0700885263675545
8.83624,10.32957550143669,0.06971973929158778
8.840335999999999,10.339319292630957,0.0693477491960394
8.844432,10.347379374975137,0.06897626909782537
8.848464,10.357233891069336,0.06860073288949872
8.852516,10.365072523613645,0.06823736092244549
8.856596,10.370219505532917,0.06787979083124764
8.860676,10.374358545677245,0.06752909546074007
8.864708,10.376481702271677,0.067191391693146
8.868744,10.380620742416005,0.06684291350568537
8.872836,10.385656999435342,0.06649285122639785
8.876928,10.387780156029777,0.06615630750123508
8.881015999999999,10.386092995324292,0.06583502297064968
8.885112,10.388105427018791,0.06550280463052796
8.88916,10.387204758288386,0.06518433661350027
8.8932,10.387644206032727,0.0648471332763681
8.897295999999999,10.386178495127114,0.06451745500894206
8.901384,10.383926292246423,0.06418448788649084
8.90542,10.386270898640728,0.0638406633953808
8.909455999999999,10.3888369548349,0.0634896609604955
8.913488,10.38658475195421,0.06315805547673949
8.917544,10.385119041048597,0.06282915845615746
8.921643999999999,10.390487472767742,0.062471808021484
8.925704,10.39631022176216,0.06212967300414342
8.929751999999999,10.400559986806423,0.06178175641865529
8.933848,10.409628010925548,0.06141626698997085
8.937944,10.427213886519521,0.061026481956202853
8.942036,10.444013270138415,0.06063442860457896
8.946132,10.461144828457115,0.060231216222127064
8.95016,10.47256091082594,0.05984688783909187
8.954252,10.484984934969715,0.05945857753689947
8.958336,10.500322059538389,0.059059505463624984
8.96238,10.518683009431907,0.058645930264598356
8.966403999999999,10.535138800675464,0.05823932133253914
8.97044,10.552381083894097,0.057836150607772946
8.974532,10.573101509712844,0.05743524683420839
8.978572,10.59482987730654,0.05703020123937596
8.98266,10.618352678650256,0.05662372198044646
8.986696,10.637954437794123,0.056234339165581494
8.990672,10.656548255163042,0.05585128934918265
8.994748,10.678055172956867,0.05545791122163775
8.998788,10.699672815650626,0.055061666721181665
9.002872,10.711653940194658,0.05469719778778483
9.006908,10.727888281638348,0.054308659580289305
9.01094,10.74681427370707,0.053918935808755744
9.015032,10.760135514725853,0.05354162829126548
9.019136,10.761017862069938,0.0531998322711785
9.023228,10.76156803471422,0.05286943888315637
9.02732,10.76099954068362,0.0525474121505873
9.03132,10.76603579770296,0.052214520113496504
9.035352,10.767372462322319,0.051887179596510416
9.039392,10.764001592766748,0.051569167254224585
9.043428,10.75771762278627,0.051260009847434534
9.047472,10.749639219055767,0.050950589541930304
9.051504,10.739987831375114,0.05063351339895464
9.055552,10.723723750869572,0.050329942804794296
9.05958,10.706341003689149,0.050033960633640004
9.063612,10.688847531608793,0.04974164010765257
9.067652,10.666757250253443,0.049452514690010344
9.071748,10.641532418673316,0.04917865827723919
9.075796,10.612165095093468,0.048923976293930756
9.079772,10.578655279513898,0.04868842849345338
9.083816,10.546829172784415,0.048454617210654354
9.087848,10.50223199768043,0.04826096372831218
9.09194,10.451587171926768,0.048090819844827395
9.096032,10.398594287923405,0.04793934338842572
9.100128,10.346498620795057,0.04778596124521289
9.104124,10.29171130304167,0.04763150244465223
9.10822,10.230089842663528,0.04749646512666498
9.112268,10.158721139235723,0.04738983223619977
9.116316,10.086012319333165,0.047298116217466685
9.120416,10.013868541605815,0.04721742390030525
9.124464,9.937582271878746,0.04715656592585914
9.128564,9.860853102551935,0.04711101573222173
9.1326,9.781665150075494,0.04708947932455517
9.136656,9.698334705599327,0.04708977807161942
9.140704,9.611980435798323,0.04710204751953672
9.144792,9.51901347317243,0.04712648997818015
9.14888,9.426500827821812,0.0471687845429172
9.152924,9.334996124246137,0.0472055391290412
9.156972,9.2436021455704,0.047237702524750236
9.161008,9.154224050444558,0.04726021341801307
9.16512,9.0639487384437,0.04728199950374274
9.169148,8.978491685517707,0.047290839522438705
9.17324,8.892248140616637,0.04729560868439267
9.177324,8.807123262390448,0.047291119682667235
9.181368,8.720990442389313,0.047290826712290915
9.185396,8.633628230813361,0.047304295245133854
9.189492,8.55377592893731,0.04730313303112284
9.193544,8.480647044786078,0.047282773020643425
9.197584,8.406842393559705,0.04725162424641886
9.201616,8.332140525458321,0.04722019533393779
9.205712,8.256541440481927,0.04718915394872656
9.20974,8.177242763105548,0.04716318453488433
9.213836,8.096260376879082,0.04713229526385761
9.217888,8.018523265777326,0.04707564529164247
9.221988,7.9359678956007045,0.047035466700768934
9.226084,7.855096234274173,0.04700059898471627
9.23018,7.776572631197339,0.04693797224685863
9.234228,7.691214885495748,0.0469024560605856
9.238276,7.605857139794157,0.046865384527177506
9.242372,7.515791859917636,0.046837759665915746
9.246472,7.420797596066318,0.04683381564151817
9.250572,7.323787448665108,0.04684138368990238
9.254668,7.227674518138907,0.04684906527571349
9.258768,7.1296564289627495,0.04686200803580465
9.262868,7.033543498436549,0.04686829342605063
9.266968,6.937762742610155,0.04685562535950762
9.27102,6.83447207708386,0.046860253549497514
9.275004,6.726584602282572,0.04686809905855337
9.279104,6.616459794131519,0.046901250099565216
9.28314,6.50274611848042,0.04693479679655072
9.287192,6.391945543254227,0.04695578802178187
9.291296,6.2841687933528725,0.04695608427612787
9.295396,6.17448688480156,0.04696413192745092
9.299432,6.065702193125261,0.046967392641989215
9.30348,5.96016277657367,0.04693686797017449
9.307568,5.854058317846873,0.04688282007954084
9.311664,5.741906208470394,0.0468706055958916
9.315756,5.632102157343614,0.04682187226788845
9.319852,5.518709238716788,0.046768275847514626
9.323948,5.405427044989895,0.046703478393939506
9.328036,5.298303226812618,0.04658047361700988
9.332084,5.190392916660263,0.04644726929264459
9.336132,5.079790955882874,0.04630951225130661
9.340164,4.967394561355461,0.04616683693051107
9.34426,4.85118784952813,0.04603675455283642
9.348284,4.7300521537260005,0.04593719227088546
9.352376,4.609137907723741,0.04581408243620973
9.356416,4.482286735971738,0.04574136957996442
9.360456,4.353751855369644,0.04566334130972599
9.364552,4.225106249867615,0.045595868233109196
9.368636,4.094776935515498,0.04550371425978443
9.37268,3.9567162616636127,0.04546767618411481
9.376776,3.8178690958366497,0.0454204540591281
9.380872,3.675100887809835,0.04540431938943602
9.384912,3.5312140131081393,0.04540269192818493
