Time,Force,Position
7.324016,1.7298891601016877,0.047467324492673435
7.328099999999999,1.661147053101115,0.04763550210106492
7.332124,1.584673586600773,0.04801893591336735
7.336155999999999,1.5168286964752118,0.04824164622897157
7.340128,1.4453949388496032,0.04588576244572706
7.34412,1.3673484883991076,0.04356761394235298
7.348155999999999,1.2890805881487422,0.04126963848770794
7.352139999999999,1.213504338523412,0.03897412451066989
7.356187999999999,1.1399439724479756,0.036639170260898794
7.360171999999999,1.0675022730474202,0.03426122557208222
7.364215999999999,0.9969657322968238,0.031859140000578434
7.368248000000001,0.9283343501961858,0.02945504211769416
7.372252,0.8623946187205831,0.027073390730415196
7.376280000000001,0.7955576703699687,0.024690791615299308
7.380312,0.7313016477444549,0.022334061709164254
7.3843,0.6753420267939174,0.019946923519227874
7.388327999999998,0.6209553897935336,0.017589760412724604
7.392375999999999,0.564885043943061,0.015199769126216222
7.396356000000001,0.5166567824922923,0.012698304155729081
7.400403999999998,0.46641263749163026,0.01018953562453514
7.404456,0.4176307515411872,0.007716778739983063
7.408504000000001,0.3758165684665018,0.005228244992049854
7.412592,0.3466969818929826,0.0025596904821407547
7.416643999999998,0.32133407609710973,0.0
7.420676,0.31341897167946325,0.0
7.424651999999998,0.3307172811664105,0.010116792818319342
7.428675999999999,0.3770507395334017,0.019455093894821272
7.432711999999999,0.4518657222807622,0.028472353907711228
7.436692000000001,0.5570559703829179,0.037109090523807786
7.440728,0.6896969657394305,0.045499482405896886
7.444755999999998,0.8477614071248738,0.053740956025234876
7.448792000000001,1.0285576439142123,0.061906067937547965
7.452824,1.2305241098328252,0.07010730434812872
7.456855999999998,1.4597198732059251,0.07826307332339591
7.460836,1.7168207011086547,0.0863244440519781
7.464876,2.000597201966197,0.09430969660290887
7.468875999999998,2.3123894922533035,0.10223079097703192
7.472908,2.65791304791985,0.11003930535166942
7.476948,3.023377441140855,0.11785526468691936
7.480947999999998,3.4206565234158086,0.1255836187758258
7.484976,3.840667401094657,0.13328641727426851
7.489028000000001,4.283055064126533,0.1409475014107681
7.49306,4.7415161590352835,0.14855623948026717
7.497052,5.215439972943574,0.15605986425618634
7.501096,5.692574808949975,0.16347788705329902
7.505175999999999,6.154697791376718,0.1607154479753915
7.509271999999999,6.58990081569771,0.1586979637525879
7.5133079999999985,6.997385972262346,0.15695104532607812
7.517408,7.375270937771729,0.15557488886103632
7.521495999999999,7.725926605826625,0.15445223056583277
7.5255839999999985,8.058004388152883,0.15345049881189257
7.529623999999998,8.373642310875859,0.15250927341018827
7.533712000000001,8.676860723419809,0.1514697921286715
7.537655999999998,8.957446647784268,0.15046255992201787
7.541692000000001,9.209783915243758,0.14954144070996903
7.545795999999999,9.429607891223093,0.14872135791697566
7.549900000000001,9.61860228457236,0.14797729211816765
7.553951999999999,9.774197587241993,0.14737313126077484
7.557987999999998,9.907049676832196,0.14675989400518993
7.562072000000001,10.014699770193339,0.14621208406939915
7.566127999999999,10.097037142425487,0.1457120076506215
7.570167999999999,10.157429211228813,0.14523489779023918
7.574159999999999,10.19891121960369,0.14476782597792792
7.578240000000001,10.217019918526132,0.14441427754346786
7.582283999999998,10.220960344221655,0.14410061202929725
7.586307999999999,10.218276659416759,0.143831848697087
7.590395999999998,10.216047291887135,0.14357451975475294
7.594480000000001,10.215291601083264,0.14334738963477678
7.598520000000001,10.2176818781797,0.1431065981005132
7.60256,10.222763805901172,0.14284037438401911
7.606587999999999,10.221786665297431,0.14262360287915407
7.610672000000001,10.21552553066802,0.14242081504107468
7.614751999999999,10.201743068663177,0.14226814927568002
7.618807999999998,10.190419389807968,0.14206895257929972
7.622835999999999,10.180890144702781,0.14185298449726338
7.626936000000001,10.177641417722677,0.14157913953203993
7.630980000000001,10.17832515061796,0.14128845221473085
7.635027999999998,10.185067951838457,0.14094967095064234
7.63908,10.194391678784049,0.14059190533447952
7.643180000000001,10.19911859645465,0.14027984462538104
7.647272000000001,10.208098731024904,0.1399051850767453
7.651308,10.214608664769996,0.13954507092821988
7.655404000000001,10.217308281215171,0.13922800200527932
7.659444000000001,10.227296357560373,0.13884199225449492
7.663475999999999,10.233706984081065,0.1385198169950889
7.667563999999999,10.24146914475204,0.1382016054474147
7.671612,10.250804289373168,0.1378781588056623
7.675699999999999,10.259131492219348,0.13756785958630816
7.679735999999998,10.265885711115375,0.1372640022693286
7.683727999999999,10.272861379811273,0.13695124224323754
7.687771999999999,10.28420099030676,0.1365728048906513
7.691867999999999,10.297667209252078,0.13616459403530723
7.695896000000001,10.312030645072406,0.13574903051675924
7.699975999999999,10.31855199649303,0.13542512005779161
7.704015999999999,10.325073347913655,0.13510187167664858
7.708123999999998,10.333499857984238,0.13476058629502788
7.712208,10.345393092979402,0.1343643657815208
7.716315999999999,10.356045518724214,0.1339602353838453
7.720355999999999,10.363551976568719,0.13356686150328248
7.724451999999999,10.375533101112751,0.13310483410741863
7.728543999999999,10.384711850131811,0.13267110344849253
7.73264,10.395795757800832,0.13221780611196846
7.736684,10.409792765894757,0.1317332588625258
7.740724,10.418185022938742,0.13130387535907623
7.744775999999998,10.433411422607483,0.13080121893409327
7.748812000000001,10.44594617165119,0.1303192469796167
7.752896,10.455678545169928,0.12986383584001987
7.756879999999999,10.465521643588596,0.12940333884186175
7.76098,10.474246075332385,0.1289590069575463
7.765080000000001,10.476468539151222,0.1285728908932303
7.76906,10.475777902545154,0.12821862591897737
7.773160000000001,10.471166223739234,0.1279068857942898
7.777215999999999,10.465214428458562,0.12762137749747385
7.781244000000001,10.46878842642768,0.12724119807877707
7.785339999999998,10.473038191471945,0.12686444785595313
7.7894359999999985,10.470453813891451,0.12656070082751958
7.793479999999999,10.463616219411298,0.1263140238723955
7.797575999999999,10.457454392006289,0.12607016713954067
7.801672,10.453873490326382,0.12581044418524645
7.805768,10.448398847672047,0.1256006094209894
7.809864000000001,10.442702755217844,0.12539999602630136
7.813956000000001,10.440484805363752,0.12517791013119844
7.81804,10.438266855509664,0.12495630894864437
7.822023999999999,10.439637773155619,0.12470853461805427
7.826111999999998,10.437198373501658,0.12449722940351551
7.83014,10.439466508022626,0.12424423325055962
7.834232,10.446442176718524,0.12395039215608042
7.838272,10.457006712914469,0.12363221539540421
7.842368,10.47138156641033,0.12328012146793271
7.846404,10.496965922006073,0.12283482094845674
7.850459999999998,10.523336769576893,0.12238845846307307
7.854499999999998,10.555533817997523,0.12188741842807294
7.858591999999998,10.590189649567785,0.12134734220511421
7.862667999999999,10.617900613613354,0.12088120494998798
7.866699999999998,10.64460363588398,0.12042716739962311
7.870732,10.676124917229467,0.11992786761797601
7.87482,10.709551357224916,0.11941267587222107
7.878907999999999,10.74488295587032,0.11888507960061401
7.882956,10.78010382961579,0.11836474530533304
7.887035999999998,10.81991009496072,0.11778382898643917
7.891088,10.864756069180386,0.11715514517557118
7.895184,10.907021117674947,0.11654533619861109
7.899215999999999,10.946262340844672,0.11596715775255116
7.903307999999999,10.982701188489427,0.11541279085888646
7.9073959999999985,11.020147977909128,0.11485079693547344
7.9114879999999985,11.059389201078849,0.11428365383863937
7.915575999999998,11.092472048698962,0.1137813795884587
7.919664000000001,11.125898488694409,0.11330012819852421
7.9237,11.161130780115412,0.1128417676925316
7.927788,11.193793563486846,0.11243042171742747
7.93188,11.233412632058506,0.11199046159047224
7.935859999999998,11.274272509880515,0.11156703234855415
7.93984,11.318278355602832,0.11114491160194645
7.943815999999998,11.365873068825193,0.11070261074533762
7.947896,11.415827257972788,0.1102597426394112
7.951979999999999,11.468140923045617,0.10981845512728482
7.956060000000001,11.521806122268726,0.10938670594945228
7.960144,11.577498622717261,0.10897115406353898
7.964223999999998,11.633645440441073,0.10856938311806719
7.968304,11.688009242090391,0.10821066001384377
7.972387999999999,11.741376519640296,0.107893429026649
7.976468000000001,11.793071506015645,0.10761024910000018
7.980551999999999,11.850936285616141,0.10730073169929967
7.984643999999999,11.912168482916814,0.10698276015634488
7.988731999999999,11.972736330817877,0.10669078873358813
7.992819999999998,12.027367252969196,0.10644800140341155
7.996908000000001,12.088045825770195,0.10615453806246031
8.000996,12.14411617162067,0.1058620585208793
8.005084,12.196918406995366,0.10555123399355018
8.009163999999998,12.244215198544525,0.10524493098112869
8.013251999999998,12.282417678768095,0.10496238952483063
8.017336,12.31657697421635,0.10468820138818037
8.021363999999998,12.345685143114336,0.10442992037276996
8.025392,12.374671169436851,0.10415034243977918
8.029391999999998,12.402072794133684,0.1038463814008821
8.033483999999998,12.425320509155261,0.10355290730558378
8.037555999999999,12.446873097651217,0.10323866109921423
8.041643999999998,12.45630754949675,0.10296558345842452
8.045728,12.466849250341626,0.10265563124987379
8.04982,12.472561274436107,0.10235088706888709
8.053912,12.471870637830042,0.10205147061029339
8.0579,12.472176525323388,0.10171786360938516
8.061979999999998,12.465858302316311,0.10139744844962248
8.066067999999998,12.46031515360878,0.10105194564110154
8.07012,12.454649862325782,0.1006842045904687
8.074203999999998,12.456150888367347,0.10026058050892939
8.078240000000001,12.45428449670873,0.09984559999903968
8.082272,12.453426046825061,0.09942265440542045
8.086364,12.448535829841608,0.09902885336950518
8.090443999999998,12.447345205258134,0.09861620907935889
8.094428,12.444593014400041,0.09822810992352492
8.098475999999998,12.439259897816845,0.09784680767784387
8.10246,12.43213234748363,0.09747201414670767
8.106531999999998,12.422202421625443,0.09711183594199593
8.110627999999998,12.410932379292502,0.0967700872114797
8.11468,12.398986569884421,0.09642374061259189
8.118780000000001,12.383119718276488,0.09610205241213111
8.122883999999999,12.373300517318235,0.09573398218516205
8.126932,12.361354707910152,0.09538481149738301
8.130976,12.349298173602136,0.09503804938811761
8.13502,12.341162681493973,0.09466490044264433
8.139112,12.332129972510797,0.09429510644867399
8.143152,12.325678189252724,0.09391801911748052
8.147244,12.310819279419738,0.09358263662392256
8.151295999999999,12.295063152711737,0.09325027073808943
8.155396,12.268884015878934,0.09297349464401372
8.159499999999998,12.242594154146195,0.0926996139881766
8.163595999999998,12.214964175938706,0.09244320402780513
8.167696,12.194733382531183,0.09215219555249568
8.171788,12.171478763798818,0.09188174561801096
8.17584,12.153263853941187,0.09157532776788846
8.17988,12.136732652933645,0.0912651555622984
8.183936,12.123679594526212,0.09094524085128151
8.188043999999998,12.113318186743822,0.09061538308025657
8.192148,12.105759154486394,0.09027247313692414
8.196148,12.100891772854007,0.08992002307734692
8.200192000000001,12.102415634246634,0.0895420221318552
8.204244,12.108879897289595,0.08916167871742428
8.20834,12.114225493657674,0.08879205979290351
8.212395999999998,12.123270682425733,0.08840653185802654
8.2165,12.132659463569132,0.0880375740880347
8.220603999999998,12.14160534511279,0.08768349516330745
8.22464,12.149432559981566,0.08733996509449382
8.22868,12.163318843175556,0.0869823957167821
8.232779999999998,12.176762226769807,0.08663971188946357
8.236875999999999,12.199399228914046,0.0862604899800012
8.240876,12.226633040333278,0.08586534140912257
8.244959999999999,12.256779952177414,0.0854548189534117
8.249008,12.282219329846624,0.08506810558340172
8.253091999999999,12.314271400340719,0.08465324800382919
8.257176000000001,12.34408613748505,0.08425985822716649
8.261271999999998,12.376592525254418,0.08385994093435703
8.2653,12.408423145948642,0.083457077602549
8.269376000000001,12.437229941318028,0.08307390338552989
8.273468000000001,12.462115694487562,0.08271319634429986
8.277563999999998,12.48599350588215,0.08236016856535973
8.281644,12.505274508001744,0.08202490884170825
8.285719999999998,12.517156325321372,0.08171772899201382
8.2898,12.528251650665924,0.08140926052804869
8.293887999999999,12.540576367585293,0.08108905043073336
8.297979999999999,12.550763058379303,0.08075861919578557
8.302063999999998,12.56139264877305,0.08041389428781714
8.306152,12.574370297416495,0.08004716112200609
8.310244,12.586893628784669,0.07966945913286778
8.314332,12.60198646820241,0.07926289926623033
8.318416,12.609004355745043,0.07887745073143464
8.322503999999999,12.610860391837477,0.07849970511314414
8.326591999999998,12.615961703054621,0.07809969685354881
8.330680000000001,12.620608696996491,0.07768745544648216
8.33476,12.616959289263388,0.0773022946445999
8.338843999999998,12.616665881554926,0.07689036583031332
8.342872,12.609194738846373,0.07649423007388387
8.346951999999998,12.603739479687713,0.07608776912210052
8.351032,12.60433187117873,0.07564922504745097
8.355115999999999,12.605256437369553,0.07519932225454329
8.359192,12.606513178260178,0.07473951667746713
8.363228,12.60877786092575,0.07427379354866379
8.367307999999998,12.615185035591047,0.07378215708695633
8.371383999999999,12.619687051606387,0.07329622015435569
8.375475999999999,12.62127596719682,0.07282397842590564
8.379552,12.625445808512351,0.07235008072410538
8.383644,12.63320451732793,0.07187045519115012
8.387736,12.638947342593617,0.07140213484675917
8.391824,12.644579442959369,0.07093800003158408
8.395916,12.648306384675164,0.07048159980621835
8.400012,12.658535294315909,0.0700063793957284
8.403996,12.668542754156785,0.06953761615484
8.408000000000001,12.670708129597958,0.06910310901897586
8.412032,12.674446488989282,0.06867234806597516
8.416124,12.679979282130635,0.06823711848134259
8.420103999999998,12.68237752504721,0.06782117537182793
8.424191999999998,12.69307216963876,0.06738466746147656
8.428276,12.698948555155448,0.06696623703563662
8.432368,12.698101522947313,0.06657236516812444
8.436416000000001,12.699048924489201,0.06617555871102791
8.4405,12.700672093106233,0.06578500927613555
8.444583999999999,12.701287319948317,0.06539877319205888
8.448628,12.702578313865542,0.06501879992195567
8.452711999999998,12.708798291757567,0.06461857834001204
8.456788,12.715128994549527,0.06421505993142028
8.460867999999998,12.718546596916582,0.06382226071829987
8.464868,12.719272548658601,0.06343440069103426
8.468955999999999,12.721006442175568,0.06304223332695796
8.47306,12.721056626842442,0.06264886250075892
8.477148,12.72066391190958,0.06226878142811306
8.481175999999998,12.716571604576735,0.06189664700324397
8.485256,12.71628961454381,0.061514086326316615
8.489332000000001,12.717912783160843,0.061124851491984114
8.493416,12.719757401577741,0.060729462939524886
8.497495999999998,12.724625845319483,0.060321482477687
8.501572,12.73072368063604,0.0599029306076674
8.505655999999998,12.735137807102506,0.05948476466969959
8.509692000000001,12.741457092218932,0.05906093168156419
8.513784000000001,12.75057875286033,0.05863099367579894
8.517879999999998,12.759921863301596,0.058195285256676235
8.521908,12.767470539992836,0.057761838759172325
8.525963999999998,12.779050983783863,0.05731309430125824
8.530016,12.787829052049922,0.05687018304128908
8.534104,12.79358329499114,0.05643962376717871
8.538187999999998,12.800910521882514,0.056014965519687175
8.542276000000001,12.809245690548833,0.05558611290881643
8.546312,12.810635991690459,0.05517958823807275
8.550308000000001,12.809113192407182,0.05478098774219464
8.554407999999999,12.80625027664915,0.054395045906462
8.558504,12.798901276516064,0.05401011394544519
8.562491999999999,12.789757842632948,0.05362476240473424
8.566527999999998,12.770756440800238,0.05326947530292816
8.57056,12.751755038967529,0.05291301000554554
8.574648,12.72480082783518,0.05258146754486234
8.578736,12.690115257203061,0.052268309678594874
8.582823999999999,12.64646893549636,0.051983421304495875
8.586908000000001,12.591059487190101,0.05173134120955042
8.590931999999999,12.529037346058955,0.05148950614293217
8.595016000000001,12.461521178777806,0.05125061358640916
8.599087999999998,12.38336055157198,0.051036350343358905
8.603168,12.29556340621643,0.050843383639729914
8.607247999999998,12.198805509786292,0.05067813776416866
8.611335999999998,12.098237296056237,0.0505181151983055
8.61542,11.993858765026266,0.05036318519383916
8.619504,11.87816000699648,0.05022675923781303
8.623587999999998,11.753721947691975,0.05011123380903812
8.627676000000001,11.629616063087276,0.04998202853591194
8.631771999999998,11.499683977632767,0.04986565638495204
8.635856,11.36224198247836,0.04976007958677626
8.639952000000001,11.223570595749134,0.04966299329069428
8.644036,11.078740833470295,0.04959070786831554
8.648124,10.935251187666207,0.04950037799882056
8.652216,10.782346473512261,0.04942379384584152
8.656292,10.627536600708355,0.049350334209455476
8.660376,10.46970290257961,0.0492871729689316
8.664456000000001,10.310185495600777,0.04921919097863628
8.668531999999999,10.152683972171838,0.04914189227758574
8.672619999999998,9.99305584029307,0.04907503989992914
8.6767,9.827490782664556,0.049026889146251376
8.680727999999998,9.664506650761144,0.04898158628508445
8.684812,9.504435619282637,0.04892507454200934
8.688848,9.337862619879177,0.04887863756098568
8.692892,9.164787652550764,0.04883932772990578
8.696984,8.986894426147488,0.048812477778093326
8.701076,8.807206765994186,0.04878630826924517
8.705112,8.629534989390779,0.048747952306190605
8.709152,8.443013186612722,0.04874634454382854
8.713239999999999,8.254696950084641,0.04874372573603961
8.717275999999998,8.069293813981465,0.04872808174461315
8.721315999999998,7.882317693928136,0.04869715745443408
8.725407999999998,7.693657865024718,0.048662488599708384
8.729392,7.501863485896524,0.048645904465092635
8.733428,7.309847656968461,0.04864200367443577
8.737459999999999,7.113235018765406,0.048648435029331936
8.74144,6.915614438787402,0.048664993273130314
8.74542,6.7198990174593565,0.04867062200451396
8.749507999999999,6.523286379256301,0.048673989705282486
8.753536,6.329586841478148,0.048659726551990405
8.757615999999999,6.136673795675074,0.04865585280734463
8.761644,5.942077041021911,0.04864392895859876
8.765740000000001,5.745575127718789,0.04863374939087089
8.769787999999998,5.555575182340619,0.048607132820856866
8.773775999999998,5.367037496012667,0.0486090484213406
8.77788,5.1793970265597284,0.048612968390182434
8.78198,4.996242641481848,0.048617843309957415
8.786079999999998,4.807151330654224,0.04868056347049132
8.79008,4.625791379326368,0.04869962502598626
8.794128,4.445217919973588,0.04872966100478205
8.798227999999998,4.263636518845863,0.048762452508015544
8.802332,4.077691175918546,0.04889511473171888
8.80638,3.8973505840411704,0.048997850383813754
8.810479999999998,3.7189151508137526,0.04909023851917232
8.81458,3.5470924104112216,0.049138451796933734
8.818676,3.3884950556584656,0.04907305470726929
8.822776000000001,3.2365103937305975,0.04895440819960676
8.82688,3.0868852077279594,0.048870798767120464
8.830984,2.944659206525286,0.04872448880410624
8.835079999999998,2.8033304221976247,0.0485418698478593
8.839132,2.668614330694851,0.048291631270826745
8.843228,2.5382735986672014,0.0480379222145896
8.847328000000001,2.411300284339729,0.04780599302604546
8.851420000000001,2.2857892290624755,0.04763215181536357
8.85546,2.16969324213508,0.047369628096226794
8.859507999999998,2.060885715107714,0.04706642947300171
