Time,Force,Position
6.969064,3.4249116854036132,0.04561530400302686
6.973103999999999,3.418852617078401,0.0455883388163492
6.977048,3.4092046812531405,0.04555996481166303
6.981092,3.3985488036529334,0.04554302600898957
6.985015999999998,3.3889008678276737,0.04551349090943926
6.988896,3.38048232357723,0.0454478935958132
6.992927999999999,3.3701586206768277,0.0453936964328293
6.996959999999998,3.3625265684014605,0.0453401813868961
7.000988,3.3553374157258333,0.04523777094518166
7.005067999999998,3.3384010200005436,0.04521620905403284
7.009156000000001,3.3187729736502183,0.04519289098388596
7.013183999999999,3.3009393610499163,0.04517057597799333
7.017271999999998,3.279184706249762,0.045182764255438115
7.021359999999998,3.2559792100749227,0.045257391861498804
7.025448000000001,3.2365840312000005,0.04531056418479217
7.029503999999999,3.2227936033750186,0.04534414704897304
7.033548,3.211694826175072,0.045378701447596474
7.037575999999998,3.2044063662750424,0.04538903998292733
7.041667999999998,3.197117906375013,0.04539933465339688
7.045763999999998,3.1916238802250074,0.045410285407052935
7.049855999999998,3.1824302616750195,0.045433189237863006
7.053903999999999,3.168307659150233,0.04550468953209607
7.058004,3.157884649025428,0.04556581276042848
7.062051999999998,3.1474616389006247,0.04562693598876089
7.0661640000000006,3.1350227452259265,0.045712226854216276
7.070204,3.12325961862637,0.04582235927539773
7.074307999999999,3.117322692876625,0.04588378515416146
7.078403999999999,3.107464724927029,0.04598290944123079
7.082508000000001,3.0973853071775617,0.04610697180953403
7.086615999999999,3.0922348734028944,0.046184289466587924
7.090712,3.0887681484783145,0.046276749747204235
7.0948119999999975,3.0814911062538175,0.04639603411510684
7.098783999999998,3.0780243813292376,0.04648940492822468
7.102888,3.072087455579492,0.04655685218972084
7.106971999999999,3.0644668209796575,0.046609821560054346
7.111007999999998,3.0579648530547057,0.046635950560319696
7.1150400000000005,3.049668451379729,0.04666180175129679
7.119128,3.0394668910547944,0.04670047848708357
7.123224,3.0274708969798363,0.046738806035665596
7.127268000000001,3.013791194054789,0.04676270976085807
7.131376,3.001905924879766,0.04678829202427847
7.135483999999998,2.991028597479689,0.04680088267707243
7.139588,2.9830643705045174,0.04678547740303031
7.143691999999998,2.971289826229428,0.046797997830076966
7.147791999999999,2.9603017739294164,0.04682514857656998
7.151851999999998,2.944606187454476,0.04688205392204709
7.155956,2.9261082254545654,0.046949857499644594
7.159991999999999,2.9095154221046133,0.04700698067293313
7.164088,2.893033343654596,0.04704909039340338
7.168132,2.878456423854537,0.04707632780891934
7.1722280000000005,2.8639902289544135,0.04709020115622916
7.176275999999998,2.850642700729171,0.047076703928708635
7.180319999999998,2.8346035218788925,0.047061815935509
7.184367999999999,2.820580226578508,0.04701755370918049
7.188468,2.805548989503176,0.046987004508952615
7.192512000000001,2.790517752427845,0.04695491164070267
7.196548,2.771676198052597,0.04695333181227659
7.200583999999999,2.750818760127455,0.04698429419160418
7.204671999999999,2.72816688845229,0.04701576563953715
7.208759999999998,2.7051828420773205,0.047096046882654174
7.212844,2.6797285948771843,0.04714584954618469
7.216875999999999,2.6552822894519954,0.0471783083551075
7.220904000000001,2.6270256667268894,0.047238926649817436
7.224931999999999,2.6048166946514635,0.04720248828460807
7.228975999999999,2.578232363100913,0.0471497017662166
7.23302,2.554893306675073,0.047012955732313504
7.237075999999998,2.526735991174369,0.046924103763122525
7.241111999999997,2.5007052841234936,0.046783787560922885
7.245211999999999,2.4717614766477127,0.04667471419054338
7.249264,2.437323643021926,0.04657672492908183
7.253367999999998,2.402996534296074,0.0464580123767182
7.257463999999999,2.3706853091201157,0.0462996339604968
7.261568,2.335018083919513,0.046253852462914115
7.265612000000001,2.2982436097195604,0.046412945944102654
7.269711999999998,2.2647372459953843,0.046796441560434734
7.273796000000001,2.2326052517725583,0.04757704921003071
7.277843999999998,2.212171329951484,0.04877450869624865
7.281843999999999,2.203003998607955,0.05052587896118927
7.285888,2.2119716533933276,0.052926887609345934
7.289871999999999,2.2474928385580455,0.05572807563446011
7.293903999999998,2.307563088227748,0.05898842880634907
7.297931999999999,2.3927360269021096,0.06250321488713959
7.301976,2.4973954858556566,0.06626738004585235
7.306063999999999,2.6163796136381876,0.07029396870953317
7.310055999999999,2.7541630769492293,0.07449501285976486
7.314139999999998,2.908508542439019,0.07888488432120412
7.31822,3.0877124117825314,0.0833193632691526
7.322251999999999,3.287078568480371,0.08788120108044928
7.326283999999998,3.507393504507616,0.09257444348860987
7.330311999999999,3.7559456797642943,0.0973167525426953
7.334356,4.025557359250312,0.10215746596037165
7.338387999999998,4.315552775890528,0.10708775531130897
7.342423999999998,4.629165787134118,0.11194901406783396
7.346456,4.964811991355395,0.11661070168209647
7.350543999999999,5.312056960754024,0.1211004613293966
7.354588,5.674245277679116,0.12520504909471883
7.35868,6.044065646879574,0.12884301144946375
7.362759999999998,6.417673498028885,0.1318588444245713
7.366851999999998,6.7807784153246615,0.1341933829382991
7.370888000000001,7.116531892590483,0.1360913523574539
7.374983999999998,7.429286453950407,0.1374936032444746
7.379083999999999,7.708962681654969,0.13869289387899267
7.383127999999999,7.966903638055048,0.1396565782916261
7.3871639999999985,8.207839692676641,0.14044848523848236
7.391251999999998,8.441983823520214,0.14101517504021044
7.395339999999997,8.66484994621071,0.14142686498084087
7.399319999999999,8.86846241609742,0.14175241061460253
7.403347999999998,9.050671789379455,0.1419589111915641
7.407443999999998,9.215842007856404,0.14196572657926204
7.411528000000001,9.355676669853294,0.14190052240234408
7.415616,9.470740817545327,0.14176620886354624
7.419663999999997,9.56496691080789,0.14155885505743993
7.423748,9.640836568141681,0.14130430427773796
7.427792,9.69970132369699,0.14101414775974508
7.4318719999999985,9.745604362249127,0.14065831494564215
7.435896,9.778324233998227,0.14025586123939823
7.439992,9.793275547344829,0.1398844223479072
7.444088000000001,9.793493545289305,0.13953457490981755
7.448183999999998,9.786965290157893,0.13919871822444452
7.452279999999998,9.781112802101623,0.13886319364555055
7.45626,9.774153065046002,0.138578726921349
7.460356000000001,9.778192797965927,0.13821491333716868
7.464411999999999,9.78638644056111,0.13782392829978007
7.468443999999998,9.795244432555897,0.1374010431490301
7.472496,9.797023996774994,0.13701003493037986
7.476544,9.7917251332184,0.13664759723165557
7.480647999999999,9.785971952386532,0.13627290565176053
7.4846879999999985,9.777084221329888,0.135942557648662
7.488783999999999,9.76652419909869,0.13565657760249636
7.492879999999999,9.75608631944296,0.13539781878708707
7.496976,9.752383275187585,0.13509349377992008
7.501072000000001,9.749245273107414,0.13479659012776002
7.505127999999999,9.74363707020208,0.13451350787702854
7.509235999999998,9.730629682496781,0.1343055940685546
7.513268,9.713800559816033,0.1341062688807464
7.517364000000001,9.689793702135193,0.1339710573903206
7.521459999999998,9.672510262179172,0.13375720313562162
7.525555999999998,9.658372790123456,0.13353099989833153
7.529651999999999,9.645697577117962,0.13330347812691545
7.533743999999999,9.635824739637439,0.13304591236284397
7.537839999999999,9.627414161207136,0.13278731284413856
7.541936,9.61250161485188,0.13259496567479614
7.546032,9.598474867696101,0.13236018177076633
7.550128000000001,9.585788237015075,0.13209634475183107
7.554223999999998,9.570631405508882,0.13184472656099513
7.558319999999998,9.55939561620254,0.13154545688032948
7.562415999999999,9.547262610021185,0.13125356443489827
7.566511999999999,9.539726413114828,0.13091676910024214
7.570612000000001,9.53219021620847,0.13057945167783144
7.574707999999997,9.527456394827082,0.13021336691643404
7.578803999999998,9.520706689895801,0.12987380988733738
7.582899999999999,9.513170492989444,0.12953644922006208
7.586991999999999,9.506531512958095,0.129190646533935
7.591087999999999,9.504710792001614,0.12878931095146634
7.595188,9.505138822070426,0.12838445933411546
7.599232000000001,9.51072870358944,0.12794268293028954
7.60332,9.510381659358709,0.12757408591632238
7.60736,9.509702440428171,0.12722154549106643
7.611404,9.509588263672844,0.1268771130684572
7.615500000000001,9.507347478467686,0.1265632765925369
7.619540000000001,9.508241243487305,0.1262064488264333
7.623635999999998,9.512945325806841,0.12580790511059126
7.627727999999998,9.515079900076808,0.1254617770207076
7.631819999999998,9.515198590796881,0.12514143421989377
7.635915999999998,9.51835252451733,0.12481734975802335
7.640007999999998,9.521063558638037,0.12451520902566024
7.64404,9.52646624338378,0.12419199533738423
7.648132,9.531758203229588,0.12387511209505125
7.652107999999998,9.539852538600366,0.12353243630936164
7.656216000000001,9.547725424171276,0.12320130578951329
7.660243999999999,9.557503468392143,0.12285212424620783
7.664339999999999,9.566838613013271,0.12252305402763046
7.668436,9.580549117109523,0.12216604483133442
7.672528,9.598413530881029,0.12179289754829493
7.676615999999999,9.621661245902606,0.12138175212149878
7.68066,9.644798236024249,0.12097754672634813
7.684756,9.675112961145986,0.12052194250819012
7.6888359999999984,9.705427686267722,0.12006716423366147
7.692883999999999,9.737536845139484,0.11960120806748437
7.696971999999999,9.771218987961397,0.11913158985380623
7.701055999999998,9.80356101430856,0.11869218558518509
7.70514,9.839602633055707,0.11822636311662278
7.709243999999998,9.878335902427887,0.11774284411394638
7.713328000000001,9.920768764200051,0.11723253664159
7.717403999999998,9.961739366921995,0.11672148828517043
7.721491999999998,10.001358435493655,0.11620547157264902
7.725535999999998,10.039404520115161,0.11569606437537558
7.729596000000001,10.077782779436472,0.11517561585470722
7.733684,10.115485271682644,0.11465607746342424
7.737719999999999,10.150828288003583,0.11414113692146714
7.741807999999999,10.183811828399287,0.11363238970034441
7.745891999999998,10.218467659969551,0.11308479333427736
7.749976,10.250874740514515,0.11254132200493455
7.754059999999999,10.276546985659126,0.1120281682942775
7.758143999999998,10.298962538003495,0.11152871656199247
7.762248,10.323836873497498,0.11099371259860889
7.766296,10.341754923791274,0.11049621283776823
7.770343999999998,10.362131757234685,0.1099622384390967
7.774376,10.376670972152752,0.10944729448718672
7.778427999999998,10.395463403970474,0.10888606313637293
7.782463999999997,10.416493169137961,0.10829923800758234
7.786559999999998,10.432028908155441,0.10775114192221778
7.790644,10.443521462397603,0.1072112570041178
7.794619999999998,10.452433090914663,0.10668497298769791
7.798704000000001,10.464479269656499,0.10612689431381236
7.802783999999999,10.476525448398332,0.10556907854424534
7.806812000000001,10.487674410265157,0.10501706086607968
7.810863999999999,10.49792615525697,0.1044717810090519
7.814912,10.50559697452368,0.10393745510725604
7.818884000000001,10.51819677776519,0.10336279113713752
7.822931999999998,10.533709681431606,0.10276704622953764
7.826923999999998,10.549111860198083,0.10217743385415429
7.830963999999998,10.560814446564583,0.10161142952821386
7.835011999999999,10.576438075130932,0.1010141794820595
7.839112,10.590377994847193,0.10042326452450978
7.843208000000001,10.599831830188396,0.09985721660811578
7.847259999999999,10.612309490854438,0.09926428135581691
7.851355999999999,10.620079617345551,0.09870318416347862
7.855456,10.63334376998667,0.09811061179745015
7.859487999999999,10.641335346277653,0.09754224701714134
7.863543999999997,10.643267854243422,0.09699551673233983
7.867647999999999,10.648445637333902,0.09641469364274646
7.871748,10.657433737724299,0.09580865757165714
7.875803999999999,10.664738129264606,0.09520666911380164
7.879908,10.66912942038001,0.09462734820953887
7.8840119999999985,10.673520711495414,0.09404795623502932
7.888116,10.678809219485828,0.0934650375123109
7.892151999999999,10.680508859976193,0.09289680798029404
7.896248,10.680979108891744,0.09234388270385162
7.90034,10.675733881857418,0.09182805355380609
7.904432,10.666678337523175,0.09133654268333743
7.908428000000001,10.658630734963879,0.09083754149026069
7.912523999999998,10.654282724804565,0.09031888826408653
7.91656,10.648705323070436,0.08981773491525563
7.920648,10.644357312911119,0.08930024292744404
7.924744,10.642700953376842,0.0887723599066027
7.928839999999997,10.642949752492525,0.08823502973199249
7.932872,10.649921969333029,0.08765846866977511
7.936911999999999,10.657115635973398,0.08707586174408283
7.940999999999999,10.66800889501375,0.08647757427613073
7.945048,10.679688646029179,0.08587811846078673
7.949092,10.692265613919623,0.08527904444333184
7.953132,10.70685846535996,0.08466963779101631
7.957224,10.721340591900361,0.08406375128045471
7.961320000000001,10.736941385115644,0.08344767592995592
7.965415999999998,10.754558061880822,0.08281916812787134
7.969515999999999,10.77239618844587,0.08218422936476351
7.973607999999999,10.796957732735738,0.08151454146975871
7.977703999999999,10.827677652575222,0.08080177874534726
7.981748,10.862207889714625,0.08007111347034064
7.985792,10.89875401040392,0.07932830107682184
7.989871999999998,10.93652952266803,0.07857630271436285
7.993907999999998,10.974415759832073,0.07782489256296701
7.998011999999999,11.012523446795988,0.07706839608338233
8.002099999999999,11.049180292385222,0.07633713995436273
8.006087999999998,11.083710529524623,0.07562553780178073
8.01012,11.113311782689225,0.07494401765733515
8.014167999999998,11.13496022655419,0.07431142642664934
8.018204,11.158070929469373,0.07369063630232332
8.022255999999999,11.178157807059716,0.07309104529038084
8.026304,11.202509319225248,0.0724896575354654
8.030396,11.219915963866088,0.07192706905462973
8.034488,11.233180116507206,0.07139516975069232
8.038532,11.252049020198262,0.0708456807635684
8.042568,11.271593690964465,0.07030421706941331
8.046599999999998,11.291027636830732,0.06976940045605835
8.050632,11.310350857797067,0.06924026432023593
8.054724,11.324523644988728,0.06874545359260657
8.058751999999998,11.33253805663078,0.06828957370513826
8.062847999999999,11.33652070117304,0.06785606092844892
8.066944,11.341289837690377,0.0674259163932238
8.070947999999998,11.340011323558038,0.06702859372153776
8.075032,11.336495476075932,0.06665013325258883
8.079063999999999,11.331074469943868,0.06627834447372678
8.083092,11.327558622461764,0.06589994787098132
8.087187999999998,11.326058658529554,0.06551132758671768
8.09122,11.326463853247299,0.06511516536459193
8.095251999999999,11.332584523914921,0.06469882606383733
8.099284,11.334219110207485,0.06429043674178869
8.103392,11.33282987117521,0.0638963004073795
8.107484,11.334685907267643,0.0634821047241343
8.111576,11.342146694410017,0.06305172832651308
8.115672,11.348599539777442,0.06262594593109616
8.119764,11.347321025645101,0.062229494287277004
8.123863999999998,11.34503456973781,0.06183867654407735
8.127955999999998,11.342637388930587,0.061452609174494355
8.13194,11.341923916973453,0.0610690603510344
8.136039999999998,11.346925920966191,0.06066897042504582
8.140124,11.356635459133862,0.06025650095876347
8.144171999999998,11.369933864801576,0.05983986090605927
8.148223999999999,11.380208445144453,0.05943788403722617
8.152328,11.397095718312213,0.059018566354999864
8.156416,11.413417949304772,0.05858908792521281
8.160519999999998,11.432996873097572,0.05816813778220045
8.164624,11.451678580015356,0.05774963746354701
8.168679999999998,11.46744718650824,0.05734183907594119
8.172788,11.483105068101185,0.056938046157202146
8.176891999999999,11.497976457719053,0.05653347720700815
8.180979999999998,11.513634339312,0.056131815861138586
8.185071999999998,11.535118421754756,0.05571155452470184
8.189176,11.544728652698023,0.055336330534582374
8.193279999999998,11.55567900011604,0.054947752364894145
8.197316,11.565732130659047,0.054558811644434844
8.201408,11.581500737151929,0.054155436452137336
8.205503999999998,11.596482851669736,0.0537496280520155
8.209551999999999,11.609338357737714,0.05335655931996329
8.213648,11.616478387855816,0.052977478128426535
8.217696,11.615100566499073,0.05261742413647994
8.221792,11.608007269192456,0.05227061133082474
8.225832,11.596649337310648,0.05191789866252135
8.229927999999997,11.584283463653893,0.0515678410763746
8.234023999999998,11.566091389147326,0.05123443730115394
8.238119999999999,11.544543314616115,0.05092194073243475
8.24222,11.517390489034964,0.050617974957619855
8.246316,11.483514245728992,0.05032868645910579
8.250412,11.448408610848201,0.05004902860424666
8.254504,11.410168425742638,0.04978332045904762
8.258596,11.362291722487347,0.04953986209637691
8.262691999999998,11.311391193907214,0.04930635413162398
8.266791999999999,11.25264858092738,0.0490949182728888
8.270888,11.195135359522359,0.048869356791856944
8.274936,11.124629619942967,0.048688975649808355
8.279035999999998,11.053337388388499,0.04850192371739941
8.283075999999998,10.972519363584238,0.04833281362655074
8.287171999999998,10.88486719615522,0.04818065973312239
8.291263999999998,10.789815843926236,0.04803467998000564
8.295355999999998,10.690732724597467,0.04790274299780369
8.299395999999998,10.589633721718805,0.04777621988972408
8.303491999999999,10.486518835290244,0.04765533217665278
8.307583999999999,10.381953107487005,0.04755102949255715
8.311684,10.272569120608898,0.047456989192041464
8.315728,10.157358932880982,0.047377835601925794
8.319827999999998,10.042259470053,0.04729245875094152
8.323923999999998,9.921444531275142,0.04721835339207163
8.328019999999999,9.801305359572426,0.047150877806901546
8.332107999999998,9.673656278169812,0.04709515471973064
8.336203999999999,9.544434212817045,0.04702790320972786
8.340304,9.418690290064388,0.046963597689837294
8.3444,9.284317790936953,0.04692140027514433
8.348492,9.146245699409535,0.046882490565034934
8.352588,9.005936274532354,0.04686025336652754
8.356687999999998,8.86976934165489,0.04681462967228166
8.360775999999998,8.72643609145287,0.04680533421358051
8.364875999999999,8.578284582175984,0.04681154044461818
8.368967999999999,8.42710924757426,0.04683406120093307
8.373072,8.275036696097521,0.04685522625966199
8.377167999999998,8.12509075307061,0.0468599599123056
8.381267999999999,7.969429334093827,0.046882073555270264
8.385355999999998,7.807265947192089,0.04691594061009677
8.389351999999999,7.638489867465465,0.04696910680401409
8.393396,7.467919353988817,0.04702368189002305
8.397423999999997,7.296562348537091,0.047075204125820815
8.40146,7.11948986713549,0.04714525904597064
8.405444,6.944433269283782,0.04720444655104011
8.409492,6.760969544857164,0.04729124786417933
8.413539999999998,6.580308195955516,0.04737565110504587
8.417528,6.392591254629241,0.047515150258230596
8.421579999999999,6.201396170702853,0.0476496082463749
8.425624,6.017256679201092,0.04773343029004149
8.429715999999999,5.834911621449356,0.04782000150528776
8.433807999999999,5.650772129947597,0.047915191968379796
8.437899999999999,5.464727479795878,0.048014233713620215
8.441931999999998,5.281817379868933,0.048088759093200484
8.446023999999998,5.10585214746668,0.04810743688544572
8.450067999999998,4.933807957264279,0.048102871465461855
8.454063999999999,4.760755825286933,0.048104838425815824
8.458144,4.581201725384632,0.04812028707575573
8.462187999999998,4.408260318307221,0.04810912751700498
8.46622,4.240812937379815,0.04809083988276597
8.470251999999999,4.077175873752325,0.04805798689528192
8.474332,3.9145467518997816,0.04800751092216408
8.478379999999998,3.7518069051473044,0.04797283215599472
8.482364,3.5927666507948084,0.047929239896430165
8.486448,3.432607729767432,0.047913288809524564
8.490427999999998,3.2841012104396765,0.04776485893601032
8.494464,3.1327923155869497,0.04762878693853834
