Time,Force,Position
7.411415999999999,0.12613819393926173,0.0
7.415459999999999,0.13914729077016708,0.0
7.419551999999999,0.15215638760107245,0.0
7.423643999999999,0.1611171386756578,0.0
7.42774,0.16716478932533796,0.0
7.431835999999999,0.17029933955011295,0.0
7.435931999999999,0.17365533957475765,0.0
7.440028,0.1781300062742839,0.0
7.444124,0.18058878942391682,0.0
7.448224,0.1803559219485142,0.0
7.452316,0.1766449118729992,0.0
7.456412,0.17102874314752564,0.0
7.460452,0.16496967482231262,0.0
7.464547999999999,0.1599185482720463,0.0
7.468643999999999,0.15587536349672665,0.0
7.47274,0.1500377449713834,0.0
7.476836,0.14667032727120582,0.0
7.480891999999999,0.1413977509210698,0.0
7.484987999999999,0.13220413237108183,0.0
7.489011999999999,0.12211329694608203,0.0
7.493107999999999,0.10899863619624214,0.0
7.497192,0.09644901762160946,0.0
7.501279999999999,0.08343992079070411,0.0
7.505319999999999,0.07345464928463884,0.0
7.50942,0.06436659465358538,0.0
7.513451999999999,0.056175756897543755,0.0
7.517536,0.047874194241567254,0.0
7.521568,0.038564689810644065,0.0
7.525544,0.031271068929614274,0.0
7.529627999999999,0.026779823573554812,0.0
7.533664,0.0230750701925723,0.0
7.537652,0.02127547546154831,0.0
7.541748,0.018689388755447366,0.0
7.545779999999999,0.01610330204934642,0.0
7.549816,0.013517215343245473,0.0
7.5539,0.011828345512156353,0.0
7.557983999999999,0.008455766830978458,0.0
7.562023999999999,0.0050831881498005615,0.0
7.566112,0.0026078263436344886,0.0
7.570207999999999,0.0010296814124802385,0.0
7.574299999999999,0.00045947825627268366,0.0
7.578396,0.0,0.0
7.582488,0.0,0.0
7.586584,0.0,0.0
7.590679999999999,0.0,0.0
7.59468,0.0,0.0
7.598775999999999,0.0,0.0
7.602867999999999,0.000238028456402941,0.0
7.606899999999999,0.00023802845640294099,0.0
7.610951999999999,0.00023802845640294099,0.0
7.615043999999999,0.000238028456402941,0.0
7.619016,0.0008082316126104957,0.0
7.623099999999999,0.0022756516438298736,0.0
7.627075999999999,0.0029565796999723,0.0
7.631119999999999,0.0029565796999723,0.0
7.635159999999999,0.0029565796999723,0.0
7.639191999999999,0.0029565796999723,0.0
7.643231999999999,0.0029565796999723,0.0
7.647319999999999,0.0029565796999723,0.0
7.651411999999999,0.0029565796999723,0.0
7.655412,0.003416057956244984,0.0
7.659443999999999,0.0034160579562449835,0.0
7.66348,0.0034160579562449835,0.0
7.667527999999999,0.003665504088180777,0.0
7.671612,0.006850885996087486,0.0
7.675656,0.01175422978068152,0.0
7.679691999999999,0.02679407969240677,0.0
7.683724,0.0583565177752805,0.0
7.687759999999999,0.10603180174262963,0.009019407438658372
7.691851999999999,0.16588231073806906,0.018191875421235255
7.695888,0.24452073758648613,0.026805455183921745
7.699968,0.3371122445564839,0.03530246848926037
7.703996,0.44197828377897413,0.04371414271125456
7.708031999999999,0.5619212307789271,0.0519696930558586
7.712107999999999,0.6980649132122245,0.060004781009684996
7.716156,0.8479339692727004,0.06793045062736833
7.720184,1.0091803407106568,0.07590852115723028
7.724223999999999,1.1871873287761647,0.08376062136195021
7.728323999999999,1.3806148169944725,0.0915882500187552
7.732419999999999,1.5865497049406756,0.09949209114545804
7.736464,1.8094614983332993,0.10730270308177679
7.740439999999999,2.046791011084778,0.11510374027230458
7.744439999999999,2.2994188814135885,0.12283491549342455
7.748519999999999,2.562598161137204,0.13053262147104114
7.752556,2.830607117611216,0.13822111458156922
7.756648,3.1058816986341933,0.14579716755879857
7.760688,3.375395133005164,0.15330013618452493
7.764671999999999,3.626009924623222,0.16080574572636647
7.76876,3.8590547722875854,0.15925724877558897
7.772855999999999,4.078118543498302,0.15752994740991336
7.776892,4.277596487205432,0.15630971711810182
7.780987999999999,4.458729412659324,0.15523136873760743
7.785031999999999,4.626125546810504,0.1542263182321993
7.789116,4.780460656734114,0.15333240414352317
7.793212,4.919608133980327,0.15263054132996032
7.797312,5.047046121149255,0.1519870953117052
7.801344,5.16265247566543,0.15126967934370986
7.805439999999999,5.259470912328627,0.1506696167133028
7.809528,5.339960214288481,0.15005032505390237
7.813571999999999,5.40972513259493,0.1492638647033744
7.817663999999999,5.458010482423366,0.1486113074754195
7.821759999999999,5.495693591173864,0.1478649164692034
7.825799999999999,5.518631966846704,0.1471416995986701
7.829876,5.531998878567619,0.1464090336988622
7.833928,5.540734727986943,0.14560461583993645
7.837971999999999,5.542613599430442,0.1448566498006352
7.842067999999999,5.5392198945238045,0.14419604598625113
7.8461,5.538074940642464,0.143523736618134
7.850152,5.538846563086615,0.14286801842221583
7.854232,5.542542703631203,0.14220585844404396
7.858279999999999,5.544566553001236,0.14161991646490837
7.862368,5.553435962671559,0.1409393541559158
7.866467999999999,5.561973197642077,0.14028476889544259
7.8705,5.567486607287754,0.13970331025640007
7.874551999999999,5.573565059108638,0.1391361482882848
7.878655999999999,5.575611743829737,0.1386665229622291
7.882707999999999,5.5828202800010365,0.13813012320957618
7.886811999999999,5.594747768022797,0.13756131696288953
7.890903999999999,5.607694615495038,0.13702738482293664
7.89494,5.6198663886677345,0.13656215074739175
7.899027999999999,5.634397637765662,0.13607435831233106
7.903063999999999,5.640976077563951,0.13576772668116796
7.907147999999999,5.64599295108762,0.13553088364994015
7.911232,5.647764549486577,0.13538366193789286
7.915315999999999,5.647188089635836,0.13531218495966305
7.919371999999999,5.64347707956032,0.13532021661408286
7.923404,5.643576386784722,0.13525294994235348
7.927496,5.645470127759149,0.1351577523844808
7.931531999999999,5.645458710083616,0.13509959540530658
7.935568,5.645668742207953,0.135023729267495
7.9396,5.647451758282442,0.13493731656465152
7.94368,5.645645906856886,0.13490709290111147
7.947759999999999,5.645966663881158,0.1348222002717664
7.951788,5.6490897964304,0.13468660051612813
7.955828,5.653220870754588,0.13452929343373962
7.95992,5.663399595728456,0.13423784351482976
7.964003999999999,5.667973569652385,0.13404769102390518
7.968052,5.668282909001125,0.13390716719944007
7.972135999999999,5.668481523449928,0.1337754698451495
7.976224,5.666996429048644,0.13366158017903518
7.9803,5.670329593722222,0.13345591284484032
7.984384,5.682180609870647,0.133096579532071
7.988464,5.696158234468899,0.13268488535148418
7.992543999999999,5.718088668366793,0.13211319641881028
7.996627999999999,5.738556843214465,0.1315418080854754
8.000708,5.759246467862008,0.13095025941774588
8.004783999999999,5.777355166784449,0.13039484451439212
8.00882,5.793890881756737,0.1298515936131728
8.012848,5.8161420726789,0.1292113920474302
8.016931999999999,5.835369438276224,0.1286352656509326
8.020972,5.856723412323376,0.1280096690927559
8.025,5.880547587195692,0.1273671051588114
8.029084,5.904261037168074,0.12673831675858882
8.033172,5.926290778290368,0.1261268108405982
8.037272,5.943047943062525,0.1255785345216271
8.04136,5.955994790534765,0.12510158026660417
8.045396,5.968376595831797,0.12460914185869465
8.049479999999999,5.983671501553735,0.1240645980809588
8.053568,5.998512090000401,0.12349834262466924
8.057652,6.012455461572054,0.12294184196753827
8.061691999999999,6.0244936744937485,0.1224237931223239
8.065788,6.033840236790407,0.12194673361605944
8.069884,6.041392365337044,0.12149330379571902
8.073976,6.038632208658812,0.12119847160171185
8.078076,6.037777210630537,0.12087316856075202
8.082151999999999,6.039048821052091,0.12050126957225918
8.086243999999999,6.038304547923752,0.1201672235971368
8.090332,6.039465433445369,0.11980445518847334
8.09442,6.033005684367154,0.1195616963503097
8.098455999999999,6.030356252588856,0.11925918573646876
8.102556,6.027596095910624,0.11896569608255521
8.106532,6.020239129957397,0.1187334520903277
8.110619999999999,6.013890105779117,0.11848296909376727
8.114708,6.010232732225873,0.11820125167356023
8.118748,6.012966601697646,0.11783825175244572
8.122776,6.012787370744514,0.11752130885996544
8.126852,6.01597555749156,0.11717902192318663
8.130944,6.016815685988907,0.11689812688632226
8.135024,6.0191180735364735,0.11662105181305145
8.139116,6.0240013868091395,0.11632089886618674
8.143203999999999,6.027766033406926,0.11604802662954755
8.147292,6.032649346679594,0.11575138554143959
8.15138,6.039327093702283,0.11543526606150312
8.155408,6.055198459274962,0.11500448720141754
8.1595,6.070061883072693,0.11459378306746162
8.163596,6.08671974062045,0.1141692468525234
8.167676,6.106290698593111,0.11370043653120634
8.171719999999999,6.122948556140866,0.11327876987064525
8.175748,6.146329831413444,0.11275962654760059
8.179832,6.170608323561034,0.11223899346370261
8.18386,6.194886815708622,0.11172214152552223
8.18784,6.222975625156128,0.11115146998172924
8.191927999999999,6.2463569004287045,0.11064286347103355
8.195976,6.267157249976182,0.11015681984189064
8.200064,6.2850444990987535,0.10971729520653294
8.204096,6.309765890846082,0.10917982831258752
8.208188,6.333922240418204,0.10863365715067325
8.212284,6.359418706465077,0.10804803090604956
8.216372,6.385247347211755,0.10744413930690139
8.220428,6.40950300400828,0.10684403288806897
8.224459999999999,6.433980110604675,0.10623043729489091
8.228496,6.451290899876505,0.1057346062896115
8.232531999999999,6.468712414048274,0.10523458565634514
8.236564,6.480639902070034,0.10479698731680678
8.240608,6.493464606966805,0.10435279105842822
8.24464,6.502368269663725,0.1039658977050723
8.24872,6.511271932360644,0.10358131068654086
8.252704,6.52096208703264,0.10319595448404743
8.256732,6.527849866179666,0.10284457403020122
8.26076,6.529132894276753,0.10255498290715591
8.264808,6.528621488623814,0.10228109847479852
8.268896,6.528442257670681,0.10198652777859632
8.27298,6.533978502667425,0.10162520825723503
8.277064,6.541198456514256,0.10125671283128068
8.281151999999999,6.550655743710851,0.10084672452905868
8.28524,6.555184046932646,0.10050463259893987
8.289323999999999,6.5567992497295355,0.10019856618574643
8.293412,6.559533119201308,0.09987218225397362
8.297456,6.558235221573294,0.0996020272299745
8.301544,6.561644858120206,0.09928427291744163
8.305636,6.562030669342279,0.09900758256226964
8.309728,6.570812189463733,0.09859658049762884
8.31382,6.576791334060214,0.09821366680133517
8.317916,6.585683579081603,0.09779739126718577
8.322008,6.590876231703009,0.09741483145082493
8.3261,6.5962903341242844,0.09701741368942815
8.330195999999999,6.600696494770615,0.09663507058049974
8.334287999999999,6.603640396366724,0.09624443741537732
8.338376,6.604679139312878,0.0958737372775664
8.342464,6.608630982683933,0.095467285429216
8.346447999999999,6.613701492729872,0.09503997521303592
8.350536,6.616645394325982,0.09464810320155223
8.354619999999999,6.614992486647097,0.09429722274706592
8.358664,6.612663811893071,0.09393942560154407
8.36276,6.607311311814205,0.0936224381377813
8.366856,6.602180261535208,0.09329062895134795
8.370951999999999,6.600748803656195,0.092926635509101
8.375048,6.596182795552406,0.0926092114554541
8.379147999999999,6.593964845698315,0.09224252913665781
8.383239999999999,6.5851342030193365,0.0919408105998118
8.387343999999999,6.579548835465069,0.09158423366430764
8.39144,6.566797150586239,0.09132607242229888
8.395532,6.553258973732331,0.09106531746878589
8.399628,6.536918421353452,0.09082921326891114
8.40372,6.523712419199349,0.09054548978172738
8.407767999999999,6.511514358820193,0.0902478251842132
8.411859999999999,6.497521864691015,0.08996112712268352
8.415844,6.485102354511989,0.08967557771867486
8.419924,6.476493161632881,0.08935199457438148
8.424007999999999,6.468105418553641,0.08901403769545489
8.428096,6.461622834124362,0.08865829614326062
8.432148,6.457266858144909,0.08827043061348168
8.436176,6.453697374140533,0.0878825994377406
8.440223999999999,6.4471040648113185,0.08753109830780494
8.444308,6.436811163082122,0.08720648828597141
8.448343999999999,6.4274154782279345,0.08687560941460619
8.452392,6.415328142748713,0.08656127862132919
8.45642,6.408059066344355,0.0861987677233609
8.460448,6.403260190765163,0.0858345930530791
8.464532,6.402050182686019,0.0854482946855053
8.468572,6.3986028412571105,0.08509984535821837
8.472667999999999,6.403784076202985,0.08467011364596239
8.476756,6.415245829273941,0.08420573875444111
8.480844,6.424580973895069,0.08377038907785932
8.484928,6.434481160691405,0.08335277247937858
8.488972,6.442144014137977,0.0829726346866062
8.49306,6.454514401759478,0.08255505902386677
8.497152,6.465987572505966,0.08214260156208268
8.50124,6.474658367727485,0.0817537377196544
8.505332,6.4819890464742524,0.08139776841295546
8.509428,6.487979608746269,0.0810765139312163
8.513463999999999,6.494424488293555,0.08078013793853273
8.517548,6.501766584715855,0.08047918454814997
8.521632,6.515832098862979,0.08012048341366987
8.52572,6.538415464484947,0.07969467070433967
8.529812,6.561785322081992,0.07927347405277842
8.533904,6.5878468303040725,0.07884173437113327
8.537988,6.608082137676344,0.07846444230916631
8.542076,6.627420228173602,0.07809491967507252
8.546168,6.6440666680458245,0.07773840494045134
8.550256,6.665531366992911,0.07734279901447813
8.554344,6.6830750237401455,0.07698903232386169
8.55844,6.696021871212386,0.07666433174643929
8.562536,6.711992544009467,0.07630705514746786
8.56662,6.727065999931536,0.07595508781714759
8.570712,6.7470684398284035,0.07555903524375605
8.5748,6.76146612867533,0.07520032576834884
8.578892,6.780571351697186,0.07481297376562343
8.58298,6.802257500444143,0.07442304222390671
8.587019999999999,6.827864691390951,0.07400195019339376
8.591116,6.850890956612658,0.07358533630271137
8.595212,6.870439079234254,0.07317725707661721
8.599307999999999,6.887971318305954,0.07278842665870447
8.603399999999999,6.899566631627912,0.07245494070272572
8.607496,6.906343685875005,0.07216008004884991
8.611596,6.913342189921968,0.07185396746356577
8.615692,6.914735942918989,0.07157978229808745
8.619784,6.920050738115864,0.07127284921532541
8.623828,6.925254808412803,0.07097362841040464
8.627912,6.936063629759683,0.07064437133741892
8.632004,6.94485656755667,0.07033658916848802
8.636096,6.950847129828685,0.07004412162421184
8.640132,6.958742850750659,0.06973991538857645
8.644212,6.965630629897687,0.06944510974588987
8.648296,6.973526350819661,0.06914210069865177
8.652339999999999,6.978619696216665,0.06885584638965003
8.656424,6.987412634013651,0.06855189890198284
8.660508,6.989703603885685,0.06828063366798726
8.664544,6.9891921982327485,0.0680241739803743
8.668524,6.983641083705079,0.06781231620385034
8.672571999999999,6.978876461152485,0.0676032119886644
8.676663999999999,6.97489833057497,0.06739690294549598
8.680691999999999,6.975959908872187,0.06714684591978555
8.684716,6.980942529369256,0.0668680489204892
8.688752,6.988727525391295,0.06657629794698922
8.69284,6.9934886960884945,0.06631073581492795
8.696868,7.003743892935698,0.06602361582625846
8.70092,7.01388836488297,0.06574414508856509
8.705012,7.0232463448551625,0.06546197241723765
8.7091,7.02991267420232,0.06518960972610935
8.713187999999999,7.0366897284494145,0.0649124144384862
8.717236,7.044474724471454,0.06462609569261175
8.721324,7.052259720493494,0.06434121645690066
8.725356,7.063855033815449,0.0640372549572586
8.729391999999999,7.076458288912352,0.0637275115326433
8.733372,7.086037718684415,0.06344108837304913
8.737464,7.095506423556544,0.06316204276528563
8.741448,7.109461212803731,0.06287330451674256
8.745479999999999,7.1263291024758235,0.06256787928867175
8.749512,7.145545050397614,0.062228409588529286
8.75354,7.166887606769233,0.06186830885893227
8.757628,7.191143263565757,0.06149215796128115
8.761712,7.213383036812388,0.061135567139741
8.765751999999999,7.232033942558973,0.06078730088522763
8.769836,7.247882472780585,0.06045145825475714
8.773868,7.266754828327039,0.06009347721244731
8.777948,7.28304625814839,0.05973596914782338
8.782028,7.296756762244642,0.05937775599933101
8.786112,7.306435499241108,0.059047785324604196
8.790187999999999,7.312193194037722,0.05874139285678393
8.794167999999999,7.313243354659406,0.058453527651617154
8.798204,7.317206615705996,0.058150202519303335
8.802296,7.319264718102628,0.05785598561440223
8.806388,7.319528386749235,0.057566417267974734
8.810424,7.316768230071003,0.05729878995099523
8.814504,7.318039840492558,0.057002176391644885
8.818596,7.31863568383897,0.05669587619628706
8.822683999999999,7.3156426596853334,0.05639457303500783
8.826768,7.309060768031651,0.05609800280895277
8.830855999999999,7.300462992828075,0.05581448404448535
8.83494,7.291754492724563,0.05553723031379145
8.838932,7.280465066895951,0.055257363132919374
8.84302,7.267270482417382,0.054984923821232316
8.847116,7.258561982313871,0.054707850954268424
8.851148,7.251426466160514,0.054440355110478844
8.85524,7.244180225107224,0.05417908217691012
8.859292,7.239736359578902,0.053909927986491454
8.86332,7.238094869575551,0.05363255900172769
8.867403999999999,7.240485146671987,0.05332811488124754
8.871492,7.245677799293394,0.053014806739857485
8.87558,7.2583803616147,0.05267914831202529
8.879608,7.266264664861141,0.052364310533860293
8.883692,7.275156909882528,0.05204328388558178
8.88772,7.279009446029184,0.051753091771552365
8.8917,7.283083431975708,0.05145103079001912
8.895728,7.286038751247351,0.051161770601004186
8.899811999999999,7.288772620719124,0.05088430028280553
8.903839999999999,7.291506490190897,0.05060570587307412
8.907919999999999,7.291105809437894,0.050349269300457654
8.911996,7.292610287334851,0.05008572651524605
8.91608,7.289517955956813,0.04982926406465853
8.920116,7.286204174778907,0.049583817749078614
8.924147999999999,7.283898335375946,0.04933201228235964
8.928244,7.274979803148099,0.04909942655987143
8.932296,7.263591070095087,0.04885575900686337
8.936271999999999,7.248281294842222,0.048629765707471045
8.940324,7.227145318739546,0.04842747084462587
8.94436,7.200969633762136,0.048254178444417546
8.948395999999999,7.175801890559675,0.04807382262374546
8.952492,7.1496262055822655,0.04789865439715004
8.956468,7.113924727355063,0.04775271825129247
8.960571999999999,7.078223249127862,0.04760514865700672
8.964552,7.041292379325844,0.047474253771836776
8.968639999999999,7.007385334848665,0.04732432347982308
8.972672,6.971240957021725,0.04719693689550391
8.97672,6.928373161469962,0.04709277342846478
8.980768,6.8814735988184115,0.04701242993787408
8.984808,6.836368469916885,0.046930217506489645
8.988888,6.793279224565252,0.046834889352091555
8.992924,6.748063370763791,0.04675653025389215
8.996967999999999,6.705206992887561,0.04669569286260686
9.001012,6.659216064786554,0.04665923033262603
9.005116,6.608185427810814,0.04665329420234637
9.009216,6.558162732610023,0.04664051889134712
9.013316,6.505226936984324,0.046639292179055054
9.017356,6.451393924483615,0.04663801972620409
9.021444,6.398347403957983,0.04664377419130428
9.025548,6.349221925632202,0.0466295332773312
9.029644,6.29293012998186,0.046667631741948545
9.033744,6.232828017031601,0.0467192954582909
9.03784,6.176646946281193,0.04675081998799112
9.041896,6.120355150630851,0.046788752024031856
9.04594,6.057561387055556,0.04684214227759235
9.049988,5.989838639505462,0.04692394256950021
9.054096,5.922448066655173,0.04698456462871072
9.058148,5.86077296975476,0.04702544992649416
9.062248,5.796627672029181,0.04705413484699958
