Time,Force,Position
11.319956,8.042018042405491,0.051949809826916195
11.324051999999998,8.047287166900233,0.0515371315488381
11.328148000000002,8.047172990144905,0.05112632794257052
11.332244,8.044256437864606,0.05071921292824095
11.336336,8.039213277134477,0.05032800672731057
11.340372,8.026328032004647,0.049969811653289196
11.344412000000002,8.010308236650044,0.04963078339593069
11.348443999999995,7.989802356920379,0.04929109642702925
11.352476,7.967169868740885,0.04896648328603633
11.356508000000002,7.938932629511451,0.04865143515339193
11.360587999999996,7.903529072957456,0.04837771162880331
11.364672000000002,7.862742215153389,0.04810248558544372
11.3687,7.823074024024204,0.04781411212723524
11.372736,7.780714182269985,0.047523221349560926
11.376724,7.734654748115781,0.04723546928497254
11.380812000000002,7.685682213536673,0.046955844304484275
11.38484,7.62516800215788,0.04671094745967429
11.388924,7.556811706379382,0.04649587119279325
11.392948,7.48532086037611,0.046299877298602014
11.397035999999996,7.406774421948209,0.04614066221612992
11.401124,7.318923640070387,0.04599466295151339
11.405168,7.227827583067855,0.045874072108097214
11.409263999999997,7.1379723353156725,0.045779523668380284
11.413352,7.048792854638631,0.045694266527374315
11.417447999999997,6.954008622911649,0.045617518526167015
11.421539999999997,6.856422015659696,0.0455456132134934
11.425588,6.7565980750579815,0.04549900142255091
11.42968,6.651967293056937,0.04552654445408343
11.433756,6.543869786131312,0.045603066822226555
11.437791999999998,6.437578130631243,0.04573999838406967
11.441875999999995,6.332760151856926,0.04596486943790482
11.445916,6.228075733333609,0.04630517649429338
11.450011999999996,6.114674848886643,0.04682191961166954
11.4541,6.00039958291573,0.04748008241886571
11.458195999999996,5.882680427371303,0.04834109357796091
11.462295999999998,5.769138016853198,0.04936061822361496
11.466387999999998,5.663250493961523,0.05055884136804288
11.470423999999998,5.569725392871212,0.05190591631837415
11.474512,5.477807528757653,0.05348594713701201
11.478604,5.397022694870638,0.05522907211208243
11.482696,5.329176742635725,0.057180855804091484
11.486788,5.2677677041279605,0.059375267209095764
11.49088,5.212463404647542,0.06181875698879916
11.494911999999996,5.166631261894644,0.06449354278245042
11.498952,5.132741476694434,0.06741778962799558
11.503035999999998,5.120774159571978,0.07047689122215935
11.507124,5.126243226152213,0.0736880678496437
11.511208,5.158109427509729,0.07690956090849349
11.515288000000002,5.204609637044966,0.08027408342277326
11.519372,5.267759738307821,0.08371572649530375
11.523452000000002,5.348899847773045,0.087181915885258
11.527536,5.449492224490854,0.09066190846908315
11.531615999999996,5.575363069311061,0.09408434286486261
11.535707999999996,5.725172265758914,0.09744975964253041
11.539792000000002,5.897457554784195,0.10073033834659235
11.543871999999997,6.086282010637157,0.10396059673849649
11.547955999999996,6.295123775917914,0.10709965589486645
11.552040000000002,6.522077691976507,0.11014678960110501
11.556116,6.774542943612899,0.1130194915311221
11.560199999999998,7.045796113102271,0.11578225249364407
11.564283999999995,7.335604332969218,0.11839027048702482
11.568375999999995,7.648110095213461,0.12078155318490943
11.572464,7.981507548409445,0.122931629620779
11.576548,8.330745566006902,0.124875593472872
11.580631999999998,8.701761073755577,0.1265503471782469
11.584684,9.078625617705132,0.12810701453846426
11.588759999999995,9.464473748080335,0.12950443791834101
11.592792,9.850333296131073,0.1308523680446571
11.596776000000002,10.242584087206827,0.1320377758700349
11.600875999999996,10.637072211632344,0.13310447764393524
11.604967999999996,11.030098077007644,0.13409192102894585
11.608996,11.418282847957013,0.13499524793936962
11.613035999999996,11.80251232367993,0.13579998267210933
11.617132000000002,12.180427028251167,0.1365216263140956
11.621224000000002,12.553809977745214,0.13712351508245527
11.625323999999996,12.916147786561586,0.137631989278447
11.629412,13.265856053074591,0.13803832201075095
11.633504,13.601018200958743,0.1383473408056301
11.637595999999998,13.917136728163449,0.1385734367277798
11.641691999999995,14.210733492088595,0.13873299300422845
11.64574,14.482362117233858,0.13881998961334482
11.64984,14.728998778274397,0.13886825760162738
11.653940000000002,14.95210573426043,0.13888386967655902
11.658039999999996,15.152923794442309,0.13887077142149828
11.662071999999998,15.32326728204499,0.1388886605599666
11.666107999999998,15.472673407993799,0.13888240940646562
11.670199999999998,15.602371563863551,0.13883992180401372
11.674288,15.712594617129655,0.13877481946132178
11.678375999999997,15.808615144142241,0.1386608082567256
11.682467999999997,15.885393436026574,0.13853997213796032
11.686516,15.949874360307351,0.1383565667707467
11.690547999999996,16.005093159984945,0.13810742372522222
11.694647999999995,16.045456501684942,0.13785237492873575
11.698736,16.071075110307284,0.1375875946779619
11.702823999999996,16.0848735039524,0.13731240719420837
11.706855999999998,16.091792084270637,0.13700739534286474
11.710852,16.089372068112347,0.13670165675599985
11.714932,16.07672765627806,0.13642014801987118
11.719008,16.057115541568013,0.1361517233430479
11.723088,16.036140475032152,0.13585954622728036
11.727116,16.01190871569605,0.13557718537577002
11.731196,15.988562755559421,0.13526875738135716
11.73528,15.961849377722618,0.134972925555844
11.739307999999998,15.936919015960305,0.1346462190273581
11.743348,15.917704130147865,0.13427979258311068
11.747427999999996,15.899718635910242,0.13389834184163604
11.751512000000002,15.883084675822905,0.13351973874184275
11.75554,15.869363816160472,0.13311964912873517
11.759592,15.852619131173197,0.13274338389800233
11.763684,15.842044239411072,0.13233598177383238
11.767776,15.830583548449468,0.13195366494577546
11.771855999999996,15.818015608488516,0.13160306331845933
11.775944,15.807364244853053,0.13125985054605355
11.780019999999997,15.801321108168118,0.13091003704817314
11.784103999999996,15.797305272708611,0.13056541470130642
11.788188000000002,15.793411579824568,0.13023785573581642
11.792227999999998,15.793339621915978,0.12990551496629002
11.796324000000002,15.799216007432666,0.1295496750103225
11.800416000000002,15.807230419074713,0.12919509489154182
11.804508000000002,15.81626419016724,0.12885305977268585
11.808595999999998,15.82787888698487,0.12850022778136422
11.812684,15.837599842828075,0.12818051057153648
11.816771999999997,15.852482650121479,0.12783963225394213
11.820863999999997,15.864795949365316,0.1275303740951088
11.824947999999996,15.874085423284312,0.127244664243213
11.829032000000002,15.883374897203305,0.12695911594783812
11.833119999999996,15.8900834453972,0.12668423036376855
11.837203999999996,15.895562602016282,0.12642353726178754
11.841292,15.903057642185255,0.12614759799184377
11.845380000000002,15.909201148203943,0.12586884686058544
11.849467999999998,15.919930045822094,0.12554515736807437
11.853556,15.928742367114753,0.12521263013782655
11.857651999999998,15.93474089520691,0.12487538267386342
11.861695999999998,15.93490180477372,0.12455612284074481
11.865787999999998,15.92990086289033,0.12425673662355455
11.869876,15.92365911175659,0.12394991796795406
11.873963999999996,15.918081710022463,0.12362480471939677
11.87806,15.911374223937917,0.12329011703511311
11.882147999999995,15.906006854328126,0.12293871052374408
11.886244,15.903208992767901,0.12255734554109239
11.890275999999997,15.900632581007546,0.12217012931349784
11.894311999999996,15.899728460421743,0.1217567151081564
11.898396000000002,15.897362080785728,0.12134320581572364
11.902488000000002,15.897343759399407,0.12090588472446885
11.906575999999998,15.89934132156298,0.12045404148437178
11.910664,15.902568275301373,0.119989221870166
11.914756,15.905119461964619,0.11952151169587712
11.918843999999996,15.908900040202683,0.1190407274876384
11.922928000000002,15.913910010015565,0.11854768872258649
11.927012,15.916006879403538,0.11807262382361919
11.931099999999995,15.911834648341964,0.11764644474841639
11.935191999999995,15.913832210505536,0.11719639492312445
11.93928,15.91987295744443,0.11673867685876538
11.943367999999996,15.933767206458558,0.11625231616663245
11.947464,15.953044756722761,0.11574290094502505
11.951551999999996,15.975800449587071,0.11522149800007306
11.955636000000002,15.995532317126544,0.1147217106713357
11.959735999999996,16.015607777041357,0.11423482611174439
11.963764,16.036359004031308,0.11375168675296583
11.967848,16.057675273196466,0.1132761810846491
11.971932,16.078770092561758,0.11280783500530911
11.976012,16.09953273722724,0.11234907833933505
11.980091999999996,16.1181687734429,0.11190701908319949
11.984171999999996,16.13669408475862,0.11146905057804778
11.988252,16.1545436289992,0.11102943223311487
11.992332,16.17273676561512,0.11060237775470054
11.996312,16.19440804483115,0.1101646018866893
12.000404,16.215857874247305,0.10973373703491246
12.004484,16.23686480406373,0.10931636688198583
12.00856,16.26235781825521,0.10888248072913329
12.012635999999995,16.29008816579645,0.1084296462044
12.016719999999996,16.310530053437663,0.10800818447821975
12.020811999999996,16.33275495715337,0.10756187584134616
12.024896000000002,16.34914224234373,0.10712851321472443
12.028972,16.358351792533995,0.10672134564630072
12.033052,16.36789351742407,0.10630665464742532
12.037131999999996,16.377324517414205,0.1058944842704446
12.041216000000002,16.381482941054205,0.10549847885316532
12.045303999999998,16.383060438969107,0.10510951247309482
12.049392,16.38082761958409,0.10473956976152998
12.053484,16.37601387447397,0.10437597000630892
12.057576,16.37400250488882,0.10400045183417732
12.061663999999997,16.373220526878494,0.1036128068184027
12.065752,16.370644115118136,0.10323135676898758
12.069836,16.366051819807886,0.10286142179694491
12.073924000000002,16.357305614822387,0.10249781155244374
12.077955999999997,16.35147251026179,0.10212038544112302
12.082047999999997,16.345185088425914,0.10173448155222027
12.086147999999998,16.33743540753983,0.10134613418923429
12.090248,16.328112742703585,0.10095854397100294
12.09434,16.320805961417232,0.10055957904742477
12.098432,16.31921465608076,0.10013451550691771
12.102527999999996,16.31146497519467,0.09974665769276213
12.106624,16.304169611583855,0.09936658415864849
12.110719999999995,16.30528137454795,0.09895208145077365
12.114819999999998,16.306171687712176,0.09854426415593856
12.118911999999998,16.31008582620124,0.09811981292443125
12.123,16.32139914949027,0.09766774490392577
12.127092,16.33540412340433,0.09720801959716217
12.131184,16.349630547118263,0.09674229585222222
12.135279999999998,16.36733511343231,0.09626889322483545
12.139368,16.383134521096398,0.09580516069891379
12.143455999999995,16.400617637610576,0.09533996040674148
12.147552,16.41967373807491,0.09487544673578484
12.151647999999998,16.440524272289263,0.09440547537301613
12.155731999999997,16.464066457128656,0.09392734510810773
12.15982,16.481438848742894,0.09346600152395304
12.163907999999996,16.497471123882388,0.09301857904862308
12.167999999999996,16.511598240371917,0.09257891379337638
12.172084000000002,16.52460669018657,0.09214795775350612
12.176168,16.532575431126485,0.09174342643829489
12.180252,16.53382075434158,0.09136726966979652
12.184344,16.542686712156506,0.09096091629248058
12.188376000000002,16.55468722019621,0.09053660619971995
12.192468000000002,16.56377462781101,0.09012659360877527
12.196507999999998,16.569383892825698,0.08972343774948391
12.200599999999998,16.57219078231541,0.08933040524207889
12.204648000000002,16.56580405325514,0.0889655517503886
12.208727999999995,16.557733615344777,0.0886027043091637
12.212776000000002,16.551568336084376,0.08823240726397512
12.21686,16.54080624754898,0.08787565019381138
12.220944,16.525668799538458,0.08752640920543671
12.22498,16.506831759127955,0.0871883590018816
12.229072,16.488437618317192,0.08683912390985744
12.233119999999996,16.47306730283127,0.08647524778861984
12.23716,16.45971287089524,0.0861016330623183
12.241184,16.446702031334546,0.08573877365787463
12.245268,16.43794440867351,0.08535122716974504
12.249343999999995,16.43445936236261,0.08495430438460853
12.253396,16.433100924501538,0.0845455021411196
12.257488,16.440481787915186,0.084103032141114
12.261571999999996,16.45436461925378,0.08364108904808899
12.265675999999996,16.464326408392527,0.08319703262472199
12.26978,16.471153647306494,0.08277004616996746
12.273875999999998,16.476972944445517,0.0823480154103113
12.277903999999996,16.487167601059667,0.08191971615951546
12.281988000000002,16.501959066948807,0.08148049863814105
12.286016,16.52863580201297,0.08101276052230076
12.290048000000002,16.556099029052213,0.08054687847044813
12.294132,16.585356689841483,0.08007935672520704
12.298219999999995,16.621337768355566,0.07958985658822337
12.302316,16.66471803166962,0.07908219586763494
12.306403999999995,16.71471098780856,0.07855667342504537
12.310495999999995,16.76537971102264,0.0780371597238201
12.314584,16.816724201311864,0.07752496229184037
12.318671999999996,16.868855183576166,0.0770169070039347
12.32276,16.926247324515067,0.07648484540321766
12.326848000000002,16.981291407204274,0.0759719586933972
12.330879999999995,17.033865289068313,0.07546127419980629
12.334976,17.0874471127073,0.07494983298928533
12.339071999999998,17.135424185296344,0.074455776056133
12.343168000000002,17.183844157485133,0.07395472224282332
12.347264,17.234612187923613,0.07344069925206843
12.351359999999996,17.292435810786724,0.07290233749590201
12.355456,17.355299142524565,0.07234789203069032
12.359551999999995,17.415692273437244,0.071794915114549
12.363587999999996,17.475520362174716,0.07123987746094622
12.367672000000002,17.530186599461985,0.07069159439870937
12.371708000000002,17.58608222832407,0.07013708680998337
12.375792,17.639396931461054,0.06958610818821417
12.379828,17.693043809297844,0.06903212867329793
12.383864,17.743101819634585,0.06848539760045415
12.387896,17.7858713700713,0.06795172844820938
12.391935999999998,17.829981036982762,0.06740996519887608
12.396067999999996,17.87284989464388,0.06686124309121738
12.400108,17.915940202104856,0.06631072185717682
12.404140000000002,17.95533091716586,0.06576915716022053
12.408168,17.995164531826603,0.06521952068230691
12.412195999999998,18.03544104608709,0.06466220253964257
12.416276,18.070899301272703,0.06411785633772617
12.420315999999996,18.10546033958331,0.0635749588248326
12.424407999999996,18.13520311881905,0.0630447803194267
12.428496,18.16001691407999,0.06252934362874557
12.432523999999995,18.17810729161611,0.06203105764972998
12.436604,18.190482193202357,0.061546000977018095
12.440684,18.205659470313577,0.06105763094563873
12.44476,18.214899821675047,0.060585670922460796
12.448843999999998,18.222910781461703,0.060121973003131476
12.452920000000002,18.227897915923517,0.05966777182675896
12.456956000000002,18.22997194996043,0.0592196457963661
12.460992,18.225211841372577,0.05878788926774144
12.465023999999996,18.22045173278473,0.05835611308461844
12.46912,18.22118565034689,0.05791857952781943
12.473151999999995,18.2179985257092,0.05749076765358474
12.477239999999998,18.208653025521887,0.057081929590165885
12.481323999999995,18.19437854135978,0.056684897962264474
12.485407999999996,18.176637332273096,0.05630470646749824
12.489444000000002,18.153856414311676,0.055937540107395316
12.493475999999998,18.125592887875783,0.055592532929089215
12.497572000000002,18.096997186740087,0.05525332963417596
12.501659999999998,18.070982411329485,0.05491478787866082
12.505751999999998,18.04642989496911,0.05458159724358452
12.509848000000002,18.018853553283886,0.05425495842407349
12.513940000000002,17.99184225377387,0.053934247009614356
12.518036,17.963490837789113,0.053622237367548384
12.522131999999996,17.928981046254737,0.053327995653149496
12.526231999999997,17.893352588045477,0.053037159529008886
12.530328,17.855708246286326,0.0527506555327658
12.534423999999998,17.81963688847733,0.05246753443681908
12.538520000000002,17.785925006593562,0.05218954066873828
12.542568,17.752667441985068,0.051919398294034136
12.546600000000002,17.71583242755206,0.05166782018433007
12.550631999999997,17.672949762469365,0.05143102630257048
12.55468,17.62839480621212,0.05120987719087759
12.558775999999998,17.58552355880496,0.05098930622827154
12.562887999999996,17.54019352824817,0.05078212018204841
12.566936000000002,17.495760714566394,0.05057364654588593
12.571035999999996,17.454584593684856,0.05037052605656969
12.575064,17.417108065203305,0.05016333381791943
12.579108000000002,17.379742261621686,0.04995271607206698
12.583147999999998,17.336328807390387,0.04975651847674282
12.587251999999996,17.29078874470926,0.04956694959990902
12.5913,17.250521258378267,0.049377972179111725
12.595407999999995,17.205546237872348,0.04919327437652534
12.599504,17.15642872536671,0.04901988842186712
12.603607999999998,17.107089763061197,0.048850288377613425
12.607708,17.06212616023081,0.048681673666493896
12.611808,17.01503594895059,0.048519345336014104
12.615911999999998,16.9598822034708,0.04837627424131798
12.620012,16.90260184954119,0.0482398878884843
12.624115999999995,16.841289728511782,0.04811258567096627
12.628212,16.783787924782295,0.04797937858081344
12.632312000000002,16.721246412178076,0.047857689797761206
12.636348000000002,16.657021190723768,0.047732676753101555
12.640387999999998,16.59235306966972,0.047616702267521946
12.644484000000002,16.527906398415542,0.04749474245180845
12.64858,16.462230335586547,0.04737943710027115
12.652607999999995,16.391846738582622,0.04726848588136186
12.656691999999996,16.31541549092902,0.047171945363324114
12.660735999999996,16.23742267700079,0.04708960425639515
12.664787999999998,16.156627487547595,0.047008899166389895
12.668876,16.07202198079448,0.046932397756136446
12.672976000000002,15.978787897666585,0.04686801148461499
12.677004,15.883881523364137,0.04682122073298868
12.681096,15.792896191261535,0.04676587553079418
12.685196,15.696981875184141,0.046720622449583984
12.689291999999998,15.593557649406845,0.04668218543608771
12.693388000000002,15.488793307154797,0.0466537873199294
12.697484,15.383574647627478,0.046614296861436304
12.701576,15.276561554350137,0.04657382492187862
12.705671999999996,15.172572286397633,0.04652443049146322
12.709768,15.058160008320327,0.046487431982462274
12.713863999999996,14.945652888892976,0.04644754502819797
12.717955999999996,14.827098118815947,0.046423788107433465
12.721991999999997,14.702152105713898,0.0464021459802211
12.726024,14.574071542387076,0.04639105492557083
12.730064000000002,14.442512836460141,0.046376034014346236
12.734151999999998,14.309048971883245,0.046363351370691454
12.738243999999998,14.173901398456263,0.04634772643649303
12.742335999999998,14.031576090029187,0.046331479885530394
12.746427999999998,13.891045215352134,0.04631451432784367
12.750468,13.746482573575294,0.04630973622335227
12.754499999999997,13.601022714923445,0.04630540265486843
12.758583999999995,13.455108538996319,0.04628920951758236
12.762671999999998,13.30067651159435,0.04628414991512735
12.76676,13.147584600667134,0.04626632824734814
12.770855999999998,12.993374023065035,0.04625454400344878
12.774951999999995,12.834677361087877,0.04624304720269491
12.778988000000002,12.676656466185861,0.046237109154580174
12.783067999999997,12.512809370434034,0.046243972950455715
12.787156,12.342128132057452,0.04626681372677789
12.791243999999995,12.174249269205838,0.046287048730953156
12.795335999999995,12.006481131254162,0.04630345736327616
12.799432,11.84274476040227,0.04630714505332667
12.803459999999998,11.680692098400467,0.04631489248024996
12.807543999999996,11.517963669323521,0.04631536334190803
12.811627999999995,11.354903065546774,0.04632612145299332
12.815712,11.18982657822013,0.046345238655697
12.81974,11.028449683293468,0.04636039458154073
12.823823999999998,10.873353306491893,0.046376030917416246
12.827915999999998,10.716241046140421,0.04639927459746969
12.831999999999995,10.565962928413706,0.04640425562781862
