Time,Force,Position
8.948395999999999,7.175801890559675,0.04807382262374546
8.952492,7.1496262055822655,0.04789865439715004
8.956468,7.113924727355063,0.04775271825129247
8.960571999999999,7.078223249127862,0.04760514865700672
8.964552,7.041292379325844,0.047474253771836776
8.968639999999999,7.007385334848665,0.04732432347982308
8.972672,6.971240957021725,0.04719693689550391
8.97672,6.928373161469962,0.04709277342846478
8.980768,6.8814735988184115,0.04701242993787408
8.984808,6.836368469916885,0.046930217506489645
8.988888,6.793279224565252,0.046834889352091555
8.992924,6.748063370763791,0.04675653025389215
8.996967999999999,6.705206992887561,0.04669569286260686
9.001012,6.659216064786554,0.04665923033262603
9.005116,6.608185427810814,0.04665329420234637
9.009216,6.558162732610023,0.04664051889134712
9.013316,6.505226936984324,0.046639292179055054
9.017356,6.451393924483615,0.04663801972620409
9.021444,6.398347403957983,0.04664377419130428
9.025548,6.349221925632202,0.0466295332773312
9.029644,6.29293012998186,0.046667631741948545
9.033744,6.232828017031601,0.0467192954582909
9.03784,6.176646946281193,0.04675081998799112
9.041896,6.120355150630851,0.046788752024031856
9.04594,6.057561387055556,0.04684214227759235
9.049988,5.989838639505462,0.04692394256950021
9.054096,5.922448066655173,0.04698456462871072
9.058148,5.86077296975476,0.04702544992649416
9.062248,5.796627672029181,0.04705413484699958
9.066336,5.7258696814787164,0.04710431023810631
9.07038,5.657016849578209,0.047144681951430345
9.074428,5.58536164215273,0.04719381459914692
9.078456,5.508323133477179,0.047245598201470895
9.082492,5.432403291476512,0.04728475617783542
9.086536,5.358720782825608,0.047293228651202224
9.090568,5.281227956874787,0.047317811964697906
9.0946,5.20552956467399,0.047342716259128004
9.09864,5.1298311724731915,0.04736799451793561
9.102688,5.053457013197252,0.0473770667000192
9.106724,4.970813753471762,0.047459230417502475
9.110696,4.893664519896278,0.04754257971681887
9.11478,4.817313195971404,0.04772020269073118
9.118816,4.744008532722435,0.048020162619686446
9.122804,4.676885080374148,0.04840285380275167
9.126856,4.618302314851771,0.04890401818986109
9.130888,4.568936003230449,0.04953317613063123
9.134992,4.523979304110849,0.05038932025837953
9.139028,4.484894476543191,0.05148276217669234
9.143068,4.4621159483278126,0.05280220820740586
9.147156,4.456995253614999,0.054354940421840164
9.15114,4.462931117255392,0.0562156906889038
9.15518,4.489682199974189,0.05832068452875306
9.159264,4.5392758029968165,0.06068184894909712
9.163352,4.610039635148717,0.06330212819077696
9.167436,4.699747780755664,0.06625142923766836
9.171524,4.821182725867689,0.06939573739400841
9.175612,4.9673996029601,0.07277354367410005
9.1797,5.144125305658308,0.07634032876136898
9.183784,5.352146325937388,0.08007356410838465
9.187872,5.597166722071684,0.08384076029135543
9.19196,5.868984933736262,0.08769605738375671
9.195988,6.174423685880343,0.09150419016214976
9.200072,6.502937825803656,0.09528922103136647
9.204152,6.848701152656391,0.09910467501483597
9.208236,7.220441550037734,0.10281252735569249
9.212324,7.609519023897367,0.10644036887817337
9.216404,8.019843198759613,0.10988760481359786
9.220484,8.443438429973765,0.11315085834197765
9.224564,8.875020723514156,0.11621757949418764
9.228648,9.313902894630107,0.11905198471621035
9.232736,9.758267674220534,0.12159756761170451
9.236824,10.194534666584786,0.12393260256041101
9.240908,10.62414329542202,0.12601311645750116
9.244996,11.04023658275641,0.12786043129494193
9.24908,11.445815518561735,0.1293904156825032
9.253168,11.82797547421249,0.13072398978359628
9.257252,12.193317724858026,0.13179438011977612
9.261344,12.530277758347598,0.1326760232931709
9.265424,12.834369490306145,0.1334230055123035
9.269504,13.100774661658798,0.134107532369902
9.273584,13.336892457205527,0.13468130760945335
9.277668,13.538691109846543,0.13520599124278773
9.281748,13.711221746132113,0.1356587913126672
9.285828,13.862215725562006,0.13597737736600396
9.28992,13.98148290548682,0.13627893615960954
9.29396,14.07799545465667,0.13650477212851353
9.297992,14.145029955346736,0.13671686259310978
9.302076,14.192012893582412,0.13686786514598123
9.30616,14.21648548621406,0.1369947357610491
9.31024,14.216099674991986,0.13712969553254395
9.314236,14.197036670816866,0.13725964066957663
9.318272,14.1664742086888,0.13733965960921288
9.322372,14.123747939208174,0.13739138010997018
9.326416,14.070774438700486,0.137424986084921
9.330516,14.012161934116257,0.13742840343443563
9.334568,13.94915123470584,0.13740981026809487
9.3386,13.87659190669456,0.13741860533147096
9.342692,13.80290249433287,0.13741645873376412
9.346736,13.736379399295739,0.13734333685237013
9.350784,13.674785288233409,0.13722685816854502
9.35488,13.616215002495917,0.1370807498033128
9.358976,13.560901409558667,0.1369217745446408
9.363072,13.50648503349643,0.1367567142662196
9.36716,13.44983132408443,0.1366173104897543
9.371256,13.396434307472672,0.13646516747166526
9.375304,13.345286041886213,0.1363091521627721
9.3794,13.300872611700106,0.13612021612585393
9.383372,13.257699990764348,0.13593724682140948
9.387412,13.220364988353934,0.13572703363394772
9.391504,13.191448530193965,0.13547562764305587
9.395556,13.166796706609187,0.135201341227053
9.399656,13.149776935299775,0.13488844839765213
9.4037,13.13523878249106,0.1345892951635714
9.407812,13.132818766332772,0.13422331961818046
9.41184,13.13029944295008,0.1338857527910536
9.415932,13.133285563392926,0.13353429820151266
9.42002,13.143571561411337,0.1331572106618711
9.424104,13.158687236180143,0.1327647796106973
9.428132,13.17370360372455,0.13240257536949196
9.43218,13.192763156044272,0.13202771441698058
9.436264,13.217549601989404,0.13163450508636132
9.440292,13.245027698559573,0.13122520759803483
9.444376,13.280248572305045,0.13077767986567723
9.448416,13.322536456150676,0.13029075999998532
9.452504,13.372112799896335,0.1297595565937714
9.4566,13.424380794267027,0.12921508975420148
9.46068,13.4774352806128,0.1286707902633951
9.46476,13.53217347580866,0.12812070447444873
9.468844,13.588816829654478,0.12756028072101716
9.472932,13.644895141325089,0.1269977050541991
9.47702,13.700862728095768,0.12644173587547267
9.481104,13.749098955366675,0.12594739996195567
9.485188,13.800580457762292,0.12542193108812058
9.489272,13.845892166932764,0.12493442556478972
9.493356,13.892322542778112,0.12443603121768994
9.49744,13.935274776023352,0.12395641535696622
9.501524,13.973962374693402,0.12349644976397482
9.505608,14.011863481388376,0.1230404363461842
9.509696,14.049420995708012,0.12257402829534012
9.513784,14.087421409627387,0.1220967485953583
9.517872,14.12025997209656,0.12164449459283688
9.52196,14.152312042590657,0.12119521809044419
9.526048,14.18132887008438,0.1207502291628271
9.530144,14.205859613203046,0.12033073731028926
9.534232,14.22163963737146,0.11995263342493115
9.53832,14.233376476764558,0.1195848259002914
9.542416,14.245777665557265,0.11919749559161275
9.546508,14.260748362399537,0.11877895866878284
9.5506,14.2696599909166,0.11838549239069199
9.554696,14.27688791058357,0.11799818424075768
9.558792,14.28175635432531,0.11761415080147886
9.562824,14.293680390491676,0.11717533720029441
9.566916,14.301339792082855,0.11675277079741456
9.571008,14.307315484823945,0.11633558790731001
9.5751,14.312947585189699,0.11590658919561557
9.579192,14.318125368280178,0.11546797631794538
9.58328,14.32341387627059,0.11502529920572876
9.587372,14.325334966560828,0.11459289644069157
9.59146,14.322548522676138,0.11418825006901664
9.595552,14.31662752856667,0.11381042421664603
9.599588,14.309809317582191,0.11343633284218696
9.603676,14.300299455972677,0.11307434374272617
9.607652,14.290678869463228,0.11271582971330174
9.611692,14.280603965678505,0.11234735162403917
9.615784,14.27411792939383,0.11196159003741395
9.619824,14.26640250153434,0.11158922777920405
9.623908,14.257457682100034,0.11123149804484862
9.627956,14.242686661815917,0.11091168201330273
9.63204,14.232512450806793,0.11056772823292206
9.636036,14.219314414472828,0.1102450965164469
9.640128,14.207235044813746,0.109911087736678
9.644224,14.193471966304575,0.10958224510086714
9.64832,14.178479496220588,0.10926651772788798
9.65236,14.16158186748664,0.10896093453557426
9.656456,14.14367629697775,0.10866219283336767
9.660552,14.128462377093891,0.10835143157953533
9.664604,14.115153615859992,0.10802916586597504
9.668648,14.105433722126142,0.10769122695908612
9.672732,14.09481661151728,0.1073554551239815
9.676832,14.085650342283103,0.10699881690777366
9.680884,14.076484073048926,0.10664144182565935
9.684988,14.071914613089746,0.10626172648876125
9.689088,14.065439994480606,0.1058926647466873
9.693192,14.06053835982162,0.10552265808843439
9.697288,14.051604958062844,0.10518030281256086
9.701388,14.047489815378935,0.10480926368287435
9.705472,14.042477455820014,0.10444189553046601
9.709528,14.040046021986191,0.10406646277588953
9.713628,14.036385196577552,0.10370526905978061
9.71768,14.038550572018723,0.10330885066587704
9.721776,14.04206748161018,0.1029192194375373
9.725876,14.041552624101849,0.10255717445275069
9.729972,14.045634575868513,0.10217426703709834
9.73402,14.05689426263527,0.10176391013494901
9.738056,14.06692455782721,0.10136694826030725
9.742156,14.075725461444335,0.10098440786179581
9.746252,14.084526365061462,0.10060257692266839
9.750288,14.09512170242861,0.10021579175223226
9.75434,14.116140049920565,0.09977711105799116
9.758376,14.13671549781278,0.09935275453352785
9.762408,14.160093321229963,0.09891605743444393
9.766492,14.180668769122178,0.09849378997387154
9.770524,14.204943809414374,0.09805649900326803
9.774612,14.22944029950644,0.09761393035862727
9.7787,14.264802699323049,0.0971100760470177
9.782784,14.29893570756484,0.09662173913213475
9.786812,14.336092541131475,0.09611665817939645
9.790892,14.373360099598044,0.09560969531485901
9.794928,14.412864991414374,0.09508639760004065
9.799016,14.452259158330772,0.09456982464812791
9.8031,14.492096224846907,0.09404306817307956
9.807188,14.53764876731292,0.09349116684458002
9.811276,14.579612442278885,0.09295236754570069
9.815364,14.618208699544672,0.0924219640434626
9.819448,14.661401766085454,0.09187627453545423
9.823536,14.702013906901135,0.09133595791930227
9.827624,14.74531769834185,0.09079047647633069
9.831712,14.784135405407506,0.09026073772458798
9.835792,14.818024128498365,0.08976127991654782
9.839876,14.853142243164038,0.08925169869777846
9.843956,14.887363140954703,0.08874661683536372
9.848036,14.92259198052031,0.08823695649969138
9.852116,14.953002561011058,0.08775002397879782
9.8562,14.984088908576945,0.08726848537482364
9.860288,15.003412129543275,0.08684611248767887
9.864372,15.023964742084424,0.08641395447215686
9.868448,15.041161354600927,0.08600838919142892
9.872532,15.058579416917297,0.08559766169590524
9.87662,15.07207643703382,0.085206314176011
9.8807,15.08299253142524,0.08481992327041386
9.88478,15.093576451116856,0.08444380946730304
9.888872,15.101357995283504,0.08407880129751831
9.89296,15.111155423000042,0.08370354311773427
9.897052,15.120952850716582,0.08332903601620238
9.90114,15.126485643857933,0.08296014617914224
9.905224,15.136615246274276,0.08257797403974824
9.909308,15.14136154744055,0.08220899744294294
9.913396,15.1468943405819,0.0818407168673044
9.917476,15.149846207998149,0.08147587648782766
9.92152,15.153806017189346,0.08110728574794493
9.925608,15.158773768155488,0.0807345146980722
9.929644,15.16956771997144,0.08034046954061862
9.933732,15.186187872637202,0.07992387054804141
9.937812,15.201124316452876,0.079508933655573
9.941896,15.221997686018298,0.07906774306311008
9.94598,15.239171463183736,0.07863793688023611
9.950064,15.259025473298676,0.07818212585361059
9.954152,15.278768758513682,0.07773027277167864
9.958236,15.301314419253657,0.07727081876932784
9.962316,15.324535847068775,0.07681616279187546
9.9664,15.345176349158791,0.07636451263641304
9.970484,15.365816851248807,0.07591386105784319
9.974572,15.39004622083887,0.07545880758583573
9.978664,15.414054140629064,0.07501056904612093
9.982752,15.43985649416928,0.07455974561405511
9.986732,15.465991022409302,0.07410288906690601
9.990812,15.49571441814937,0.07364032879213475
9.994812,15.525548538789376,0.07317546926871495
9.9989,15.557066368279472,0.07271094737654568
10.002988,15.581860780044742,0.0722686990117413
10.007076,15.604860758059989,0.07183063365769725
10.011104,15.617327001050498,0.07142684011272377
10.015184,15.623512725915925,0.07103352311001794
10.019264,15.629809175681284,0.07063751237659514
10.023344,15.634311191696622,0.07024486063574233
10.027376,15.63824816553675,0.0698445719340568
10.03146,15.639050589152106,0.06945985052039225
10.035552,15.641082404342276,0.06906616720837357
10.039636,15.63974680183227,0.06867196311364625
10.04366,15.637956882046991,0.06826800952544952
10.047736,15.639080062686618,0.06785505046344148
10.05182,15.640535418026051,0.06743428619156394
10.055896,15.636828921915281,0.06701590316545876
10.05998,15.6345732671792,0.066583235532603
10.064064,15.633436279117998,0.06614470812504485
10.068148,15.630394132406838,0.06571206420878417
10.072132,15.625889726645458,0.06527368153757027
10.076176,15.623622654233843,0.06482282330310744
10.080256,15.623925089871795,0.0643520655015257
10.084352,15.630164451259493,0.06386151515181057
10.088392,15.63752247932207,0.06336515636246567
10.092424,15.649920216259384,0.06285002588069707
10.096456,15.669827862896593,0.06232092780813542
10.100492,15.689846234433741,0.06178971234980428
10.104588,15.71188048952078,0.06125275541620342
10.10868,15.739187320957955,0.06071520169498578
10.11278,15.766937051994868,0.060167119955103716
10.116872,15.792892349281763,0.059622209069098125
10.120972,15.822547238968635,0.05907272477802272
10.125064,15.85119418688056,0.058527306167281135
10.129164,15.875244325517494,0.05798832519129446
10.133256,15.896381363729523,0.05745702603645073
10.137356,15.91841561881656,0.05692566373605692
10.141448,15.935631614828736,0.05640561637015541
10.145544,15.94892656864106,0.05589622581625686
10.149644,15.959197697128543,0.05539636183140642
10.153736,15.970255317591104,0.05489937726815386
10.157832,15.974257345629038,0.05442363350597821
10.161928,15.973895431867378,0.053968950189456175
10.166028,15.969612475905869,0.05352385429192928
10.17012,15.963092186594595,0.05308998728117756
10.174156,15.952318680383668,0.05267273869099053
10.178248,15.932695147998087,0.05227695417355478
10.182336,15.909826340487797,0.051894176774913654
10.186428,15.881020607227763,0.051525370952448704
10.19052,15.84538073134297,0.05117120073648007
10.19456,15.805941955833795,0.05084250218216964
10.198588,15.760234079875067,0.050534524481349284
10.202676,15.703328119491996,0.05025911653660349
10.206704,15.643066159084276,0.049998405160060495
10.210788,15.583147791051893,0.04974896977502619
10.214816,15.519762698094931,0.04951692974306505
10.218856,15.447981896238591,0.049313919273439207
10.222944,15.371615702782792,0.04913396351028182
10.226976,15.288083192002427,0.04897504204284272
10.231004,15.197605813697372,0.04883179552694026
10.235028,15.097946234517861,0.048715649188493526
10.239068,14.997954480638548,0.048606274548735076
10.243096,14.888104758809634,0.048519249795873215
10.247184,14.771088719656161,0.0484540489770987
10.251228,14.647017088078059,0.04840827496909955
10.255264,14.51891368940017,0.04837331053420216
10.259296,14.38666779872256,0.04835242945398204
10.263384,14.248374257395271,0.048349293727257554
10.267472,14.10571677426839,0.048366650937970615
10.27156,13.956114423616816,0.04840252807488548
10.275596,13.802701755665327,0.04844543570244658
10.279624,13.647948971239082,0.048501351100626734
10.283712,13.497006504112758,0.04855209855726776
10.2878,13.342818761861725,0.04861914157019679
10.291836,13.17978099343604,0.048710853827327906
10.295872,13.012932907710436,0.04881083544153504
10.299904,12.84698203885985,0.04891301895461016
10.303988,12.681928386884271,0.04901728586156008
10.308068,12.520463602408743,0.04912328516026064
10.3121,12.36550078585816,0.04922181561665612
10.316132,12.213229619932617,0.0493220721096989
