Time,Force,Position
10.865583999999998,5.683598657289776,0.04825679305324108
10.86968,5.641715968161893,0.04801470376784198
10.873776,5.60129553808423,0.047791440189803
10.877876,5.559756441331683,0.047579659892638244
10.881923999999998,5.512058969029523,0.04741769857478879
10.88596,5.460219004727641,0.047289971661357094
10.890052,5.411292140850665,0.04714294517757311
10.894052,5.3659541444737355,0.04699298941871205
10.898148,5.31658438099702,0.04687047680840334
10.90224,5.2677796596955115,0.04677007755765436
10.906336,5.221777313918973,0.04665974843175748
10.910367999999998,5.17398053439241,0.04654719017669264
10.914407999999998,5.126073029965914,0.04644119591398381
10.918504,5.074023033539695,0.04637378093111124
10.922543999999998,5.01794127001369,0.04633859685281938
10.926592,4.960740839812803,0.04631612631879215
10.930623999999998,4.898722150537052,0.04631732522508943
10.9346,4.8327824190614495,0.046345138594264784
10.938631999999998,4.767961354260728,0.04635578331480358
10.942719999999998,4.7013458557099845,0.04636630377851826
10.946808,4.633157373209086,0.046358483741760985
10.950788,4.565866107583199,0.04635042161420003
10.954876,4.489381223407324,0.04636333781532272
10.958904,4.4070701383816395,0.04641961647586536
10.96294,4.328347920856002,0.04648036048029805
10.967024,4.251087962380583,0.04657815168030379
10.971056,4.168013220730887,0.04681680435612107
10.975092,4.083266187906634,0.04714331366806164
10.979136,3.9962932394081516,0.047639386168835854
10.983224,3.914936459635143,0.048221930927924615
10.987316,3.8340454148129384,0.048963435885077546
10.991412,3.7514934964917113,0.04992439993350757
10.995492,3.668067196646538,0.051123896730020324
10.999584,3.592062916952395,0.05251207453519621
11.003671999999998,3.521354048959454,0.05414629627124635
11.007752,3.452473867743135,0.05610392395398691
11.011844,3.389908457678497,0.058369846806882765
11.015932,3.3390411200156116,0.060869052082416414
11.020008,3.2936027543049287,0.06373091355644736
11.024096,3.2617790373214897,0.06681550599206712
11.028132,3.242119127690607,0.07019863906108331
11.032215999999998,3.237425400937253,0.0737789056399337
11.036296,3.2518517667366815,0.07759381464845748
11.04038,3.288422050413732,0.08149639316643795
11.044467999999998,3.334697358293707,0.08563471301251246
11.048552,3.3954959494514703,0.08988564216213073
11.052628,3.4777626914117135,0.09410599534933267
11.056712,3.577022917474911,0.09837135759663437
11.060792,3.7032453204905944,0.10244820998101076
11.064875999999998,3.8435481071843265,0.10654731592811371
11.06896,4.001630869956091,0.11059853605961731
11.073035999999998,4.18320908475576,0.11449232568450683
11.077123999999998,4.387606984508196,0.11818262250308095
11.081212,4.611235701713348,0.12168673688171562
11.0853,4.858127003471003,0.12491585783612372
11.089392,5.123008313431028,0.1278919232631998
11.093476,5.407330472968107,0.13055804472490984
11.097559999999998,5.704923688857094,0.13299778741420112
11.101648,6.021270569572458,0.1350682319444286
11.105736,6.345272337914256,0.13696139210677707
11.10982,6.683419544131906,0.138543793727751
11.113896,7.027305061650499,0.1399645985100048
11.117976,7.382965123444178,0.1410875382818245
11.122056,7.742103327837971,0.14207931551300249
11.126136,8.106502690906368,0.14283224826355415
11.130219999999998,8.46786681097439,0.1434862177790842
11.1343,8.828089429016465,0.14403518634680174
11.138392,9.185475418506972,0.14444563630493862
11.142471999999998,9.531728377770934,0.1448722086764843
11.146556,9.870757931332669,0.14517492041379812
11.150588,10.204347095266671,0.14533182885985593
11.15468,10.526436801247725,0.14541253630180978
11.158772,10.83365963157565,0.1454476309745807
11.1628,11.12085373480025,0.14547781218111136
11.166884,11.387232618946445,0.14551918612387627
11.17098,11.640970543113742,0.1454566384978907
11.175064,11.872873888752157,0.1453856773731931
11.17916,12.08495853941158,0.1452798436228534
11.183252,12.275884378617265,0.14517523792201908
11.187348,12.45180978191882,0.1449882678507644
11.191444,12.603552548441794,0.1448347122027739
11.195532,12.740073429260772,0.14461150289800528
11.19962,12.855557641201477,0.14441381140005566
11.203712,12.951688893113996,0.1442242953228993
11.207804,13.034526253323543,0.14400258000919822
11.211852,13.111690356429953,0.1436769741970694
11.21594,13.172769609983954,0.14337063646503634
11.220032,13.218107606360883,0.14309444580781858
11.22412,13.250617445985647,0.14282006631957161
11.228212,13.274342313633559,0.14253011704407975
11.2323,13.283013108855078,0.14229615736979262
11.236384,13.281680958200466,0.14208922610454947
11.240472,13.272029570519813,0.1418993454635984
11.244564,13.264714823413325,0.14165236498616166
11.248648,13.255704949781215,0.14138994033229524
11.252736,13.238730849173933,0.14118188592851622
11.25682,13.224669848991555,0.1409466872943652
11.260904,13.21038739900931,0.14071897500179922
11.264996,13.197002165902079,0.14048479614316525
11.269084,13.181158149645212,0.1402864047824542
11.273172,13.169689492863466,0.14005981660736955
11.277252,13.156437820007232,0.13987039435330392
11.28134,13.144759131101154,0.13967593071012585
11.285432,13.137234351870328,0.13946153921989804
11.289524,13.131393281489586,0.13923874525672353
11.29362,13.12118826930926,0.13906786095125145
11.297712,13.110318907729322,0.13891971673901451
11.301807999999998,13.10472212249952,0.13873779632238295
11.305899999999998,13.104852230895126,0.13853173375609731
11.309995999999998,13.108128307191041,0.13831663763437793
11.314084,13.117463451812167,0.13806582386236038
11.318179999999998,13.128371580383448,0.13780983012418194
11.322271999999998,13.146457443954825,0.13750511203046129
11.326368,13.161519482201362,0.13723186678766003
11.330464,13.176581520447899,0.1369591558976588
11.33456,13.196351092869367,0.13664853303627586
11.338656,13.213429014665795,0.13635699114344674
11.342752,13.23375221158693,0.13602919853025486
11.346847999999998,13.253288916532997,0.13570463121639603
11.350943999999998,13.273157796178863,0.1353685437503955
11.35504,13.293137400724666,0.13502986411870768
11.359136,13.316583730195045,0.13464792488515018
11.363184,13.336441192165381,0.13428957963941723
11.367276,13.354049903110418,0.1339345831338262
11.371323999999998,13.366951079880527,0.13361665390928218
11.375412,13.381192373125389,0.13327795359668287
11.379507999999998,13.401702766819799,0.13287452834241872
11.383603999999998,13.422323885414146,0.13246867876144944
11.387688,13.438680369433301,0.1320848546919946
11.391776,13.455258303252327,0.13169543435732492
11.395868,13.467239427796356,0.13133818571238956
11.39996,13.483584494139981,0.13093348244442282
11.404048,13.495332751208611,0.13056209695254195
11.408127999999998,13.507413182977041,0.13018009459896038
11.412216,13.521620223195306,0.1297772629344349
11.416263999999998,13.535262221238362,0.12937053782951802
11.420348,13.550698653031441,0.1289535289292459
11.424392,13.562214042624666,0.12856998584896437
11.428472,13.573729432217894,0.128187067505665
11.432451999999998,13.587039255561145,0.12779410632914107
11.43654,13.600681253604197,0.1273915182804551
11.440624,13.610291484547465,0.12702540272561652
11.444708,13.622704091015704,0.12663954837088387
11.44874,13.63612463925889,0.12624535811684257
11.452816,13.654584896376807,0.12580736057837694
11.4569,13.671926486819844,0.1253823294934654
11.460984,13.687473643512858,0.12497001840334439
11.465063999999998,13.704250191780687,0.12454360236951108
11.469148,13.722931898698475,0.12410350152477596
11.473176,13.739032679891167,0.12367611253713794
11.47726,13.76129183663347,0.12319447562965782
11.481348,13.779519226275985,0.1227490501897164
11.485432,13.800881166143276,0.12227599188525448
11.489524,13.82123516423562,0.12181201857618916
11.493552,13.837668120128114,0.12137908286744595
11.497644,13.849172092045809,0.12098431059598941
11.501732,13.860111021788297,0.12058461948512396
11.505824,13.8748602688307,0.12015936798702015
11.509912,13.886807140348132,0.11975161489580743
11.514008,13.89908618656537,0.11933466107383539
11.518096,13.914499783007384,0.11889243159551752
11.522188,13.930134829249269,0.11844254596253781
11.526239999999998,13.946999267065966,0.11797884111395214
11.53034,13.963863704882666,0.11751624704252502
11.534432,13.977704317374524,0.11707907200449748
11.538519999999998,13.992885046341135,0.11662393769543923
11.5426,14.007057833532798,0.11617803859530636
11.546684,14.018538970099426,0.11574667654927522
11.550771999999998,14.02956578939078,0.11530637883074422
11.554856,14.039695391807124,0.11487023875267344
11.55894,14.04691189379856,0.11445579264029519
11.563028,14.054239120689934,0.11403787534789168
11.567076,14.056748088506444,0.11365195741060553
11.571164,14.05947850612282,0.1132590786110499
11.575252,14.063438315314018,0.11285126883163112
11.579339999999998,14.072437833379947,0.11240478192099154
11.583427999999998,14.078634975920906,0.1119741476270317
11.587523999999998,14.080456758986742,0.111561259853022
11.591615999999998,14.087318250927309,0.11111067338501293
11.595707999999998,14.094069017967943,0.11066491465867685
11.599804,14.091748309034056,0.11028691274161359
11.603912,14.092340700525074,0.10989007690535642
11.608,14.091703700441276,0.10950814110400725
11.612096,14.089948033682596,0.1091370855993616
11.616191999999998,14.088303091823851,0.10876243815444064
11.620248,14.088341858815197,0.10838421453080924
11.624336,14.089720742281292,0.1079893245397856
11.628436,14.090202408872377,0.10759799478931777
11.632531999999998,14.089343958988708,0.10722370228476522
11.636627999999998,14.089382725980053,0.10684522103630104
11.640724,14.090429434746344,0.10646028818103996
11.644816,14.091586868412568,0.10607191755166227
11.648896,14.097562561153659,0.10565503530715405
11.652984,14.1025303121198,0.10524498934661634
11.657076,14.11041116351085,0.10481822911538852
11.661168,14.118292014901897,0.10439287976704764
11.665252,14.128975241817917,0.10395320412388152
11.669339999999998,14.145041769984006,0.10349296798201914
11.673376,14.159092414600204,0.10304824783946162
11.677464,14.171348625466376,0.10261144048155077
11.681548,14.191446920732254,0.10212699067563
11.685627999999998,14.209418607548299,0.10166044484839212
11.689716,14.228619685939163,0.10118194479525272
11.693804,14.248042214129898,0.10069713622917187
11.697883999999998,14.2702671178456,0.10020039452850467
11.701971999999998,14.291594804686294,0.09970930151938347
11.706056,14.311360925252364,0.09924263504997799
11.710144,14.332700029768588,0.09877628447380829
11.714232,14.357738726684795,0.09829468326686558
11.718315999999998,14.386477016000985,0.09779898478279006
11.722404,14.4120807550924,0.0973266375730152
11.726488,14.441273361683864,0.0968437724327005
11.730572,14.467442142950485,0.09638156562852934
11.734652,14.496413299742077,0.0959077937288892
11.73874,14.521352689433881,0.09546044710433288
11.742824,14.545173412450804,0.09502409082986765
11.746904,14.56989135234274,0.09458628207816587
11.750988,14.590012482959681,0.09416780505620093
11.755067999999998,14.608228454926666,0.09375873009305082
11.759152,14.623531326468743,0.09336415398394678
11.763224,14.634015938935956,0.09299457344620103
11.767308,14.645508493178118,0.09261927978631389
11.771396,14.655993105645333,0.09225102335978083
11.775427999999998,14.666145543412743,0.09189232609375313
11.77946,14.670693230130214,0.09155673031197507
11.78354,14.672327816422776,0.09123592294450385
11.787616,14.671492201890175,0.09091669426028925
11.791704,14.670091545182366,0.09059080832055764
11.795732,14.664315528999435,0.0902753088466088
11.799768,14.654950645316452,0.08997095072725547
11.803856,14.646815153208285,0.08965404609450331
11.807944,14.635090793600076,0.08934800477044406
11.812027999999998,14.622469217116855,0.0890440327688174
11.816119999999998,14.610634132608707,0.08874106886522211
11.820156,14.599585540075639,0.08843816660222341
11.824148,14.585623847117663,0.08814860347148393
11.828176,14.569535545709858,0.08787332971533515
11.832264,14.556028170027156,0.08759341592874913
11.836356,14.545212444969486,0.08730586060467242
11.840443999999998,14.537874862511933,0.08701093244814086
11.844428,14.529529338279433,0.08672079850389987
11.848464,14.521970306022006,0.08643155962586581
11.852552,14.512173940414819,0.08615934155496381
11.85664,14.502377574807632,0.08588681842037069
11.860723999999998,14.496170076700492,0.08560409978894491
11.86476,14.489741128793483,0.08532703684526213
11.868735999999998,14.486568873686716,0.08504957503418499
11.872736,14.482621544280406,0.08479377733497062
11.876828,14.483725341424359,0.08453339819753165
11.880924,14.484275514068642,0.0842884875289387
11.885012,14.484050612413377,0.08406524864285117
11.889104,14.484058578233517,0.08385840481737344
11.893183999999998,14.48373436935385,0.08366052772054919
11.897212,14.479378393374398,0.08348438978522617
11.901239999999998,14.477603343120046,0.08330468925749446
11.905324,14.481100869215831,0.08311463880261638
11.909408,14.487179321036718,0.08292125578146076
11.91346,14.493822815032809,0.08273552359846242
11.917444,14.498007525879267,0.0825729235450698
11.921428,14.502868003800872,0.08241454546536078
11.925424,14.51131734922252,0.08224742940689417
11.929527999999998,14.518648027969286,0.08208899623223485
11.93356,14.528670357341088,0.08192417545749212
11.937652,14.541495062237862,0.08175031525957127
11.94174,14.552868925759949,0.08159402779070354
11.945823999999998,14.565926498132123,0.08143654183701544
11.949904,14.577976128729352,0.08128454374389674
11.953992,14.595741235276456,0.0811114916919429
11.95808,14.61048251649872,0.0809544390722133
11.962163999999998,14.627018231471009,0.0807934441860576
11.966259999999998,14.644894062918048,0.08061825262324136
11.970344,14.662991344164958,0.08043716107757817
11.974432,14.685906884486728,0.08023728994671
11.978524,14.714648625658311,0.08001402346408355
11.982656,14.739801499329849,0.07979919841244673
11.98674,14.758452405076431,0.07960447661829244
11.990835999999998,14.772617226447954,0.07941982134240605
11.99492,14.780501529694394,0.07924877869213161
11.999012,14.792528324940557,0.07905510521376677
12.0031,14.8056737868616,0.07885407837824919
12.007184,14.817700582107763,0.07866140908844776
12.011267999999998,14.82983810225386,0.07846599728637838
12.015352,14.841975622399957,0.07827108973634363
12.01944,14.854002417646118,0.07808006402285911
12.023523999999998,14.870171704892002,0.07786710483103146
12.027604,14.887459658812766,0.07764676622068674
12.0317,14.89824564480858,0.0774444346194727
12.035788,14.899838012254408,0.07726674182730618
12.039872,14.90097606242496,0.0770788899217574
12.043964,14.900651853545293,0.07688581303897439
12.048047999999998,14.899319702890683,0.0766975137591485
12.052132,14.896303843385981,0.0765096726033196
12.056216,14.892280042106332,0.07632719806814926
12.060247999999998,14.879627664451904,0.07617535446207876
12.064276,14.868991170347368,0.07601379985036678
12.068359999999998,14.864513051792448,0.07582075667458482
12.072444,14.865528959387536,0.0756144570835949
12.07648,14.871363126057485,0.07539011891307186
12.080568,14.871481816777559,0.0751851375947549
12.084647999999998,14.867900915097652,0.07498999904090553
12.088728,14.86644662186757,0.0747828933413652
12.092759999999998,14.862976445087597,0.07458488242968182
12.096836,14.857711834557598,0.0743902247330684
12.10092,14.850542065377644,0.07420204784583742
12.104952,14.843372296197687,0.0740144995417531
12.109044,14.837099743892745,0.07382567937170213
12.113087999999998,14.843155360362562,0.07359867845424373
12.117176,14.857618103407292,0.07334883920320859
12.121264,14.87735342280216,0.07309373305786054
12.125352,14.89955894302219,0.07284050391020402
12.129435999999998,14.925685505442077,0.07257341121973812
12.133527999999998,14.95349577671205,0.07230634840388635
12.137628,14.978725122256922,0.072041671592971
12.141716,15.010788610426552,0.07175206279382296
12.145812,15.045654474121152,0.0714567227018636
12.149908,15.080077438216012,0.07117481266761277
12.154008,15.11472185211074,0.07088920586536314
12.1581,15.152168641530443,0.07059816785160458
12.162136,15.19364719804993,0.07029056277668522
12.16622,15.238149579894257,0.06997101786591377
12.170303999999998,15.280968252888492,0.06965289472178805
12.174388,15.329834576532413,0.06931134207527506
12.178468,15.379033074876135,0.06896181121470642
12.182551999999998,15.429460964794675,0.06860377835635958
12.186636,15.474616278363078,0.06825176920798588
12.19072,15.515617682256224,0.06789841351283252
12.194812,15.55459178492395,0.06753573387944689
12.198895999999998,15.589190528116548,0.06717788800236206
12.20298,15.618848869658818,0.06681773824961179
12.207064,15.646369185075724,0.06644815233698169
12.211108,15.668395474342626,0.06608878546525103
12.2152,15.691872604984212,0.0657154273731755
12.219296,15.71714416937582,0.0653406186896204
12.223392,15.74151851689242,0.06496840306977587
12.227491999999998,15.761406780033958,0.06460235097331168
12.231524,15.78073000100029,0.06423041232237983
12.23556,15.79466992071655,0.06386506102390206
12.239596,15.80602891470771,0.0635011410462031
12.243679999999998,15.817498633598806,0.06313551881104684
12.247764,15.828181860514825,0.0627688973384189
12.251852,15.839086537230711,0.062397482738545354
12.255948,15.843489246021647,0.06203832585141295
12.259975999999998,15.846994737937571,0.06167978603833797
12.264004,15.845116928603426,0.061325761737569706
12.268092,15.843128394369343,0.06097347683090981
12.272171999999998,15.843831510760296,0.06061850576845732
12.276252,15.84106790222667,0.06028572767911452
12.280331999999998,15.838525743492912,0.059947454305294766
12.284364,15.831276050584227,0.05961714459630442
12.288391999999998,15.821899749225715,0.05929574716567785
12.292472,15.819357590491958,0.05895637519552505
12.296556,15.814799548208304,0.05862397459923271
12.300636,15.807095538024347,0.05828325936237376
12.304716,15.794794718565395,0.05794790918799078
12.308747999999998,15.78238317420651,0.05761452745055437
12.312836,15.763580386822605,0.057287095072919667
12.316924,15.745674816313711,0.056958072576867316
12.321016,15.724966870279847,0.05663277561805529
12.325112,15.700559331846003,0.05631180367449517
12.3292,15.673349417887188,0.055994303303040366
12.333223999999998,15.641210519953574,0.0556889308446602
12.337312,15.60795295534508,0.055387949652401944
12.3414,15.576600549386544,0.05508252837597355
12.345496,15.547939794053043,0.05477417243621865
12.349588,15.52140564716937,0.05445577477406052
12.353624,15.493974283410685,0.054137286242622505
12.357656,15.459254459751973,0.05382309682382587
12.36174,15.421621535668352,0.05351407647018706
12.365828,15.385561595534886,0.05320760496031711
12.36992,15.34950165540142,0.05289968283931729
12.374012,15.302797255343279,0.05261353637409916
12.378096,15.254409146435053,0.05232383549428782
12.382196,15.20266503750218,0.05204925809018237
12.386247999999998,15.151031653469241,0.05176988831564399
12.390348,15.096706618811265,0.05148948943859614
12.394388,15.04574900185347,0.051211550104600025
12.398495999999998,14.988289416970723,0.05093838751332512
12.402592,14.93071910718804,0.050666120592716975
12.406692,14.867211871655611,0.05040669284426882
12.410719999999998,14.798997101948252,0.050151249195462204
12.414811999999998,14.730671607340959,0.04989637697481332
12.418903999999998,14.66055167898364,0.04963945580641537
12.422992,14.580905957376528,0.04939592810326663
12.427084,14.496441976694554,0.04915923362841595
12.431176,14.406716837337976,0.04894110971692413
12.435264,14.304331354506829,0.04874813938854858
12.4393,14.201502972075943,0.04856435503279008
12.443383999999998,14.09262693899538,0.04839635139934202
12.447471999999998,13.980727080589974,0.04823544611540685
12.45156,13.861428037384606,0.048078095804848835
12.455655999999998,13.737421460004306,0.0479244434451936
12.45974,13.606580739999252,0.0477830265952289
12.463828,13.471818977794344,0.047648930746594674
12.467924,13.330001623164812,0.047534486757727805
12.47202,13.18325528456048,0.04742991591004362
12.476108,13.028212544281171,0.047329065160432136
