Time,Force,Position
13.455436000000002,0.2803942677090284,0.0
13.45952,0.27278505078472726,0.0
13.463604,0.2673024423102543,0.0
13.467688,0.2619305587357162,0.0
13.471771999999998,0.2563372253613083,0.0
13.475776,0.24917090803674655,0.0
13.479856000000002,0.24402047426207824,0.0
13.483948000000002,0.24211531561211974,0.0
13.488035999999996,0.24334470718693618,0.0
13.492124,0.2447955485616224,0.0
13.496216,0.2432225646114685,0.0
13.500303999999996,0.24399763891101262,0.0
13.504395999999996,0.24477271321055666,0.0
13.508487999999996,0.2513739883599112,0.0
13.512584,0.25495143818442567,0.0
13.516679999999996,0.2625606551087269,0.0
13.520779999999998,0.27106708890803993,0.0
13.524875999999995,0.27856558093240624,0.0
13.528967999999995,0.2852775809816956,0.0
13.533064,0.29557844853103227,0.0
13.537156,0.30587931608036895,0.0
13.541251999999997,0.3144964747796169,0.0
13.545343999999996,0.3227814587790602,0.0
13.54944,0.32793189255372857,0.0
13.553535999999998,0.33039067570336145,0.0
13.557636,0.33935142677794683,0.0
13.561731999999996,0.3434939187776685,0.0
13.565823999999996,0.3445018605526151,0.0
13.56992,0.3405808183527632,0.0
13.574015999999997,0.33654905125297646,0.0
13.578115999999998,0.33442244280314826,0.0
13.582216,0.3280426174536635,0.0
13.586311999999996,0.3246866174290187,0.0
13.590408,0.3146071996795518,0.0
13.594503999999995,0.30721943255512035,0.0
13.598603999999998,0.29680784010584876,0.0
13.602695999999998,0.2867284223563818,0.0
13.606792000000002,0.27866488815680823,0.0
13.610888,0.2686961953072762,0.0
13.61498,0.2582731851824718,0.0
13.619075999999996,0.25098472528244237,0.0
13.623172,0.24347481558254316,0.0
13.627267999999995,0.239775223182561,0.0
13.631364,0.23909945610741892,0.0
13.635456,0.24313122320720568,0.0
13.639551999999998,0.2365185303823183,0.0
13.643652,0.23472409663229463,0.0
13.647747999999996,0.23404832955715257,0.0
13.651788,0.23538844603190387,0.0
13.655872,0.2370607372064598,0.0
13.659960000000002,0.23693859463099204,0.0
13.663996,0.23894306050535258,0.0
13.668083999999997,0.23601854240491452,0.0
13.672172,0.23589639982944682,0.0
13.676264,0.23409054840389032,0.0
13.680351999999996,0.2297037712532332,0.0
13.684392,0.22397687762782484,0.0
13.688427999999998,0.21791780930261181,0.0
13.692516,0.21758563460280717,0.0
13.696564,0.21985722097916882,0.0
13.700611999999996,0.22496543590709944,0.0
13.704648000000002,0.2390800726117468,0.0
13.708648,0.2558213057436262,0.0
13.712728000000002,0.28697509725335896,0.008174228717380558
13.716771999999995,0.33222069011667343,0.016501346217794123
13.720848,0.4077194057593152,0.024637104183813464
13.724847999999998,0.5082329208577469,0.03291302552974521
13.728939999999998,0.6455471973625897,0.04093527212403897
13.73298,0.820903044524193,0.04882243610237124
13.737011999999996,1.0321738538927288,0.05667558824864738
13.740996,1.2829370752927114,0.06441617938694301
13.74504,1.5707225078989748,0.07206253812762405
13.749076,1.8965266758109331,0.07964460711704192
13.753123999999996,2.2619111453032072,0.08708824064748755
13.757212,2.6583580649009515,0.09453796750855271
13.761259999999996,3.089124127404408,0.10198995833934749
13.765351999999996,3.553987883013708,0.1094467155060281
13.76944,4.053846548603864,0.11688038110050986
13.773527999999995,4.585775606074434,0.12428433818700019
13.777579999999997,5.148522828499539,0.13165528233695012
13.781676,5.73781216362846,0.139009292149601
13.785704,6.348016025060186,0.1463393077682772
13.789688000000002,6.9793330272435234,0.15362437984491895
13.793775999999998,7.6195114732770435,0.15269063006147668
13.797867999999998,8.265493284809308,0.15154052478304428
13.801948,8.900197088188495,0.1505479296482888
13.805980000000002,9.520320519912229,0.14934599567814177
13.810084,10.103864640029418,0.14838719926052227
13.81412,10.650031538889461,0.1475389357521749
13.818104000000002,11.159829158267296,0.1467058842781065
13.822155999999996,11.63090943991323,0.1459665877550411
13.826199999999996,12.063726701102533,0.1453062084700715
13.830283999999995,12.466588761185713,0.1446611461662594
13.83436,12.83267289521355,0.1441434120874893
13.838440000000002,13.175990980810894,0.1435688585301409
13.842468,13.492832007902226,0.14294475906405946
13.846548000000002,13.779152791712232,0.1422850286417291
13.850627999999997,14.027997047040685,0.14163724745809814
13.854716,14.239586223687454,0.1409944619216289
13.8588,14.411572263402842,0.14038093295159917
13.862883999999998,14.551132901186937,0.13974576597033403
13.866975999999998,14.658955321790424,0.13910977082027873
13.871064,14.737078244114258,0.13849872509823036
13.875151999999996,14.7904534874843,0.1379103593260529
13.879243999999996,14.818428120176478,0.13738417534744252
13.883328000000002,14.83144798766666,0.13688004766061723
13.887412,14.833235517705896,0.13641593002558605
13.891496,14.832319979444563,0.13594529551042925
13.895583999999996,14.828369198182857,0.1354785937375497
13.899668000000002,14.824074824545816,0.13499962211898434
13.903755999999998,14.817531699883476,0.13452205882389778
13.907852000000002,14.806613215746015,0.13406651923630958
13.911944000000002,14.787619779733445,0.13365981175867905
13.91604,14.76379666697048,0.13326757934530517
13.920128000000002,14.732120052132277,0.13291726001950957
13.924224,14.697419611969236,0.13259330056917223
13.928319999999996,14.661821954931181,0.13227409403609322
13.932416,14.63138614934333,0.1319298631276368
13.936511999999995,14.60185897830602,0.1316015545357951
13.940611999999998,14.576940034219238,0.131264735473673
13.944708000000002,14.553384041958275,0.13095263842506605
13.948800000000002,14.53679575257307,0.13062815239075304
13.952896,14.520783923038604,0.13033015239462245
13.956996,14.506467220029757,0.1300471796106074
13.961091999999995,14.496082976896297,0.12975517065199352
13.965188,14.489066151463014,0.1294494265190053
13.96928,14.480377034855175,0.12917238096405148
13.973375999999998,14.475509653222785,0.12889034412413405
13.977472000000002,14.476369165215806,0.12859049640066036
13.981568,14.479255978434251,0.12829654925687436
13.985663999999996,14.485964526628146,0.12799831841869633
13.98976,14.499850809822135,0.1276603606644738
13.993855999999996,14.515985844041422,0.1273204896644085
13.997888,14.53840139638579,0.12694651597398393
14.00198,14.560030456755081,0.12657384531522262
14.006072,14.578292099424196,0.12621456138796516
14.010159999999996,14.592964874593264,0.1258750848210067
14.014251999999995,14.604159507162219,0.12555283949809012
14.018339999999998,14.616804981105862,0.12520916126468212
14.022375999999998,14.630569121724385,0.12485429931054837
14.026464,14.642871003292687,0.12449888973904862
14.030503999999995,14.651805467160813,0.12415727303273029
14.0346,14.666001089703542,0.1237691849824445
14.038647999999998,14.684560654045862,0.12334076073903387
14.042675999999997,14.70737343528784,0.12287601385910513
14.046711999999996,14.731526333004568,0.1223958160550951
14.050748000000002,14.759145955645876,0.12187953891115465
14.054832,14.787097752986988,0.12135539419838125
14.058863999999996,14.809776973977964,0.12085611243163322
14.062943999999998,14.829985994143776,0.12036430990541645
14.066971999999996,14.847614088584487,0.11988291595178924
14.071056000000002,14.864455691050122,0.11940471703311206
14.075148000000002,14.886669177090292,0.11888067296562486
14.079232,14.905515245430287,0.11836893880684321
14.083279999999998,14.931084731495103,0.11781685499959314
14.08736,14.95967804288476,0.11724328025427765
14.091387999999998,14.996678480849328,0.11662546152541706
14.095468,15.034686860588842,0.11600168709793028
14.099548000000002,15.073481732303431,0.11537968970549788
14.103571999999996,15.115300429342863,0.11473955663781443
14.107648,15.164739760982128,0.11405919871693887
14.111684,15.215076309496407,0.11337756782513159
14.115764000000002,15.266642249585498,0.11268919075781107
14.119851999999998,15.314508597274608,0.11202400624963656
14.123943999999998,15.361477728088705,0.11136870351051793
14.128032,15.409011901078012,0.11072388393008467
14.132119999999995,15.461142883342314,0.11006420020487409
14.136211999999995,15.518092124681477,0.10938385467984515
14.1403,15.58232982592067,0.10867603163700187
14.144339999999996,15.65295877018488,0.10794540264294987
14.148428,15.731651248648667,0.10716912668426429
14.152516000000002,15.812138160862476,0.10639176397753267
14.156608000000002,15.891727856201275,0.10562607822517037
14.160695999999998,15.978151694164826,0.10482939646589966
14.164787999999998,16.057287072228352,0.10406643653331508
14.168876,16.13843833384177,0.10329710126158496
14.172963999999997,16.217119394630018,0.10254050059927053
14.177055999999997,16.29961077271819,0.10177154182014325
14.181147999999997,16.384228759256185,0.10099393637709236
14.185244,16.467838804019237,0.10022890989609792
14.189339999999998,16.545954822632282,0.09949175268443483
14.193431999999998,16.62440301594513,0.09875026397613401
14.19752,16.69792222528318,0.09803920006717269
14.201612,16.772670826196048,0.0973206605796618
14.205704,16.845059951183682,0.09660713435479325
14.209791999999997,16.912397949621052,0.09590438464806397
14.21388,16.97233676325846,0.09523368773879909
14.217972,17.022184741470866,0.09460076886794828
14.222011999999996,17.064965709583113,0.09398894284098394
14.226108,17.098774508945244,0.09340460681276687
14.230203999999995,17.12003368973274,0.09287648917894954
14.2343,17.138146902619926,0.09234931151746265
14.238395999999998,17.147963713832137,0.09184988935951269
14.242487999999998,17.146460298044534,0.0913940345774304
14.246584000000002,17.14977514133179,0.09091835130742162
14.25068,17.147595958469044,0.09046021597716221
14.254775999999996,17.13712037393132,0.09002828934227534
14.258872,17.118459112618556,0.08961977525428702
14.262964,17.093185158480903,0.08923502382369931
14.267064,17.064433061743134,0.08885624346807128
14.271156,17.028957547280548,0.08850241777423136
14.275192,16.990790382192934,0.08815438250555423
14.27922,16.953852608680126,0.08779530156638422
14.283308000000002,16.912883068067536,0.08745467835234111
14.287395999999998,16.86754958565535,0.08714020040467683
14.291496,16.82569424584328,0.08681877400263185
14.295576,16.783617456231337,0.08650152403177032
14.29966,16.743224375469484,0.08618107681543682
14.303748000000002,16.705190770632868,0.08586141561582866
14.307835999999998,16.673326959021395,0.08552908028499831
14.311924,16.65065676595991,0.08517006131746543
14.316016,16.62833016527376,0.08482207884370035
14.320064,16.60937098228779,0.08447002659292073
14.324167999999997,16.595905825451823,0.08410221674640839
14.328216,16.577290234841193,0.08376029218018154
14.332292,16.559350411305697,0.0834208849357029
14.336384,16.547469656095423,0.08307239252063908
14.340479999999996,16.541758694110293,0.08271270580684068
14.344556,16.539193700025468,0.08235561359974469
14.34864,16.53686157341605,0.08201254343226674
14.352727999999995,16.545296049306774,0.08164676637646086
14.356756,16.556765768197867,0.08128760276662621
14.360787999999996,16.567571137689352,0.08094517772784998
14.364819999999998,16.58253041685609,0.08060195362563995
14.368903999999995,16.602762272372967,0.08025055992740719
14.373,16.623226995365247,0.0799147585506414
14.377092,16.64605119428276,0.07958207150712954
14.38112,16.674823736625545,0.07924609191876089
14.3852,16.70516926291849,0.07891321446384345
14.3892,16.733277455861668,0.07859564413183485
14.3933,16.761053474105037,0.0782880342270032
14.3974,16.78849731764861,0.07798904415809421
14.4014,16.82300817129234,0.07768100437550428
14.405492,16.860775717736313,0.07737611166456328
14.409476000000002,16.904148015230223,0.07705734423901808
14.413512,16.952006397099197,0.07673213155813871
14.417599999999997,16.9996433291683,0.07641369021210304
14.421691999999997,17.04705881143753,0.0761025796438469
14.425788,17.09099615110665,0.07579496192053223
14.429883999999998,17.138178765900484,0.07547122028234639
14.433975999999998,17.180088804344177,0.07515578707205227
14.438072000000002,17.218742149987627,0.07483953204176523
14.442168,17.258059845030683,0.07450895199349497
14.446263999999996,17.293555805098297,0.07417096626392107
14.450355999999996,17.323214146640566,0.07383280887398626
14.454452,17.34927220300725,0.07348178241403416
14.458544,17.37352440794838,0.07311514332541547
14.462631999999996,17.392946936139115,0.07274507757171221
14.46672,17.405745353829428,0.07237276124166367
14.470815999999996,17.413824819669276,0.07199232389084294
14.474912,17.415390899908644,0.07160702223512319
14.479004,17.416048345597467,0.07120387685014716
14.483096,17.407722204860633,0.07079467992878154
14.487191999999997,17.391088244773297,0.07038218881025964
14.491283999999997,17.37130831678565,0.06996475395114193
14.49538,17.346698712047605,0.06954159407878435
14.499475999999998,17.316472938584088,0.06911008537850775
14.503572000000002,17.27951232972022,0.06867634231593064
14.507668,17.250836704855786,0.06820812431851171
14.511763999999996,17.215094069891197,0.06774481971506387
14.515863999999995,17.178221350576194,0.06726716044457727
14.51996,17.142688747735946,0.06677726470249916
14.524052,17.102670060520634,0.06629077520030209
14.528147999999998,17.058841056005402,0.0658104506599138
14.532244000000002,17.019265268389834,0.06530902390280682
14.53634,16.97879226389925,0.06480626014445459
14.540432,16.935184709183893,0.06431410952397555
14.544532,16.887877562068553,0.06382554116946403
14.548627999999995,16.84494577442834,0.06333275840334253
14.552719999999995,16.80750801293813,0.06283020669644294
14.556816,16.771643235398074,0.062328618841200736
14.560915999999995,16.733762574308127,0.06183176164509801
14.565007999999995,16.69611478069358,0.06134670766666943
14.569107999999996,16.662055854579084,0.06085610362518962
14.573204,16.625305277839548,0.06036601859992309
14.577299999999996,16.58710385972533,0.059887252182301336
14.581396000000002,16.551372642436274,0.059408819258660664
14.585492,16.5193410175472,0.058922695451267465
14.589524,16.479467308258425,0.05845658083096698
14.593608,16.444976900219718,0.0579847875751508
14.597644,16.407916984131447,0.057529771829200285
14.601727999999998,16.368398284893537,0.05708985945134027
14.605819999999998,16.332357728255744,0.056648394149399456
14.609908,16.307415948817898,0.05619211174944393
14.613992,16.284390745705544,0.055752360934002654
14.618028,16.26361429361848,0.05532018422787861
14.622111999999998,16.24452155038151,0.05488778449199914
14.6262,16.2324958172447,0.05445362633468849
14.630284,16.219572867232873,0.05401935062644918
14.634364,16.203515366996275,0.053595903374905184
14.638448,16.18723641695981,0.05317626400877576
14.642528000000002,16.173095493048702,0.05276736065703994
14.646559999999996,16.1618676695625,0.052351352189123374
14.650595999999997,16.148070338026727,0.05195272439181089
14.654684,16.132600715316407,0.051570535462793325
14.658776,16.11690964280621,0.05119185176784119
14.662863999999995,16.10077567069628,0.050822286442509704
14.666943999999996,16.08196146563684,0.05047268383265087
14.671027999999996,16.058894043677746,0.050137138596732134
14.675116,16.029668246169038,0.04981969046501537
14.679196,16.00111821573547,0.04950545871051452
14.683275999999996,15.966741984452096,0.04920043007885968
14.687307999999998,15.92519943584416,0.04891571256304269
14.691388,15.868980660211756,0.048660778631960035
14.695528,15.80054444070453,0.04841869085442991
14.699608,15.724266136797597,0.04819133998807521
14.703680000000002,15.646536991515978,0.047975569408465465
14.707711999999995,15.557155444534738,0.04778038235501557
14.711747999999996,15.461504797103947,0.04760471890019479
14.715831999999995,15.359474324323672,0.047451976338022846
14.719919999999998,15.254087851518753,0.04731365172729901
14.723964,15.141080744114,0.0471847599132994
14.728004000000002,15.023598970009719,0.047075641748974446
14.732035999999995,14.901974703905717,0.046979122541032634
14.736124,14.775310728926982,0.04689520286590923
14.740216,14.647306637473493,0.046820715876271055
14.7443,14.515946545995368,0.046761896547876956
14.748344,14.380443962517514,0.04671670465831127
14.752436,14.246514362989817,0.0466758314930122
14.756531999999996,14.111244646987366,0.04664571362914445
14.760628,13.972951105660073,0.0466227219035557
14.76472,13.837349214957818,0.04659839764228541
14.768759999999997,13.701636599355632,0.0465764778725611
14.772851999999997,13.570631517928371,0.04654783929101735
14.77694,13.443780346176363,0.04652786170349561
14.781027999999996,13.317715666399433,0.04651043092175935
14.785116,13.188848611097535,0.04649492330292442
14.789204000000002,13.064578365070632,0.0464759892704166
14.793291999999996,12.939865219443988,0.046470063869753664
14.797383999999996,12.820191782692078,0.046447958769964735
14.801472,12.699510404165222,0.046428469637160456
14.805564,12.582307168238478,0.046411886880502726
14.809651999999996,12.460396398136806,0.04640136518282882
14.813743999999996,12.340501511585027,0.046384113931494275
14.817835999999996,12.225314159208176,0.04636015129159182
14.821927999999996,12.105308547756463,0.046346085739069426
14.826024,11.984627169229604,0.046324874838118535
14.830116,11.8652859071775,0.046289483068072
14.834211999999996,11.743707311775633,0.04626828704148884
14.838311999999998,11.622239441273699,0.04624359183222175
14.842407999999995,11.501447337846907,0.04622581433769956
14.846439999999998,11.378307176170418,0.04622621904679565
14.850528,11.257072173143886,0.0462225812228476
14.854615999999996,11.134718503442473,0.04622539727728327
14.858704,11.012475558640997,0.0462248273738313
14.862791999999995,10.894940148014447,0.04621611929357582
14.86682,10.77919917113792,0.046206564578892384
14.870899999999995,10.661553035611437,0.04620009159769084
14.874984,10.546144233434717,0.046178841053707266
14.879068,10.430513981458127,0.04616351381426439
14.883152,10.31667816323156,0.04614809282224297
14.887232,10.199929244580089,0.04614099697903377
14.891308,10.085982701453588,0.04613027635033501
14.895391999999998,9.97192543342715,0.04612297232701521
14.899472,9.858543932475856,0.04612390178648469
14.903552,9.750988632374371,0.04610847256433022
14.907639999999995,9.642314665598004,0.04610107930388573
14.911723999999996,9.532189857446953,0.04611540164987504
14.915759999999995,9.425310324420611,0.046108679691348305
14.919852000000002,9.319438733169218,0.04609690447395949
14.923936,9.212780649942745,0.04608075360590272
14.927967999999996,9.109257116941048,0.04604741909390652
14.932052000000002,9.00461491726447,0.04602260514923951
14.936139999999998,8.896162400287974,0.04600729176673814
14.94022,8.785915449561454,0.04599140784546049
14.944295999999998,8.670850239760075,0.04598854349850508
14.948379999999997,8.551974712658774,0.04599484006010724
14.952456000000002,8.435115069107365,0.04598995129030053
14.956543999999996,8.314334383356108,0.04600013629716121
14.960624,8.187838221654975,0.04602581981925733
14.964716,8.056855975578781,0.046051162865058566
14.968799999999998,7.923292803777486,0.046073765600236266
14.972896000000002,7.7916347906261505,0.04609028997159006
14.976992,7.655601417999691,0.046099702326124224
14.981087999999996,7.515303410798041,0.04609699109988108
14.985176,7.370187144521529,0.046109496867029164
14.989264000000002,7.22518160314495,0.046117088626652876
14.993356000000002,7.078713802718154,0.0461096316898164
14.997448000000002,6.926641251241417,0.04611053235536212
15.001535999999998,6.7698611655897505,0.04612298072039742
15.005619999999997,6.606689836913066,0.046142312240002196
15.009711999999997,6.436119323436417,0.04617411833902726
15.013803999999997,6.263975826009615,0.04619159213459667
15.017892,6.093172445057563,0.04617962450276899
15.021979999999996,5.922479789005447,0.04615680101848315
15.026071999999996,5.749095482328295,0.046135983239597465
15.03016,5.574027466801055,0.046107099827455755
15.034252,5.389433658024022,0.04611907143183592
15.038344,5.2061799657217405,0.04609471712281962
15.042439999999996,5.022250506344316,0.04605536026056561
15.046531999999996,4.841123422491863,0.046000640584399684
15.050628,4.661225730214226,0.04590700362715984
