Time,Force,Position
13.189716,0.024113987609623206,0.0
13.193756,0.023781812909818602,0.0
13.197848,0.025354796859972502,0.0
13.201944,0.02749282298533362,0.0
13.20604,0.030417341085771682,0.0
13.210132,0.03356330898607948,0.0
13.214116,0.03725801232805876,0.0
13.218204,0.04285787431999656,0.0
13.222244,0.04633601692010898,0.0
13.22628,0.051719318170179926,0.0
13.230368,0.058105672137194656,0.0
13.234452,0.06337335942932784,0.0
13.238532,0.06785455474638406,0.0
13.242616,0.07132780828849358,0.0
13.24666,0.07659549558062677,0.0
13.250704,0.08287112464770663,0.0
13.254703999999998,0.08724648412283088,0.0
13.258732,0.09755876934770041,0.0
13.262811999999998,0.10775544061463219,0.0
13.266896,0.11661688446481555,0.0
13.27098,0.12099224393993976,0.0
13.275008,0.1293993705148508,0.0
13.279056,0.13018586248992775,0.0
13.283144,0.13320968781476783,0.0
13.287188,0.1363442380395428,0.0
13.29128,0.13757362961435923,0.0
13.295324,0.1386922962892408,0.0
13.299356,0.13801652921409868,0.0
13.303392,0.13633282036400993,0.0
13.3074,0.13375189463890932,0.0
13.311444,0.12959798496365482,0.0
13.315484,0.12846790061324043,0.0
13.319532,0.12812430823790294,0.0
13.323624,0.12979659941245886,0.0
13.32772,0.13169034038688454,0.0
13.331812,0.13156819781141685,0.0
13.335872,0.13324048898597277,0.0
13.3399,0.1263949286856828,0.0
13.343996,0.11966009328532769,0.0
13.348088,0.11001215746006739,0.0
13.352112,0.10071270306814743,0.0
13.356208,0.08850014825132228,0.0
13.360244,0.08288397952584874,0.0
13.364296,0.07526823398401755,0.0
13.36832,0.0677469066085855,0.0
13.372364,0.06683827205804083,0.0
13.376456,0.06704830418237771,0.0
13.3805,0.06613966963183304,0.0
13.384592,0.06657115155603968,0.0
13.388672,0.0659946917052996,0.0
13.392768,0.06541823185455954,0.0
13.396852,0.06405528002874253,0.0
13.40094,0.06280305310286038,0.0
13.405028,0.05964566752701972,0.0
13.409056,0.052677964651262024,0.0
13.413116,0.04652447815964987,0.0
13.41722,0.0394737747930259,0.0
13.42126,0.03511472205143739,0.0
13.425356,0.03296527825054343,0.0
13.429388,0.033728934874554674,0.0
13.433476,0.03593854381524921,0.0
13.437512,0.03814815275594375,0.0
13.441596,0.040374068430174034,0.0
13.44564,0.0463939946707856,0.0
13.449732,0.05220877784506318,0.0
13.453828,0.05578622766957761,0.0
13.457808,0.06128025381958342,0.0
13.4619,0.07183682419538841,0.0
13.465936,0.08937251512248395,0.0
13.46998,0.11490668605134956,0.0
13.474068,0.1570907487078317,0.007348750825141066
13.478112,0.20955629541797854,0.015561748231670003
13.482196,0.28520795480729294,0.023526453952516034
13.486236,0.3814762188262072,0.03172298021461992
13.490276,0.5036336638248574,0.039876150227309955
13.494304,0.6561272320937014,0.04769063035174215
13.498336,0.827775145941926,0.05563717052116903
13.502416,1.0192417547691408,0.06360516126618368
13.5065,1.2268551905844323,0.07162470383466447
13.51058,1.4561810623531395,0.0795076536890942
13.514624,1.7048713118255643,0.08738928357263931
13.51866,1.973490981176914,0.09528098925093315
13.522692,2.261597170807449,0.10320093049442314
13.526784,2.567517589542614,0.111172156115289
13.53082,2.8974106129320227,0.11911097051567165
13.53482,3.2479088232755,0.12704207629186284
13.538908,3.6136175016474397,0.13499731820880223
13.542912,3.994735262496647,0.14290009241571971
13.546948,4.382954286472614,0.15080806222085136
13.551032,4.782947854723671,0.158604050656912
13.55512,5.176748794398514,0.1590154541903516
13.559168,5.570149053320354,0.15845751419094448
13.563216,5.940031024863223,0.1581596387889228
13.567252,6.295454767326107,0.15753665952207674
13.571228,6.627891011558626,0.1568991946785406
13.57528,6.925355181161358,0.15663301606626737
13.57938,7.207242455009222,0.1561575973470749
13.583432,7.471437642327925,0.15562333123313396
13.58752,7.720078769242827,0.15501187641352038
13.591612,7.942754243304655,0.15460147281532705
13.595592,8.15122719111297,0.1541438083766687
13.599684,8.343359586542407,0.15363676473312102
13.60378,8.517345578167408,0.1530596408614347
13.607824,8.673284473212378,0.15236755682510464
13.611864,8.806247287702519,0.15166354665082749
13.615964,8.917917730487915,0.15092307498994906
13.620056,9.010101652994125,0.15014936920066121
13.6241,9.081470356421931,0.14942452191728073
13.628188,9.140553109921711,0.14865948902490017
13.63228,9.183673156444549,0.14798271255059167
13.63632,9.217122431791061,0.14734177015376315
13.640408,9.238785745186952,0.14680952939119918
13.64444,9.263915783507425,0.14621116078956592
13.648532,9.283441070777952,0.14568781027290914
13.652568,9.304207167298832,0.14517753183566823
13.656652,9.331253781944794,0.14459899319820937
13.660692,9.357636047191146,0.14406106195022028
13.664784,9.3816702541878,0.14357119957200926
13.668816,9.408285386909554,0.14306444631056334
13.672908,9.445655704455918,0.1424164355945983
13.677,9.479769329202039,0.1417955866851378
13.681032,9.513317911772955,0.14117454215501035
13.685116,9.546534319644065,0.1405743679571368
13.689208,9.577856986540747,0.14003506681768615
13.693292,9.608293854237951,0.1395401030366658
13.69738,9.638852864510625,0.13907636790589192
13.70146,9.674463001333564,0.1385805261609485
13.705496,9.718037365131675,0.13802013696950485
13.709572,9.761058104430111,0.13748965884187184
13.713616,9.80094429350377,0.137005202909694
13.717644,9.842514191427519,0.13651069123934376
13.721732,9.888902348426134,0.1359633587779665
13.725708,9.93125873832496,0.13547283839655164
13.729788,9.975863879249085,0.13498107769069911
13.733828,10.017113020148564,0.13454625888399832
13.737908,10.057808536548368,0.13413979594276565
13.741936,10.0957016774232,0.13376504151326887
13.74604,10.137848035197692,0.1333313966350681
13.750128,10.176405525472134,0.13293314563938555
13.754212,10.205880122096524,0.1326211618233738
13.758296,10.235465443620848,0.13230672131180746
13.76238,10.261240447845255,0.13203407624748845
13.766408,10.285663917919377,0.13175839519664792
13.770444,10.31187040406799,0.1314380546790893
13.774492,10.33672535606632,0.13111253222879954
13.778584,10.359896599214563,0.13079735023665862
13.782676,10.379478974862757,0.1305138162466557
13.786708,10.389424832361223,0.13033378275056037
13.7908,10.399027097484353,0.1301374059984774
13.794844,10.410190928882102,0.12990435418042312
13.798876,10.422019109679464,0.12964366858282725
13.802924,10.426337380776921,0.12945503031953542
13.807016,10.431552868749394,0.12925913913363304
13.811108,10.434076706096828,0.12908489737054843
13.8152,10.436821993244134,0.12890063380554248
13.819296,10.437994296441286,0.1287210181953589
13.823392,10.44050671611319,0.12851530566001157
13.827424,10.438311601610165,0.12835511173131864
13.831472,10.433867736081845,0.12819663098234568
13.83556,10.431661203903285,0.12800464324288346
13.839604,10.423284878499581,0.12785658093026991
13.84368,10.415240727795677,0.12769377816210375
13.847776,10.406864402391971,0.1275452952910034
13.85182,10.397369410313386,0.12741323226754228
13.85586,10.386755751559917,0.12729728033812818
13.8599,10.375355600831371,0.12718316773282207
13.864004,10.364176899902695,0.1270591801969816
13.868048,10.35478121504851,0.12688929725665818
13.872148,10.341907387594212,0.12674199699350097
13.876192,10.331270893489675,0.12656131770149082
13.880288,10.318950690535052,0.12638926541353865
13.884384,10.312567413330171,0.1261521127849543
13.888476,10.307745702399915,0.1258796316807162
13.892508,10.307287933269249,0.12554757601659738
13.896556,10.30828100551327,0.12518499050160292
13.900608,10.310282019532236,0.12481090242090877
13.904648,10.308927033526558,0.12448515106221764
13.908704,10.310595872845719,0.12412586846395034
13.912812,10.314734912990048,0.12375636114214345
13.9169,10.323138587709565,0.1233661209654729
13.920948,10.336704113879286,0.12294512139253795
13.924983999999998,10.353747782649117,0.12250468066706434
13.929084,10.370791451418949,0.12206473418946151
13.933116,10.385487061939081,0.12166179001296022
13.937172,10.409154841209332,0.12119753347155846
13.94128,10.437308704854644,0.12070315452946904
13.94538,10.467035552450104,0.12020780912584783
13.94944,10.501813526595837,0.11969156479887666
13.953488,10.542761293966713,0.1191387347355395
13.957584,10.581361003087894,0.11862484539464828
13.961632,10.617612653959377,0.11814657072627333
13.96566,10.65151624658116,0.11770614492477788
13.969652,10.684079722728193,0.11729259332657349
13.973696,10.711492765100559,0.116938577218097
13.977692,10.738684357673053,0.11659524644883451
13.981732,10.768899775570388,0.11622347218564516
13.98576,10.803024817992043,0.11578530912468854
13.989856,10.832553051138706,0.1153816781117064
13.9939,10.861737691910028,0.11496310190808952
13.997984,10.884076772381059,0.11457870225412627
14.002064,10.908198868926585,0.11415544059743239
14.006116,10.930969431321822,0.11372864611742321
14.010108,10.955412284891617,0.11326723512754723
14.014204,10.979843720785881,0.11277529374155838
14.0183,10.99697527910458,0.11230477892549758
14.022396,11.010063652647961,0.1118447218036837
14.0265,11.022132666740864,0.11136635503673804
14.030528,11.027909745033147,0.11089550721762367
14.03462,11.031880971899874,0.11040814069039054
14.038647999999998,11.034722114416189,0.10990461690403276
14.04264,11.041251431656951,0.10934726008160471
14.046732,11.046982839247107,0.1087607646289695
14.050828,11.055505204686698,0.10812781329971552
14.054863999999998,11.06670780307579,0.10745063304232866
14.0589,11.078685475764427,0.10674500289118638
14.062932,11.088746572127576,0.10602770320587554
14.066968,11.095783843165886,0.10533843585208164
14.071008,11.105279897353826,0.10461328156341498
14.075048,11.116226792916452,0.1038650098964935
14.079128,11.12941102182884,0.10308994413505626
14.083171999999998,11.140800816991206,0.10232740992522525
14.087204,11.147925977578382,0.10157836867742183
14.091244,11.156169804840438,0.10082053001998242
14.09532,11.167437457427335,0.10003878062679619
14.099363999999998,11.17500551761425,0.09927482692044963
14.103444,11.184921636050863,0.09848226118809153
14.107419999999998,11.193043320737454,0.09769866884659487
14.111504,11.204643148024157,0.09690238154669076
14.1156,11.211424716235994,0.09613901979593492
14.119644,11.221340834672606,0.0953485204703336
14.123732,11.230359736234208,0.0945648629433496
14.127828,11.244196896870672,0.09375311306131676
14.131916,11.252429306457197,0.09297336614237614
14.135952,11.261669657818668,0.09218878455384129
14.140035999999998,11.269791342505258,0.09141748420970318
14.14412,11.276351460917226,0.09067554810668643
14.1482,11.286611171729175,0.08991722945023656
14.152288,11.300238300241304,0.08915674668979416
14.156372,11.313201079353822,0.08842383116544894
14.160456,11.328634059291506,0.08769192531296156
14.164492,11.34518570590407,0.08695201035976353
14.168588,11.368350045341524,0.08618058443756145
14.172684,11.387814792378993,0.08542846838249836
14.17678,11.406947364716663,0.08469205379941766
14.180827999999998,11.43796520622935,0.08391322714924075
14.184919999999998,11.471342523667271,0.0831433997432119
14.188956,11.508530158405108,0.08235847583663165
14.19304,11.548630893567852,0.0815638069774928
14.197076,11.593328438005589,0.08075345970012132
14.201156,11.634669982418679,0.07997727332251993
14.205248,11.673098426406863,0.07921811297152542
14.209295999999998,11.706154986820513,0.07850613153883962
14.21338,11.74325473200948,0.07779819323320215
14.217375999999998,11.777330651873612,0.07711177199270325
14.221448,11.815106164137722,0.07641681702450856
14.22548,11.852316634226627,0.07571415304371314
14.229568,11.887167628390303,0.07501095223134921
14.233652,11.917753987978788,0.07431478110762016
14.23774,11.946091596541974,0.07361195594036604
14.241827999999998,11.972966946054942,0.07290614460860916
14.245815999999998,12.001636729317934,0.0722020199985261
14.249896,12.024480311731116,0.07152707067770403
14.25398,12.045983777669548,0.0708681245143794
14.25806,12.064906317882878,0.07021257178853656
14.262144,12.075532456421234,0.06958468287007849
14.266232,12.080553843909646,0.06897562047820159
14.270267999999998,12.085353781598188,0.06837704292327577
14.274348,12.087805661037034,0.06780249077968671
14.278436,12.090146815575944,0.06723337936531311
14.282476,12.099211387839677,0.06664207223901983
14.286572,12.112762044478469,0.06604450826944823
14.290664,12.127542092692076,0.06543476866270072
14.294752,12.142432865805619,0.0648237037470785
14.298848,12.162706940169231,0.06420729267821217
14.302936,12.182648839833039,0.06360609644812648
14.306916,12.20663392427217,0.06301498420595447
14.310911999999998,12.232867759736596,0.06243685801752914
14.314944,12.263255504876275,0.06186605977566041
14.31898,12.295781276141314,0.06131083352560318
14.323068,12.325737539356783,0.06078303015234906
14.327151999999998,12.348527485247695,0.06029116979668104
14.331188,12.376479282588807,0.05980183319165979
14.33522,12.41093304785487,0.059301165839290494
14.339247999999998,12.447746289046165,0.058809717870274725
14.343284,12.488037672837573,0.05832036821407349
14.347316,12.535728241428945,0.057820823127307026
14.351404,12.577371159370635,0.05734769604141797
14.355491999999998,12.61744109336217,0.05687149944197963
14.359568,12.657400302453775,0.05640163713304886
14.363647999999998,12.691533310695563,0.05595299147106079
14.367728,12.718942901212536,0.055522781656884374
14.371807999999998,12.747814750779726,0.05510278147918651
14.375888,12.77467071679702,0.054691956264150736
14.379972,12.790992947789576,0.05430738325154388
14.384,12.79801083533221,0.05393781282176521
14.388036,12.797297363375073,0.053588792341838595
14.392124,12.79165490744314,0.05325553247514611
14.396204,12.777605324936294,0.05293581613918478
14.40024,12.758061716279446,0.05262106710994006
14.404336,12.73773161564752,0.05230208214087874
14.408368,12.715496356365634,0.051984903838569456
14.41246,12.683956753633826,0.051680511096902734
14.416548,12.639756807427451,0.051409814955063186
14.420635999999998,12.590627877246277,0.05115305135376328
14.424727999999998,12.528162836515392,0.05092226154052437
14.428819999999998,12.44631403458512,0.05074026469534109
14.432852,12.360544190454995,0.050567942405578256
14.436888,12.264694928575402,0.05043103084953705
14.440984,12.159098423646146,0.05031924686804346
14.444968,12.043754675667229,0.050233068599997384
14.449056,11.931778345388489,0.05015059834342831
14.4531,11.807473846334986,0.050091632455751225
14.457152,11.674651495806637,0.05004717516886791
14.461068,11.538805319953449,0.05001414259789456
14.465059999999998,11.400278911150759,0.05001170252102033
14.469096,11.257044968173139,0.050018880580296125
14.473136,11.105968940795815,0.050052246530354706
14.477163999999998,10.950528971618901,0.05011481216122951
14.481212,10.789938568667319,0.05020313451496812
14.485291999999998,10.622292573291107,0.05032169208922788
14.489335999999998,10.450504085915174,0.05046526537671569
14.493368,10.275359598514598,0.05063803568893893
14.497456,10.10212026976398,0.050810061962969055
14.501487999999998,9.922268248188473,0.05100044569338049
14.505523999999998,9.748807469637985,0.05118692874962364
14.509615999999998,9.585769701212302,0.05135357766461893
14.513707999999998,9.42362914966163,0.051523260117054305
14.517799999999998,9.26339375676092,0.051694673593513596
14.521891999999998,9.102936914060335,0.05188158601456487
14.52598,8.945171721984787,0.05207387170603863
14.529964,8.778102186459316,0.052288884695031075
14.534043999999998,8.614732243333828,0.05250415606000652
14.53808,8.452038067283482,0.05273533206141969
14.542112,8.292146266758106,0.05296670037150918
14.546195999999998,8.133705307607416,0.053180824038780376
14.550224,7.978398898681502,0.05337577461229274
14.554256,7.824432606230339,0.053557901618497085
14.558336,7.674608805778897,0.05371602120925728
14.562312,7.529935439102124,0.05383924085861162
14.56634,7.384364855550338,0.053974076806679976
14.570424,7.2402451133732395,0.054085850255984426
14.574455999999998,7.097244037871022,0.05419552978546765
14.578544,6.95155131174377,0.05431387760680664
14.582536,6.806755802491529,0.054441820056342745
14.586628,6.656134092389476,0.054612700227009904
14.59072,6.499121139262408,0.05480503582145052
14.594812,6.339527260410239,0.05500238919877019
14.598904,6.179036164683057,0.055216965215539454
14.602936,6.017869301880735,0.055435575796427494
14.60702,5.857034613778215,0.05564101684275181
14.611003999999998,5.694294767025739,0.055884328101539295
14.615092,5.530768428298184,0.056134713096029014
14.619184,5.369147248220588,0.056391353667160124
14.623228,5.207636793042927,0.05665148142070469
14.627312,5.044331904115242,0.056931141231774396
14.631396,4.876884523187836,0.05728966057435455
14.635483999999998,4.7141446764353585,0.057624524517759956
14.639571999999998,4.546808020407887,0.057999791283272276
14.643663999999998,4.37051061330583,0.05852989857084773
14.647748,4.196339814653601,0.05907390294077757
14.65184,4.0219475662015025,0.05968453546004247
14.655932,3.847776767549275,0.060329627632487746
14.660024,3.6762976195220816,0.06102425939794097
14.664108,3.5086287887948058,0.061735170189520266
14.668148,3.3442052331922394,0.062446559636018285
14.67218,3.1853864286396143,0.06314978698051157
14.676212,3.026235449387184,0.06403389641922029
14.680291999999998,2.8698868456597246,0.0650085181450136
14.684368,2.7162298925573,0.06610334009429715
14.688451999999998,2.5631379816300823,0.06740804890866745
14.692532,2.420247631027799,0.0686780574290449
14.696616,2.2807246981256943,0.07013121833658366
14.700692,2.1431069238735483,0.07170489633230279
14.704776,2.0081808002464374,0.07339037785971259
14.708856,1.8784165280695277,0.0753058860989554
14.71294,1.753359790067547,0.07220944863540851
14.716976,1.625954993815868,0.06913245579571216
14.721059999999998,1.505395757864479,0.0660217167245135
14.725155999999998,1.3952595320378947,0.0627775358543259
14.729236,1.2940954749614284,0.059493785095901225
14.733276,1.2020143115350153,0.05614706578931593
14.737355999999998,1.1180080999837083,0.052747735146028984
14.741432,1.036693539057437,0.04928587187073219
14.745511999999998,0.9578491789563313,0.04578601183005556
14.749596,0.8869690458303974,0.04224447319315026
14.753676,0.8185591135296291,0.0386920904782461
14.757759999999998,0.7642717837536473,0.034949027702139104
14.761844,0.7183915805525767,0.03108650379163965
14.765932,0.6787918954765888,0.027082040394034494
14.76998,0.6464806703006303,0.02286880980913536
14.77406,0.6131615033497252,0.018637208044222732
14.77814,0.5864550292237074,0.01420805572688615
14.782228,0.5603135972728968,0.009637527682564623
14.786316,0.5377610328221335,0.004944627593319386
14.790404,0.5189080607713523,0.0
14.794491999999998,0.5101459241455709,0.0
14.798592,0.5078857554447421,0.0
14.80268,0.5086494120687534,0.0
14.80678,0.5165908036928591,0.0
14.810876,0.5225163117670717,0.0
14.814904,0.5274338780663373,0.0
14.818939999999998,0.5303355608157098,0.0
14.822972,0.5396284865900998,0.0
14.827056,0.5538503963392885,0.0
14.831148,0.5661671474385185,0.0
14.835244,0.5810648242628491,0.0
14.839336,0.5882311415874109,0.0
14.843424,0.5922629086871977,0.0
14.847516,0.5955081838119075,0.0
14.851608,0.5970697500865286,0.0
14.855704,0.6033388505360785,0.0
14.859796,0.6093865011857587,0.0
14.863888,0.6193551940352906,0.0
14.867984,0.6271972784349944,0.0
14.872076,0.635260812634568,0.0
14.876176,0.6358144371342425,0.0
14.880268,0.6382732202838753,0.0
14.884367999999998,0.6405105536336386,0.0
14.888464,0.6363566439583841,0.0
14.89256,0.6323134591830645,0.0
14.896652,0.6292782161826914,0.0
14.900683999999998,0.6301640153821704,0.0
14.904764,0.6264530053066554,0.0
14.908848,0.6165836196815253,0.0
14.91294,0.6086193927063538,0.0
14.917023999999998,0.5988607319811586,0.0
14.921115999999998,0.5917937218809989,0.0
14.925164,0.5858453784557207,0.0
