Time,Force,Position
17.689608,0.2021916740323653,0.0
17.693716000000002,0.19356309765758453,0.0
17.697812,0.19255515588263783,0.0
17.701908,0.19211225628289838,0.0
17.705892,0.18998564783307006,0.0
17.709976,0.18908843095805827,0.0
17.714024000000002,0.1853888385580761,0.0
17.71812,0.1885233887828511,0.0
17.722224,0.18482379638286892,0.0
17.726324,0.18213214575783343,0.0
17.73038,0.18022698710787494,0.0
17.734412,0.18717185463256691,0.0
17.738504,0.19792703945717594,0.0
17.742592000000002,0.20823932468204548,0.0
17.74668,0.21574923438194468,0.0
17.750772,0.22628296940668396,0.0
17.75486,0.23670597953148836,0.0
17.758892,0.24634249768121583,0.0
17.76298,0.2591135660557182,0.0
17.767068000000002,0.2760271264299423,0.0
17.771156,0.2911462530541427,0.0
17.775248,0.3042494961284497,0.0
17.779328,0.31354242190283976,0.0
17.78342,0.3201436970521943,0.0
17.787508,0.323499697076839,0.0
17.791604,0.32472908865165545,0.0
17.7957,0.3297687975263889,0.0
17.799796,0.3326818979512941,0.0
17.803892,0.34242914100095645,0.0
17.807988,0.35408154270057723,0.0
17.812076,0.3667418861751448,0.0
17.816172,0.3717815950498783,0.0
17.8202,0.3787264625745703,0.0
17.824284,0.38197173769928017,0.0
17.828316,0.38521701282398996,0.0
17.832396,0.38913805502384186,0.0
17.836476,0.39216188034868193,0.0
17.840552,0.3967586896236759,0.0
17.844640000000002,0.39765590649868765,0.0
17.848724,0.3963157900239363,0.0
17.85282,0.3946434988493804,0.0
17.856856,0.394089874349706,0.0
17.860932000000002,0.39062314942512644,0.0
17.864956,0.3899588000255173,0.0
17.868984,0.39164250887560603,0.0
17.87302,0.3959071434507954,0.0
17.87712,0.4001717780259848,0.0
17.881208,0.4036499206260973,0.0
17.885304,0.4034284708262275,0.0
17.889392,0.40040464550138744,0.0
17.893476,0.39738082017654747,0.0
17.897564,0.39917525392657105,0.0
17.901608,0.39637287840160074,0.0
17.905636,0.40040464550138755,0.0
17.909684,0.4024205290512809,0.0
17.913732,0.40364992062609734,0.0
17.917784,0.40196621177600855,0.0
17.92188,0.39949601095084286,0.0
17.92598,0.3969150852257422,0.0
17.930016000000002,0.39153178397567123,0.0
17.934104,0.3918639586754759,0.0
17.93814,0.3920854084753456,0.0
17.942232,0.3990302760000376,0.0
17.946324,0.40709381019961116,0.0
17.950416,0.4167303283493386,0.0
17.954516,0.4270311958986753,0.0
17.958608,0.43318957144829034,0.0
17.962696,0.44384544904849726,0.0
17.966744,0.45676149534953314,0.0
17.97084,0.47351069430155174,0.0
17.974932,0.49813623067987267,0.0036395834977532744
17.979020000000002,0.5226967128603901,0.008537388833777663
17.983068,0.5627884200936426,0.014156916515678606
17.98706,0.6104813784310572,0.02092041521671408
17.99114,0.6863122687735036,0.028018962558356092
17.995224,0.7935606192722904,0.035323964254700746
17.999308,0.9445660163777131,0.042562537148974455
18.003336,1.1355181427898549,0.04978099382406894
18.007364,1.3692193740336862,0.056940997239104015
18.011448,1.6470098265839581,0.0640561598962671
18.015528,1.9576685806652565,0.07114710743714253
18.019612,2.3027572025522027,0.0782298646754327
18.023692,2.6746550576449626,0.08536163711147544
18.027776,3.0775160556187897,0.09252323564708884
18.031864,3.5102215297988035,0.09974228523882157
18.035948,3.9749095063103645,0.10699880388800594
18.040028,4.477284043427816,0.11425660149825567
18.044112,5.012282596925359,0.12148339616127445
18.048204,5.580569516202602,0.12868446477196918
18.052284,6.177758024108888,0.13586545899626803
18.056368,6.796991142668396,0.1393809405271652
18.060452,7.441159136954966,0.14161070144617433
18.06454,8.093524225692109,0.14310141168568932
18.068632,8.757396738202338,0.143374526653149
18.072716,9.408284698358335,0.14326054589386797
18.076812,10.03134406585804,0.14290910698588347
18.0809,10.613658794400415,0.14259895300331119
18.084984,11.156126100860476,0.14228377799547187
18.089068,11.65583288481331,0.1420107184641295
18.093144,12.110763262709032,0.14178236534581548
18.097228,12.527663487623524,0.14157341852355454
18.10132,12.913279812632679,0.14136462673093536
18.105408,13.271865454636147,0.14108532335605717
18.109496,13.598701461783474,0.14076073038000442
18.113588,13.899381167449063,0.14032213848818617
18.117676,14.16740260370796,0.13982605632426895
18.121764,14.402090003485027,0.13928694911399328
18.12586,14.596952816530843,0.13877791614318907
18.129952,14.757939386270683,0.13826796619839765
18.13404,14.886069072155035,0.13776500921350252
18.138132,14.983369175409312,0.13727153374894574
18.142232,15.05410433060871,0.1367656591377577
18.14626,15.10412357395411,0.13624066199099463
18.150344,15.130758090171538,0.13575622824343608
18.154428,15.13807389938738,0.13533373851235292
18.158472,15.137635513752386,0.13492717374822008
18.162468,15.13113805979218,0.13454898350726519
18.16656,15.122502579706612,0.1341688174891268
18.170644,15.1080294810957,0.13380972819593231
18.174736,15.093999282084525,0.13343517975045352
18.178824,15.075360856122826,0.1330667926418923
18.182904,15.054229393984897,0.13266335026170117
18.186944,15.029608371571323,0.1322555387112599
18.191028,15.005873148357226,0.13182053240889283
18.195124,14.972944306593142,0.13144297228854573
18.199176,14.938663930678773,0.13106105130639567
18.20326,14.901470454339501,0.13069988118830395
18.207252,14.868087295300143,0.13031025505904803
18.211348,14.831004543860802,0.12994287408286853
18.215444,14.795605501271554,0.12956794957148055
18.21954,14.762787384407407,0.1291806115391333
18.223584,14.7308779020938,0.12880987402654948
18.227632,14.696620361530496,0.12846471642056903
18.23168,14.663271455517737,0.12813557444503934
18.23566,14.637886776480151,0.12776459575017687
18.239744,14.614640123567925,0.1273943537504712
18.243832,14.600033464706012,0.12698443939882728
18.247912,14.585216773719765,0.12660205521881535
18.252,14.582407494484006,0.12616826339622464
18.25608,14.589135426173572,0.12569294530120004
18.26012,14.602598193263496,0.12519194946796106
18.264212,14.614167219378993,0.12472632557299854
18.26824,14.625404070794687,0.12427109958829555
18.272276,14.637205964385588,0.12382336070929877
18.276324,14.65719353475153,0.12333125607706541
18.280416,14.681335014792726,0.12282802348115583
18.2844,14.708733187634163,0.12231798140282701
18.288492,14.737482894625883,0.12181381398653277
18.292584,14.772623844642625,0.12127607738008722
18.296676,14.812018011559022,0.12070466231362048
18.300772,14.84950701982546,0.12014702115378628
18.30486,14.884747277066603,0.11959123846608638
18.308948,14.922789909832716,0.11902026849661734
18.312984,14.962848426148723,0.11843655827907432
18.317068,15.007614476639654,0.1178307787387726
18.321152,15.056080119530572,0.11720708408834052
18.32524,15.102862053571402,0.11659200839166631
18.32932,15.153675754712015,0.11594822592949335
18.333412,15.200335546177378,0.11532039184520901
18.337496,15.239706877742709,0.11473226275301088
18.341588,15.282323484432748,0.11412076562740897
18.34568,15.326169482697606,0.11349612195386931
18.349768,15.372474264112094,0.1128471167597959
18.353852,15.415190178026538,0.11221585794824956
18.35794,15.45184702361577,0.11160791308983097
18.362024,15.485468626204627,0.11100250074266908
18.366112,15.515379218717964,0.11039552416599901
18.37014,15.542476018030802,0.10978259477516833
18.374228,15.563624473918367,0.10918738619785276
18.378312,15.57535786145607,0.10864176297522408
18.382284,15.586969106418303,0.10807812638953432
18.386364,15.596220875455305,0.10751531538697798
18.3904,15.603445343266886,0.10694532059008534
18.394492,15.607069525902883,0.10636889500505416
18.398576,15.602053714488566,0.10581938149316233
18.402664,15.594113384973813,0.10526563783529932
18.40666,15.58381357953383,0.10471234883850193
18.410592,15.571375747968483,0.104153810645683
18.414672,15.556246265778102,0.10360455105721379
18.418712,15.543243392037548,0.10303922175460636
18.422808,15.521833391722083,0.1025120121971581
18.426896,15.501763507881371,0.10196910558758016
18.430984,15.479567015590831,0.10144156898225543
18.43508,15.457591973100158,0.10090682406945475
18.439176,15.436403422584561,0.10037059163374965
18.443264,15.414882697369164,0.09984284239397972
18.447348,15.394492056504177,0.09932603375349193
18.451432,15.37915254218946,0.09880022160484944
18.455516,15.36908560422488,0.0982592384059473
18.459604,15.365520634185248,0.09769044730125065
18.463688,15.364093690270984,0.09712833882685175
18.467724,15.367939322706851,0.09655208348266862
18.471732,15.373922981268079,0.09598295104145374
18.47582,15.38059382457998,0.09543781506512865
18.4799,15.390975677967402,0.09489966098636626
18.483984,15.407195149880165,0.09435661552822716
18.488072,15.428465748343193,0.09380771882601457
18.49216,15.451985097831516,0.09326406749303748
18.49624,15.476180214394983,0.09272343126402383
18.500328,15.497240780733675,0.09220297478491193
18.50442,15.524016823022242,0.0916581622149474
18.5085,15.550239240811134,0.09112982401499448
18.512592,15.578256092350047,0.09059799359681787
18.51668,15.607735202939182,0.09007082280611396
18.520772,15.639795239253417,0.08954038967421327
18.524804,15.67264176754273,0.08901175042198999
18.52878,15.705709745631912,0.08847812672056402
18.532828,15.731046364221326,0.08797913298358159
18.536872,15.753359157485898,0.0874977169210054
18.540964,15.77455328407559,0.0870261142442605
18.544996,15.793952976915259,0.08656026742999241
18.549024,15.808312960880192,0.08612099963074756
18.553108,15.820767786195171,0.08568996939755713
18.557188,15.834562727984897,0.08524565350295647
18.561272,15.846108918749328,0.08479702152580734
18.565348,15.84913725803891,0.08438044083369892
18.569384,15.846560846278557,0.08398292705675034
18.573472,15.841968550968309,0.08359570521539304
18.57756,15.838273472533075,0.08320606395926776
18.581648,15.837380769622808,0.08280704471027303
18.58574,15.834361458262714,0.08242113154132241
18.589828,15.832460813577502,0.08202809789947145
18.593856,15.826749851592371,0.08164857509362775
18.597944,15.818679413682009,0.08126603331995566
18.602032,15.80892526692156,0.08088470459625159
18.606068,15.797598136210956,0.08050125806221152
18.610148,15.786049555700481,0.0801231590661481
18.614236,15.77954068406474,0.07972074501357292
18.618324,15.774261204003816,0.07930809826974966
18.622424,15.765392856442846,0.07890207069540656
18.626508,15.7557380169068,0.07849455499767716
18.63056,15.749328452495464,0.07806715611829697
18.634608,15.740559412158895,0.07763564900404687
18.638656,15.731003879847249,0.07720307768017654
18.642644,15.720218955960785,0.07677969878105328
18.64674,15.712568582299097,0.07633903089859606
18.650824,15.70513965843728,0.07589152462981053
18.654912,15.694454041775218,0.07544090284609464
18.658892,15.683989874913028,0.07498436246490747
18.662988,15.671841999200748,0.07452789529774985
18.667028,15.657002472863432,0.07407503955497269
18.671056,15.63666892037611,0.07363336451358049
18.675104,15.61935919321363,0.07317787470879336
18.679152,15.601606566451409,0.0727322300389306
18.683192,15.582059505939165,0.07228856473518115
18.687272,15.566101312926966,0.07183905754173163
18.691304,15.55148323638952,0.07137669895793126
18.695384,15.536754434952142,0.07091726899970228
18.699416,15.520120474864802,0.0704629539731608
18.703448,15.50898054092747,0.06999743896727688
18.707484,15.497729882090201,0.0695339086863379
18.71152,15.485471281477986,0.06907442672038293
18.715616,15.476469373666013,0.06861748632120673
18.719652,15.468032508029252,0.06816770627566257
18.723736,15.459595642392488,0.0677166440162377
18.727784,15.447127009655937,0.0672802579257462
18.731884,15.434215477319645,0.06685373070221907
18.735868,15.42736301330857,0.0664241959540677
18.73996,15.418162491047793,0.06601020350404956
18.74402,15.408961968787018,0.06559550857896848
18.748116,15.402231647351407,0.06518217502785752
18.752148,15.398082251640897,0.06476705298507741
18.756236,15.3899010888306,0.06436673409845874
18.760268,15.386648909995104,0.0639501097149427
18.764312,15.387882815534665,0.06352873047195802
18.768344,15.383179795324482,0.06312711651550323
18.772428,15.377923150614626,0.06273978831852675
18.776512,15.37143711432995,0.062361774806177626
18.780552,15.363500236670593,0.06199770445908869
18.7846,15.351642316811379,0.061645628333425795
18.788672,15.34046016402731,0.06129772187311575
18.792756,15.329056561443371,0.06095505247089381
18.796836,15.313056149584437,0.06061826805652471
18.800864,15.296269245750427,0.06027922875655639
18.804944,15.278363675241536,0.05994511474838613
18.808984,15.264944189107698,0.05960620799527761
18.813012,15.255556470073655,0.05925286166210017
18.817052,15.239556058214722,0.05891233501605097
18.82108,15.225571529905682,0.05856402379381537
18.82512,15.212041318871911,0.05822558077871435
18.82916,15.196716674088119,0.057887666596117694
18.83316,15.180384087529381,0.057552163655476996
18.837144,15.169656252020584,0.057206941518614586
18.841176,15.15277004096217,0.05688445077960494
18.84526,15.131741337904035,0.05657804743582826
18.849348,15.112507068595926,0.05626932258247243
18.853432,15.092486307312738,0.05595800654197295
18.857512,15.074481429579441,0.05563991497636094
18.861596,15.05938965227105,0.05531412744295967
18.865676,15.042957758487914,0.05499898609769047
18.86976,15.02820957355486,0.054685608321457635
18.87384,15.015820864547042,0.05437933649563861
18.877916,15.010277715839512,0.05407752790685265
18.881956,15.002165059082413,0.053795396015408205
18.885988,15.002127354200422,0.05350981662033151
18.890076,15.002654691493634,0.05323249645471139
18.894104,15.003525621162188,0.05296934912681118
18.898132,15.007542518731046,0.05271498439183151
18.902216,15.013021675350126,0.052468488521014794
18.906252,15.018955149244476,0.052232706769325336
18.910332,15.03005047458903,0.05200079262634898
18.914464,15.04810208513381,0.05177259073126736
18.918552,15.060781812104047,0.051568059055043754
18.922648,15.07805834834928,0.051359273917227846
18.926732,15.099820968969574,0.051149650035951774
18.930816,15.124164515314966,0.05094237009973716
18.934904,15.146835770485804,0.05075456699344129
18.938992,15.165929575832127,0.05058970353320266
18.943084,15.185699148253592,0.050430664069565014
18.94716,15.209500487774845,0.05026006745047214
18.951248,15.234199044171108,0.05009015126538779
18.955336,15.255198008167389,0.04992404329683901
18.959416,15.274513263313581,0.04975628686367262
18.963504,15.296852343784616,0.049579852754280805
18.9676,15.312800181230633,0.04940787643442528
18.971692,15.327285759626427,0.04922839542929643
18.975788,15.337063803847297,0.04905500894460808
18.979884,15.350197848092806,0.048865469369828475
18.983984,15.361537458588293,0.04867639830326433
18.988076,15.36962037628354,0.04847926157119291
18.992172,15.370304109178822,0.048288014762771204
18.996268,15.358991847999144,0.04810538891994562
19.000364,15.348011761519272,0.047913959647887555
19.00446,15.330418982214512,0.04773041302771137
19.008556,15.299932991959782,0.04755460992849531
19.012648,15.262834308880162,0.04738647641239467
19.016748,15.220573774350342,0.04721186658421532
19.020848,15.172364896395248,0.047027722194326764
19.024944,15.114630225190355,0.04685649533961532
19.029036,15.046251094060791,0.04670346715682043
19.033132,14.963638635506506,0.04656873208872215
19.037112,14.874413484127333,0.04644108139633739
19.041196,14.773978830648277,0.04632319977078182
19.045228,14.663231891944353,0.046214974671999996
19.04932,14.54565081061567,0.046119618686865656
19.053364,14.421014136862363,0.04604267172638715
19.057392,14.288867553409155,0.045973255063839424
19.061484,14.143949901581443,0.04593135274842517
19.065536,13.988498514728995,0.04590585605381994
19.069572,13.83103124432665,0.045884019228093424
19.073668,13.670872323299273,0.04586030630855426
19.077752,13.508697518722002,0.04584218085705244
19.0818,13.338902079544896,0.04583486706126756
19.085844,13.168209423492778,0.04582648398644032
19.08994,13.000097693165761,0.04582080915880915
19.093964,12.82907286241384,0.04582109395857843
19.09806,12.658834523636997,0.045823253473708934
19.102108,12.49095566078538,0.04583407393294951
19.106136,12.321282364183745,0.045845484510043846
19.11016,12.154522168007013,0.04585035742013927
19.11424,11.99056434735525,0.04585326232027844
19.118328,11.824701368053528,0.04585971395746099
19.122412,11.662648706051728,0.045858363771952765
19.126488,11.506090070199932,0.045853357015577786
19.130568,11.348744942373056,0.04584473450613472
19.134652,11.187810947046136,0.04583623459060523
19.138732,11.03259242766909,0.045816322757310506
19.142816,10.88331083404179,0.04577822164096447
19.146904,10.73963399146443,0.045733345153533805
19.150984,10.591028164912274,0.04570250010096133
19.155072,10.44018500501035,0.04568645493233431
19.159156,10.291357728658326,0.0456620411322831
19.163244,10.144324886056323,0.045638257321366955
19.167328,9.996284101679372,0.04561729019390786
19.171416,9.845330216877514,0.045604916349026796
19.175504,9.690898189475547,0.045587669375097846
19.179588,9.533442336748738,0.045583323230603226
19.183672,9.372286891621947,0.045583294637201635
19.187764,9.213258054944985,0.045568563270040344
19.19186,9.051316117843115,0.04556204475626293
19.195952,8.893184498041165,0.04554612110980394
19.200048,8.739981862214012,0.0455093133579477
19.204184,8.581850242412063,0.045489950936746744
19.208272,8.417105929785222,0.045484478039438926
19.21242,8.254266775808343,0.04547249093322951
19.216508,8.095127214231445,0.04545603507316687
19.220592,7.929374959829661,0.04545221673746522
19.22468,7.75981238812796,0.045455500873754474
19.22876,7.585653007151263,0.045463795175982466
19.232852,7.413620234624396,0.04545577733964543
19.23694,7.241808911897398,0.04543741548032357
19.241084,7.068989647395456,0.045422051757910774
19.245216,6.898629166043144,0.045362833105516046
19.249352,6.722663933640892,0.04531412469715552
19.253432,6.55252490208845,0.04523886094566729
19.257516,6.387879896686013,0.04515346606210291
19.261604,6.222559124208436,0.04505267574738865
19.265692,6.0591435103808164,0.044942834148435105
19.269828,5.89730088050335,0.044840104193328054
19.273904,5.73837135105079,0.04471891804327228
19.277988,5.574845012323236,0.04459497946949579
19.282076,5.403476589195978,0.044507760980453906
19.286164,5.23513199139356,0.04439259665638621
19.290256,5.0668981184910775,0.044267273744302636
19.294344,4.898553520688659,0.04414087740689993
19.298432,4.727295822461335,0.04402904638052057
19.302516,4.558840499758983,0.04390268884816976
19.306592,4.3866855846566475,0.04377530557285985
19.310676,4.2174437699792175,0.043615926907340064
19.314768,4.047980505501917,0.043466494972789815
19.318856,3.8812088916496528,0.04330656917397561
19.322944,3.7161209866474776,0.04315340620388773
19.327032,3.545550473170829,0.04309741028263127
19.331128,3.383497811169027,0.04297804628725079
19.335224,3.2138245145673903,0.042891745908737566
19.339316,3.041127392640914,0.04284539132569816
19.343412,2.8713433711393423,0.04271790482228884
19.347504,2.6995434660878774,0.042621486237491256
19.3516,2.526735619261466,0.04253184862692306
19.355648,2.3538170475351192,0.04241523464316211
19.359744,2.189084152583814,0.04026415493409676
19.363832,2.036568701507337,0.03809447297454454
19.36792,1.8884286099059842,0.03594407275271932
19.372012,1.7514980204045127,0.03379460681557969
19.3761,1.6173698064280115,0.031654060587109546
19.380188,1.4917594439263564,0.0295008646803867
19.384284,1.3743347581997425,0.027358743535890427
19.38832,1.2668901829981933,0.025219895954568555
19.39242,1.1629237503967567,0.023109072880702942
19.396456,1.0643406190453915,0.020997719245556316
19.4005,0.9693463551940726,0.018899844064892472
19.404548,0.8790596255176831,0.016798060726070468
19.408596,0.7989744561662282,0.014639828180370733
19.412688,0.7231539213899627,0.012535798247304891
19.41674,0.6611238144386792,0.010417432123215935
19.420828,0.6110897015623541,0.008271367685542477
19.424912,0.5649880485614136,0.006213276599875418
19.42896,0.5303173474602244,0.004129468986471212
19.433048,0.501029947609106,0.002043850066933083
19.437132,0.4780230658830703,0.0
19.441232,0.45400824238208803,0.0
19.44526,0.43055846105631285,0.0
19.449292,0.41260270588054354,0.0
