Time,Force,Position
16.652887999999997,0.9119461350199609,0.023939280894411146
16.656976,0.8366792247433698,0.021669802870111384
16.661068,0.7670170655167194,0.019384087772141505
16.665155999999996,0.7046433661900984,0.017104748602686168
16.669252,0.6440641006135011,0.014829066847617122
16.673344,0.5859550358620693,0.012557420094373857
16.677439999999997,0.5358101980858093,0.010329750807930534
16.681536,0.4891435029096617,0.008147629618248765
16.685636000000002,0.4411366912587627,0.006048289980986703
16.689732,0.3985131808579347,0.003971681055783681
16.693827999999996,0.3594785379571539,0.001928351837029981
16.697924,0.3191037785816218,0.0
16.702024,0.2841123204561607,0.0
16.706116,0.25708508930587115,0.0
16.710212,0.23555188430558743,0.0
16.714304,0.2223150809802798,0.0
16.718400000000003,0.2089675527550373,0.0
16.722496,0.19327196628009685,0.0
16.726584000000003,0.18037875533012676,0.0
16.73068,0.16513748613045856,0.0
16.734772,0.14698311650588522,0.0
16.738867999999997,0.1328719316566315,0.0
16.742959999999997,0.12459836533272109,0.0
16.747056,0.11633621668434349,0.0
16.751156,0.11200652791135066,0.0
16.755187999999997,0.10992559016365379,0.0
16.759279999999997,0.10842111226669701,0.0
16.763368,0.11276567057061634,0.0
16.767455999999996,0.12722389965060119,0.0
16.771547999999996,0.14574814885697135,0.0
16.775636,0.17608119536502867,0.0
16.779728,0.22203335647469014,0.00779924359590611
16.78382,0.2814780237361275,0.015322704259573088
16.787908,0.34926476337467244,0.02297619615722158
16.791992,0.4290931677903071,0.030521377723170724
16.796084,0.5199667128836176,0.03808125659311755
16.800171999999996,0.6255849910545862,0.04567577892067847
16.804256000000002,0.748074610753041,0.05325978862746638
16.80834,0.8837473972545329,0.060929274054076915
16.812427999999997,1.0332791176342038,0.06875459151093494
16.816516,1.2091086655667516,0.07633615301810767
16.820603999999996,1.4021531474021232,0.08387276887224221
16.8247,1.6082700711405973,0.09146523250564816
16.828787999999996,1.8364201878567583,0.0989390011073232
16.832884,2.081785238475743,0.10637818300243587
16.836971999999996,2.3450295723971615,0.11375640423821363
16.841032,2.6269282639205565,0.12106377228576558
16.845128000000003,2.924224620245686,0.1282783682945237
16.849224,3.2297294886969223,0.13547182022230972
16.853256000000002,3.5434314515987326,0.14264093678449244
16.857348,3.8576984566757506,0.14981697531846896
16.861435999999998,4.172751953727847,0.14916216230838406
16.865524,4.484770207779571,0.14877181472943554
16.869616,4.798338610430383,0.14819153210546698
16.873703999999996,5.106844468855396,0.14771898828122668
16.8778,5.4071303974787694,0.1472307571690685
16.881880000000002,5.698742079025231,0.1466982526425672
16.885972000000002,5.979995804644692,0.14617090846325992
16.890064000000002,6.251777373536631,0.14553411831248117
16.894152,6.514407542725318,0.14469110345508154
16.89824,6.752866492810958,0.14410183605591392
16.902327999999997,6.968837932643638,0.14361664751435002
16.906416,7.169820354247724,0.14304049199908786
16.910503999999996,7.3494225145982,0.14253957753135674
16.914595999999996,7.5103360643201,0.14203613284719924
16.918684,7.648651378889105,0.1416336682451264
16.922772000000002,7.768965267580208,0.14127332764530826
16.926859999999998,7.8628706038185,0.14106418594494782
16.930951999999998,7.943714915829223,0.14083444311154822
16.935035999999997,8.01262828796279,0.14060010520783892
16.939120000000003,8.072523820644111,0.14031139513123417
16.943204,8.119480471673327,0.1400330583245576
16.947232,8.159335859575783,0.13971545077420772
16.951324,8.186042333701801,0.1394586384248906
16.955404,8.204418153126245,0.13918733144508944
16.95948,8.217387835949552,0.13889842496350346
16.963568000000002,8.229437466546779,0.13854407799434032
16.967644,8.239559103142984,0.13813993554845821
16.971724000000002,8.244618195513391,0.13773869834868627
16.975808,8.244061119158323,0.13736986753166808
16.979892,8.2442791171028,0.13695774402441652
16.983980000000003,8.25221705687151,0.13639931404825692
16.988068,8.260265721540158,0.13583736963462795
16.992151999999997,8.266974269734053,0.13530974567767118
16.99624,8.271224034778315,0.13483677176677208
17.000268,8.28410237619736,0.13425069494935418
17.004348,8.294399791891301,0.13368682320063202
17.008423999999998,8.314112275935102,0.13300384016952274
17.012512,8.329903717779052,0.13237606311617875
17.01654,8.345130117447793,0.1317419282514492
17.02062,8.355648982941606,0.13116523820138637
17.024704,8.369080948860326,0.13055183381194707
17.028788,8.378702597479126,0.12998793513641396
17.032876,8.390118679847951,0.12940549597457301
17.036963999999998,8.40254270399172,0.12880876943894135
17.041052,8.415188177935365,0.12820135562121976
17.045128,8.420323742179106,0.1276839783702752
17.049228,8.4244513646479,0.12718420041748968
17.053312,8.432167854616743,0.1266523073261971
17.057392,8.444148979160772,0.12609177878654393
17.061431999999996,8.455133579605391,0.12558386435184377
17.065523999999996,8.465121655950595,0.12513409127128733
17.069612,8.476682716245953,0.12468293397869751
17.073704,8.488133051641377,0.12423711574004799
17.077792000000002,8.503725879036523,0.12373042577748039
17.081888,8.514832622056609,0.12326863361974735
17.085983999999996,8.528409565901859,0.12279477974537421
17.090075999999996,8.537954742647324,0.12237769920070629
17.094172,8.551088786892835,0.12192864858225096
17.098259999999996,8.565463640388698,0.12149484818294687
17.102356,8.589375704809884,0.12099595329723196
17.106451999999997,8.610607536281567,0.12056048504386337
17.11054,8.635428235253299,0.12009582963990953
17.114624,8.661932643075117,0.11962425399846928
17.118707999999998,8.689002093072144,0.11916443140954942
17.122799999999998,8.716747310144315,0.11871099434581302
17.126883999999997,8.751338087516775,0.11821600820859811
17.130972,8.78627245726457,0.1177454357880199
17.135059999999996,8.818748043862735,0.11732680779939124
17.139148,8.851788672636106,0.11692364779701368
17.143231999999998,8.892782110709117,0.11643108833166445
17.14732,8.931981115032102,0.11595624730567755
17.151400000000002,8.97118011935509,0.11548777371615329
17.155492000000002,9.01497593295307,0.11498393686743039
17.159576,9.061241947376214,0.11447912767072768
17.16366,9.110764654599603,0.11396966501042756
17.167744,9.162081795573014,0.11345204442830935
17.171836,9.218671512896563,0.11290577438543278
17.175931999999996,9.280976706169987,0.11231625575735302
17.180023999999996,9.344400566118292,0.11171676436863973
17.18412,9.40187608264132,0.11115345484851477
17.188207999999996,9.463715540963939,0.1105360425601336
17.192304,9.525444274386622,0.10992954360997947
17.196391999999996,9.588402399384124,0.10930963245865481
17.200488,9.65236846615657,0.1086837972922198
17.204575999999996,9.721263516903816,0.10802047630113319
17.208667999999996,9.78712332465069,0.10736114650798331
17.212764,9.85667130712201,0.10665188005516599
17.216859999999997,9.925089205242918,0.1059260385368348
17.220951999999997,9.98957464348844,0.10520906609671991
17.225048,10.04755811380901,0.10454883963380934
17.229143999999998,10.108676134354356,0.1038605054229733
17.233235999999998,10.167667546449874,0.10320155191830603
17.237332000000002,10.226670376220921,0.1025824026386472
17.241428,10.282439348542793,0.1020383820577013
17.245523999999996,10.341144256640638,0.10154083628554836
17.249623999999997,10.407714084489252,0.10104972952858335
17.253656,10.47474964728867,0.10060851220123668
17.25774,10.540800103664209,0.10024611062880479
17.261823999999997,10.60788133716576,0.09993862279971948
17.265912,10.680590157068316,0.09965823922174498
17.269999999999996,10.755005521172027,0.09943852944034906
17.273924,10.834261979701667,0.09924595278618424
17.278008,10.916122199307473,0.09910689868051113
17.282103999999997,11.008538989289084,0.09895963977439855
17.286032,11.102440873671979,0.09888028685072961
17.290127999999996,11.206345703931005,0.09881201412912236
17.294216,11.307593136591596,0.0988441231423785
17.298248,11.418057023153239,0.09888610508909244
17.30234,11.53819168089121,0.09894988372400032
17.306419999999996,11.666645575655219,0.09902656796571815
17.310499999999998,11.800948506620106,0.09912455932658486
17.314527999999996,11.942551315160557,0.09921619892773524
17.318624,12.08728867392578,0.09928303141317468
17.3226,12.23716504879014,0.09928171191865995
17.326687999999997,12.384880562178077,0.09922307574113251
17.330728,12.523379621664954,0.09916129959901171
17.334764,12.663982454250597,0.09903326476469365
17.3388,12.801195033784996,0.0988620964035493
17.342888000000002,12.942416545068118,0.09861553223261181
17.346975999999998,13.08249655432529,0.09833303340489338
17.351067999999998,13.221656511356386,0.09800791243287481
17.355108,13.35922064908626,0.09763851276438681
17.359195999999997,13.4963076341898,0.09721444896840106
17.363292,13.620932890267571,0.09681582345539179
17.367323999999996,13.740484184444014,0.09638230492605815
17.371415999999996,13.853953574944178,0.09592475475862916
17.375507999999996,13.968740246568027,0.09540402709108896
17.379596,14.082606865965799,0.0948494908496561
17.383684000000002,14.192407465237187,0.09425885152799308
17.387776000000002,14.298031319482254,0.09363495321657211
17.39186,14.395003762001474,0.09301482972016509
17.395952,14.487135110094764,0.09238042327364974
17.400039999999997,14.574658231237528,0.09174777689533464
17.404128,14.65701950093009,0.09113246557058198
17.408215999999996,14.736135495497942,0.09054680041701367
17.412304,14.817156648715752,0.08995738347918653
17.416392000000002,14.892573050883621,0.08939718490630176
17.420479999999998,14.968100177951426,0.088838383699504
17.424568,15.0363388451192,0.08830977098524934
17.428652,15.104233919911636,0.08777458710588984
17.432740000000003,15.167864360128887,0.08724986527528132
17.436832000000003,15.23070830837106,0.08673072498391197
17.440916,15.288955447338237,0.08623078031809685
17.445008,15.348985602379908,0.08570680142164566
17.4491,15.405316165021596,0.08519701870561619
17.453192,15.456041976613339,0.08470957352121496
17.457279999999997,15.503732545204715,0.08421966577980462
17.461368,15.543569611720851,0.08374791013532983
17.465452,15.574999551662076,0.08330593942923575
17.469540000000002,15.601046190353228,0.08287863046921598
17.473624,15.624844078019086,0.08244658453618725
17.477767999999998,15.645385272884702,0.08201571451597225
17.481864,15.662669774950075,0.0815852665700075
17.485951999999997,15.678381293065293,0.08115390318553602
17.490043999999997,15.692741277030228,0.08071565942267579
17.494127999999996,15.702615176620101,0.08028820021630678
17.498216,15.710018875384812,0.07986116872323765
17.502248,15.71293648977446,0.0794439631039282
17.506271999999996,15.7149568872891,0.0790288731719766
17.510351999999997,15.713388417303689,0.07862265331796951
17.514392,15.70901757179331,0.07822435812929589
17.51842,15.697358266382901,0.077843472942746
17.5225,15.684912468997418,0.0774613872375222
17.526584,15.669332121387155,0.07709570074729387
17.530664,15.656554149301865,0.07672182909127519
17.534692,15.643886902116506,0.07634436560489664
17.538767999999997,15.629879538456398,0.07597974391221168
17.542848,15.614753508121412,0.07562184942401938
17.546936000000002,15.604445736861287,0.07524672353031943
17.550964,15.597837558001142,0.07486250221744432
17.555048,15.593921029766035,0.07447357946070247
17.559128,15.59090171840594,0.07408325724674847
17.56322,15.591360549645959,0.07369003445281652
17.567320000000002,15.591708655986041,0.07329959105180621
17.571407999999998,15.591946037426187,0.07291192200580368
17.575496,15.594088577516294,0.07251852070662816
17.579484,15.59410450915657,0.07213545459934632
17.583571999999997,15.597709308296897,0.07174664228093953
17.587655999999996,15.601203382537289,0.07136061681111136
17.59174,15.601562906552903,0.07098972785414552
17.595832,15.603827589218476,0.07061280094258682
17.599868,15.605981546984118,0.07023732782549405
17.603924,15.60948703890004,0.06987075674508997
17.608024,15.617810789890829,0.06948994093231023
17.612116,15.62792897463164,0.06910804583441772
17.616216,15.642643968647445,0.06871799007399797
17.62032,15.660161338188223,0.06832239021982994
17.624408000000003,15.679362416579085,0.06792740885491849
17.628504,15.699571436744897,0.0675302517322236
17.632596,15.714630023136039,0.06715595901435985
17.636632,15.728348493052428,0.06679465009034387
17.64072,15.739940354518993,0.06644412219879028
17.644804,15.747611173785701,0.06610678655895733
17.648896,15.756965701902503,0.06577051040478389
17.652988,15.766995997094446,0.065438915950838
17.65708,15.778599276236541,0.06511165289697576
17.661116,15.797712465078536,0.06476867790916381
17.665208,15.815817712145583,0.06443034985645088
17.669288,15.83582811786259,0.06408807850512245
17.673319999999997,15.85953811597958,0.06373949577742405
17.677408,15.886947706496553,0.06338587278896612
17.681495999999996,15.917835439613635,0.06303118564738942
17.68558,15.951181955880353,0.06266052381427699
17.689659999999996,15.979599488172271,0.06230632109691021
17.69374,16.000617835664222,0.061964744274035116
17.697823999999997,16.014802040531418,0.06164284094841248
17.701900000000002,16.024167986323754,0.061333363793096646
17.705976,16.031407323666254,0.06103349117123971
17.710063999999996,16.03259901035908,0.06075441723367734
17.714143999999997,16.034909363726783,0.06046859458149036
17.718220000000002,16.03374157449438,0.060182725402502996
17.722299999999997,16.031122943887283,0.05991035688808719
17.726383999999996,16.02817213858039,0.05964554145359038
17.730468000000002,16.024213391498545,0.059384439316820546
17.734560000000002,16.015436385341836,0.05913438098784684
17.738647999999998,16.001841120110267,0.058895826836895815
17.742736,15.982198204229014,0.058677706273124665
17.746828,15.960650129697806,0.05846319208469792
17.750915999999997,15.935856780041886,0.058263747401398454
17.754944000000002,15.905237229536153,0.05807831461871856
17.759028,15.865546203055905,0.05792228160852126
17.763108000000003,15.825523001875847,0.057773892967985595
17.767187999999997,15.774412441171377,0.057661045660411275
17.771276,15.721961763992157,0.05755888423048835
17.77536,15.67086262096322,0.05746549651274682
17.77944,15.619542028134415,0.0573769373659541
17.783519999999996,15.569683694355827,0.05729477023775345
17.787604,15.521619794327263,0.05721085523491957
17.791683999999997,15.474231661373842,0.05713127152432116
17.795772,15.424495470170722,0.05706600208595694
17.799860000000002,15.377905246867916,0.05700875413461303
17.803948,15.333109457315128,0.05695010642783248
17.808036,15.286408509112384,0.05689505994505191
17.812128,15.23758095245981,0.05684884736560274
17.816215999999997,15.1961525806072,0.0567920349548417
17.820299999999996,15.153384092279838,0.05674659193638127
17.824388,15.108599720402582,0.056707632193123865
17.828463999999997,15.061135115575825,0.05669190742684178
17.832504,15.012662568974118,0.05667933222277287
17.836536000000002,14.967668164972526,0.056667069210362374
17.840628000000002,14.92838923692081,0.0566429043249759
17.844716,14.885299991569173,0.056626524809827425
17.848808,14.846586105692666,0.05661036981637187
17.852888,14.807761494916225,0.05659702268904372
17.856975999999996,14.770731317889803,0.056582380802563954
17.861060000000002,14.739305891913324,0.05655826412503959
17.865147999999998,14.703283656661851,0.056539866889221455
17.869236,14.664237596085538,0.05653163424963226
17.87332,14.627772461234324,0.05652448492797232
17.877404,14.592315268158057,0.0565138606297815
17.881492,14.555285091131637,0.056498352357893834
17.885584,14.51556326348018,0.05648446499333465
17.889671999999997,14.477635869578746,0.056469302939056956
17.89376,14.436684650352474,0.0564646249562898
17.897852,14.384413204126385,0.056481447725848566
17.901944,14.332252482800232,0.05649568658613573
17.906036,14.280313211273949,0.056504024811226926
17.910131999999997,14.230832722897299,0.056493480148628976
17.914223999999997,14.177763367020603,0.05648527567350571
17.91832,14.119089260093963,0.05648687958693857
17.922416,14.05581834389233,0.05649428736484601
17.926508,13.993776819265513,0.05649180358898927
17.930604000000002,13.932178194238436,0.05647729598346216
17.934696000000002,13.86889586036127,0.05646096367863564
17.938788000000002,13.800008775434167,0.056454652754592737
17.942876,13.721706622157203,0.056466785513844486
17.946968,13.643625918680108,0.05647285544107868
17.95106,13.56116985572789,0.05647923255123613
17.955156000000002,13.46952017422568,0.05649927168316321
17.959252,13.379775651373434,0.056514415571730446
17.963347999999996,13.285102144546387,0.0565456458104766
17.967447999999997,13.190650087519208,0.05657007141021279
17.971539999999997,13.092498438092049,0.056600624932008785
17.975524,12.992884529614669,0.056623344130194986
17.979624,12.899883313962178,0.056632010284987225
17.983703999999996,12.80441189748452,0.05663622051844623
17.987795999999996,12.705916655682023,0.05665282367039569
17.991844,12.600808721054637,0.05668426743069116
17.995928,12.498281712152354,0.05671760207218373
18.000023999999996,12.397770586799961,0.056743669586452855
18.004112,12.29535430279761,0.05677527395115315
18.008139999999997,12.187898309920529,0.05682855985865883
18.012223999999996,12.078758608193358,0.0568790755461435
18.016268,11.963903430516307,0.05694674227675315
18.020348,11.850166919514141,0.057008099046403055
18.02438,11.736651858311843,0.05706415828058825
18.028464,11.624820505959637,0.057122410347321656
18.032552000000003,11.514672862457518,0.0571841012918438
18.03664,11.408667710955122,0.05722548891715659
18.04072,11.295263374652759,0.0572814183662939
18.044816,11.182080488150266,0.0573315352579914
18.048904,11.065873776322936,0.05739597809958883
18.052996,10.948991297420463,0.05745454004268524
18.057084,10.830879426943172,0.0575275393891511
18.061112,10.706154863640997,0.05762013824550243
18.065196,10.583114009188911,0.05771571510548398
18.06928,10.464215646736543,0.05778776590848296
18.07336,10.351929977109064,0.05784152742269699
18.077404,10.237063381756483,0.05789511426689952
18.08148,10.120513077553818,0.05794681353977954
18.085516,10.005867932001108,0.05799375038391113
18.089604,9.893570844698097,0.058019024469890275
18.093696,9.779257873845193,0.05805452552837802
18.09778,9.67099255364197,0.05805912515919693
18.101868,9.560035582813711,0.05806751827159916
18.10596,9.451770262610482,0.05807343211104849
18.110044,9.338908133132264,0.05809025991678586
18.114132,9.225370236578902,0.058099695762188305
18.11822,9.113626773775568,0.05810497874242052
18.122312,9.003112702547048,0.0580955795819816
18.126348,8.891701414443515,0.0580879877345547
18.130436,8.778606417489895,0.05807930821942318
18.134528,8.666408637411283,0.05806873647739239
18.138616,8.552527148482588,0.058058730288583986
18.142708,8.43976432622877,0.0580398114909041
18.146796,8.323412636474906,0.058026645239455305
18.150888,8.19843237034626,0.058052151745878605
18.154972,8.064934252742772,0.05811290744430298
18.159068,7.930649643164202,0.0581711987376126
18.163164,7.795467816710623,0.058231622874086335
18.167252,7.656021355681855,0.058288456579095524
