Time,Force,Position
19.779499999999995,10.23135812241198,0.06017611993167149
19.783536,10.028319988157305,0.06032035719390115
19.787584,9.826854837852784,0.06047748756087175
19.791676,9.627859888373429,0.06064452613546574
19.795764,9.435366906819027,0.060801656903030805
19.799852,9.252067543814611,0.06094100436190201
19.80394,9.071349106535298,0.06108751726746643
19.808028,8.898251303855817,0.06120669322473758
19.812116,8.727734426901439,0.061329228524971385
19.8162,8.5578933170222,0.06146349151672975
19.820288,8.391308899943205,0.0616127398556199
19.824372,8.231005000989294,0.061758421605982286
19.82846,8.06588284296052,0.06193914390102903
19.832548,7.904571002231662,0.062110573014400025
19.83658,7.745397187628167,0.062319247480328605
19.840676,7.588915023649705,0.06253053873318151
19.844768,7.431092743196494,0.06277661190560205
19.84886,7.271254579193389,0.06305286178841502
19.852952,7.108171140065576,0.06338209608003546
19.857047999999995,6.956075753237772,0.06368499271864797
19.861139999999995,6.804766858385045,0.06400437948826433
19.865236,6.656936106132431,0.06434145754892447
19.869272,6.513702163154811,0.06467230101731312
19.873316,6.372041204127345,0.06502868592767035
19.877416,6.2375579800999725,0.06536684721352203
19.881508,6.102631856472862,0.0657439781931341
19.885596,5.973089034095822,0.06611632005976122
19.889584,5.842992587219108,0.06653317674160077
19.893672,5.713239732717731,0.06700691522990396
19.897756,5.584949137266573,0.06752002751815027
19.901836,5.461144626190475,0.06803261462509386
19.905916,5.339921040839477,0.06855817437110702
19.91,5.231590666438448,0.06902660259619738
19.91408,5.127414201712675,0.06951594051984805
19.918104,5.029174662736647,0.06996221406230083
19.922139999999995,4.931610890835761,0.0704422868777999
19.926168,4.839541145084881,0.07090878574321163
19.930196,4.754870584133965,0.07134036036734377
19.934224,4.678496424858024,0.07173457604669739
19.9382,4.60223299048202,0.07212063379288482
19.942244,4.528550481831116,0.07251985000709513
19.94628,4.4604727242301525,0.07288440573487726
19.950312,4.3920627919293835,0.07329579497089618
19.9544,4.329257610678556,0.07366697555802086
19.958488,4.262531387227876,0.07409954992020816
19.96258,4.199504756177178,0.07451415669349355
19.966716,4.140964209501541,0.07490123889813695
19.970804,4.085226038350872,0.07527263925149687
19.974892,4.033408909400056,0.07560701217161848
19.978984,3.9852913728492223,0.07592086778026609
19.98312,3.9380710531734007,0.07623551090436768
19.987208,3.8954475427725725,0.07650807838664178
19.9913,3.848792265271958,0.07685937954069344
19.995384,3.803034204646355,0.07721475363940548
19.999472,3.762548720370888,0.0775379717418286
20.00356,3.730581087570267,0.07775292208739608
20.007648,3.701526555194551,0.0779246168992008
20.011736,3.675274398343806,0.07806189720584095
20.015828,3.650927400143019,0.07817428594911185
20.019916,3.62546173526735,0.07831945312390906
20.024004,3.604925054366481,0.07838224123207832
20.028096,3.587080024090646,0.07842304904423412
20.032188,3.5769663533145803,0.07834786268451592
20.036276,3.564947523888556,0.07829880659345528
20.040364,3.558644170412408,0.0781696795718272
20.044452,3.5523408169362596,0.07803978141842893
20.048548,3.544132304810153,0.07793676637250202
20.052644,3.5378289513340047,0.07780612754832994
20.056736,3.538138290682743,0.07758724691915549
20.060824,3.5405742384813106,0.0773156084026622
20.06492,3.5430101862798775,0.07704102194613979
20.069008,3.54555685897838,0.07675603287873048
20.073108,3.5540404574266273,0.07636310866782318
20.077204,3.5637534474496912,0.07592190988485303
20.081299999999995,3.570774786847719,0.07550513728367075
20.085396,3.572977867170884,0.07516408305263994
20.089444,3.5750702225941136,0.07483599332411123
20.093536,3.5732415358174916,0.07457225415722359
20.097576,3.566594589966005,0.07437991215459383
20.101604,3.5636472365145013,0.07414448066649539
20.105684,3.5566681159632108,0.07398847641330447
20.10972,3.5489025034368438,0.0738266287798257
20.113752,3.5372158487106238,0.07373069384495226
20.117796,3.5263156859594815,0.07364065612208393
20.121772,3.5142968565334574,0.07358257055255372
20.125712,3.5060883444073507,0.07346974630416919
20.129748,3.497990557181178,0.07334360707323129
20.133836,3.4879876113050474,0.07324409999264964
20.13782,3.473166406354053,0.0732167963623381
20.141908,3.456329317853165,0.0732284503330532
20.145992,3.446104922177165,0.07315180146801552
20.150027999999995,3.4328567011763242,0.07313315020296927
20.154128,3.416363205050774,0.07319722200091279
20.158112,3.403126401725466,0.07327101059476171
20.162156,3.3938220582755436,0.07337439293237927
20.166248,3.387220783126189,0.07355356819435188
20.170335999999995,3.384674110427687,0.07383915300353124
20.174424,3.390668124555096,0.07419171491005397
20.178519999999995,3.4112618938336308,0.07457264121157528
20.182564,3.4436644604138524,0.07508652816891437
20.186652,3.4906896174962645,0.07576068866437483
20.190744,3.5507757988062454,0.07664757830048588
20.194836,3.6267253798687653,0.07768591935476356
20.198928,3.721562186008666,0.07880207953374167
20.203016,3.8294600163761348,0.08006962047640509
20.2071,3.951094638046315,0.08148969327867761
20.211184,4.088592659469036,0.08300923148942937
20.21516,4.244080689094124,0.08457643019511074
20.219248,4.415432118471752,0.08622133294966933
20.223276,4.608362423551796,0.08787083219072457
20.227312,4.808527552009597,0.08970336449444244
20.2314,5.026682688669767,0.09155544828316453
20.235484,5.2638357753072516,0.09340241625318356
20.239512,5.5144927857720445,0.09529732025429473
20.243592,5.773934768213684,0.09722243462063121
20.247672,6.050225256831746,0.09904881692705324
20.251752,6.3361750989506005,0.10077680073777726
20.255832,6.629535543544954,0.10239839100705227
20.259964,6.923903929914255,0.10392322841215408
20.264048,7.209510179657774,0.1053582508438608
20.268128,7.4929441502493335,0.10654450397882695
20.272208,7.766684514313501,0.10752110442238762
20.2763,8.027474579050033,0.10831843161091093
20.28038,8.274084952884117,0.10898904488185875
20.284464,8.50875296916551,0.10949332561985822
20.2886,8.729119151968986,0.10985655336188599
20.292728,8.934740601694804,0.11011231722853387
20.29686,9.124277201868212,0.11030163861571553
20.301008,9.297163910314007,0.11041223264872956
20.30514,9.447685251082305,0.11051531452350496
20.309276,9.586596408997721,0.11049142191262475
20.31336,9.707628283610706,0.11043207712609845
20.31744,9.813804700246097,0.11031384740474255
20.321528,9.903220500253937,0.11015187022711947
20.325616,9.98283196883445,0.10991122858077257
20.3297,10.043334762537711,0.10967298014606766
20.333784,10.086645457689217,0.1094509709474791
20.337872,10.114669212938923,0.10922946255232233
20.342008,10.13155993796208,0.1089943572218778
20.346096,10.141471542433951,0.10872873481881536
20.350176,10.13712698413003,0.10851668810249121
20.354264,10.12817419887558,0.10830461729807395
20.358352,10.113273070195854,0.10811625653810525
20.362484,10.093542264765734,0.10793650495738981
20.366568,10.068871057685284,0.10776965029770937
20.370664,10.040610983104784,0.10762360308045361
20.374752,10.010667199674197,0.1074828413863222
20.378836,9.9775774483433,0.10734397823567245
20.382928,9.946159988186961,0.10716471871268263
20.387011999999995,9.916304094305243,0.10694991527398413
20.39104,9.88678037512333,0.10671926515574112
20.395119999999995,9.855229354715988,0.10647467339769164
20.3992,9.816046282033279,0.10625784795357028
20.403227999999995,9.773938691250134,0.10603175213696485
20.407276,9.723866873491815,0.10584847947053189
20.4113,9.669308971358438,0.10569178707674919
20.415388,9.616766952774954,0.10551351641723172
20.419468,9.56501142616655,0.10533311544885243
20.423496,9.50911340755842,0.10519902664672223
20.427584,9.45658280665047,0.10505082903483817
20.431684,9.408095390517841,0.1048935967174825
20.435768,9.358157133010524,0.10476576569571963
20.439868,9.310467626528503,0.10464120883987327
20.443968,9.264129654196765,0.1045245857006732
20.448004,9.224747967065255,0.1043715738905819
20.452092,9.184026163458991,0.10424415196282967
20.45618,9.144988068702816,0.10410945861332474
20.460268,9.111898317371919,0.10394995916436377
20.464352,9.078033491741479,0.10382501601322307
20.468408,9.044512258486376,0.10371895101264746
20.472496,9.005840591456606,0.10367057126912434
20.476531999999995,8.971212109202153,0.1036144700181645
20.480564,8.93692721932304,0.10357893282317486
20.484604,8.907361281294389,0.10354008345078484
20.488696,8.883965136490882,0.10346698798355165
20.492776,8.867636001787538,0.10335356203507708
20.496868,8.85018820040931,0.10325588855593675
20.500952,8.832518949231215,0.10316838288780175
20.505036,8.820565174002994,0.1030302913792885
20.509128,8.808389948974906,0.10290256002063687
20.513224,8.795206782171867,0.10278539793245554
20.517312,8.782134340268763,0.10266231084346934
20.521391999999995,8.771188506815491,0.10251126220992947
20.52548,8.758448239612191,0.10237110171205913
20.529616,8.741897655108977,0.10226407650512169
20.533752,8.728038721230797,0.10213977696255638
20.53784,8.71417978735262,0.1020150550746939
20.541972,8.695945493999316,0.1019126904029553
20.546056,8.67602749179592,0.10181593584644741
20.550184,8.65588803979266,0.10172987986896957
20.554264,8.64225055571435,0.10159296695757565
20.558392,8.626707912986083,0.10147252690426649
20.562476,8.616437846607951,0.10132305733945608
20.566608,8.600452304279942,0.10122409627108503
20.5707,8.586261195701958,0.1011132475919834
20.574824,8.568149044924121,0.10104129657866251
20.578916,8.55272854477132,0.10095198781785267
20.583048,8.53708659481865,0.10087358620261933
20.587144,8.517302152866257,0.10084553463724628
20.591287999999995,8.492810176738937,0.10085778270379864
20.595428,8.467986025911808,0.1008873664102994
20.599564,8.443726917259891,0.10092845705944695
20.603704,8.419357083708038,0.10097398456321903
20.607788,8.397789625681154,0.10099622722912502
20.611876,8.375214225879326,0.10103002589959426
20.615968,8.350955117227407,0.10107021230817631
20.620052,8.325688066800542,0.10112127227077922
20.624136,8.299080899898925,0.10120182272283722
20.628219999999995,8.27527610852228,0.10125881146688503
20.632308,8.248890391420534,0.10132894521896814
20.636396,8.218583632118934,0.10143949199973061
20.640488,8.189284814592284,0.10153865992307949
20.644524,8.1602074468655,0.10162484579935045
20.64856,8.1371777297884,0.10164129155434677
20.652592,8.110448420311318,0.10168622550478873
20.65664,8.087640153034085,0.10169021619186586
20.660736,8.063934668881842,0.10169960773743883
20.664776,8.041237126504544,0.10169769174939597
20.668864,8.022792801026904,0.10163715058782521
20.672892,8.009953226599205,0.10152939438097562
20.67692,7.999572435321138,0.10137453063125029
20.680948,7.99412062801787,0.1011668985634256
20.68492,7.986652937164708,0.10098223287394731
20.688996,7.978177304536601,0.10080894588771616
20.693024,7.969701671908493,0.10063505881048117
20.697064,7.964925631680367,0.10043130992886032
20.701087999999995,7.956339274152325,0.10026197636747917
20.70514,7.949314482898902,0.10005038822612208
20.709124,7.940384532995523,0.09985619801560999
20.713224,7.935375625291994,0.0996193766562341
20.717324,7.929690950513324,0.09937549121937475
20.72142,7.92781659303457,0.09909619753732608
20.725512,7.923815627105987,0.09884672961058624
20.729612,7.918474544702654,0.0986271495044859
20.733712,7.912014795624439,0.09842437162121843
20.737796,7.902863395921189,0.09823904442267173
20.741896,7.896514371742908,0.09803010019678297
20.745984,7.891394739139445,0.09779720350852349
20.750016,7.886840148711188,0.09757691919886799
20.754112,7.881388341407921,0.09736254702295086
20.7582,7.874485692729967,0.09718306460940505
20.762292,7.86556716050212,0.0970269222609361
20.766388,7.857656570049218,0.09685883233289676
20.770476,7.853556296896235,0.09665697384046057
20.774572,7.852369124168156,0.09642665965263225
20.778604,7.853087110090035,0.09618086565247602
20.782648,7.8615364555116845,0.09586234886506924
20.78674,7.873242493733576,0.09554051666777093
20.790828,7.890553283005408,0.09517694552288102
20.794916,7.9086505642523175,0.09481563358163726
20.799012,7.9305581627991435,0.09442188976744022
20.803111999999995,7.949663385821,0.09405254256427939
20.807208,7.968314291567584,0.09366448384264073
20.8113,7.988305313788919,0.09325005449952778
20.815384,8.01064439425995,0.09279524772279187
20.819472,8.034777908481008,0.09233028110658288
20.823564,8.055322555202016,0.09188695684275637
20.827691999999995,8.075867201923025,0.09144530021292122
20.831783999999995,8.090352780318822,0.09102637736335978
20.835916,8.104384041439344,0.0905901476992009
20.840004,8.119976868834488,0.09011496572877631
20.844088,8.133210220304402,0.08963776803014697
20.848172,8.146665021574188,0.08914882266718352
20.85226,8.156530955343923,0.08868146953452422
20.856392,8.163705238488623,0.08822850285859993
20.860524,8.16628271235833,0.08780584225026503
20.864608,8.164939144028187,0.08742000162874931
20.868692,8.163927750397844,0.08701926642667285
20.872784,8.155406447067605,0.08667123755053964
20.876876,8.144193493112331,0.08633604961384163
20.880968,8.133988480932,0.08599159831355827
20.885096,8.12310770167653,0.08563976383655686
20.889236,8.11424280597095,0.08526738394177537
20.893376,8.104259243590489,0.08491057114631825
20.897468,8.099769707360034,0.08452501974825229
20.901564,8.098193271554486,0.08411791277442383
20.9057,8.09863271929883,0.08369141011424498
20.909792,8.09896144214324,0.08327080257920838
20.913879999999995,8.108483783537636,0.08280134706159524
20.917968,8.121373542632211,0.08233000407552807
20.922056,8.135049793701866,0.08186255777474269
20.926144,8.150409753621606,0.08139342702986754
20.930236,8.168572089066316,0.08091013200564746
20.934368,8.183821324086122,0.08044656191013742
20.938456,8.204220992880597,0.0799355266177923
20.94254,8.228541703874923,0.07939625283697035
20.946624,8.256107689993959,0.07882264027421579
20.950716,8.279187591737934,0.07826765182822994
20.954812,8.30853659393146,0.07765074839507922
20.9589,8.34292530499972,0.07699462410486625
20.962996,8.374843815242816,0.07634192179714765
20.967084,8.40799171706073,0.0756731416889539
20.97118,8.443831269503676,0.07500137584613131
20.975272,8.480224446446298,0.07430676936815478
20.979368,8.511345047038784,0.07363160788768519
20.98346,8.539098229931094,0.072962091566773
20.987556,8.568978021273232,0.07227668142414392
20.991648,8.599522162014978,0.07156367575680338
20.99574,8.624793726406589,0.07086751858351993
20.999832,8.645911381122941,0.07017171742460308
21.003924,8.666131818964285,0.06948119537996625
21.008023999999995,8.686573706605499,0.06878265960432993
21.01212,8.704656118321484,0.06807924441988975
21.016212,8.729794122462092,0.06732685940493546
21.020308,8.749105925752891,0.06661045121510097
21.024344,8.766844745093536,0.06589253216198644
21.028392,8.783907797359037,0.06517205682170882
21.032488,8.804781166924458,0.0644349828300161
21.03658,8.823638652939984,0.0637161794730224
21.04068,8.83857509675566,0.06302280104626082
21.044775999999995,8.855195249421424,0.06233322188854235
21.048872,8.875404269587236,0.061643232686420156
21.052968,8.892135147152933,0.06095828691571385
21.057048,8.907747358043752,0.06028600147213941
21.061132,8.923138119134698,0.05962385178169648
21.06522,8.937631663350635,0.05896321110809259
21.069312,8.949212107141662,0.05831855720345841
21.073396,8.961357593107898,0.057689714044808486
21.077484,8.970589978649231,0.05707201463546151
21.081568,8.978925147315554,0.05645392083157994
21.08566,8.986695273806665,0.05582353768583859
21.089739999999995,8.990765807897796,0.05520021827895494
21.093831999999995,8.993606950414112,0.05459131861134498
21.09792,8.987819516555646,0.05401232848584168
21.102004,8.981245590722104,0.05342567217148738
21.106088,8.968845464038749,0.05285896010668073
21.110176,8.947595311180745,0.052327282725488596
21.114256,8.921526899247876,0.05181059149420066
21.118336,8.8925453868901,0.051302467795359005
21.122412,8.858967065257335,0.05079695487925301
21.126496,8.81855460099981,0.05031508343291095
21.130588,8.763698777193229,0.0499191200560932
21.134672,8.702695995512563,0.04959658421812984
21.138752,8.638570081282655,0.049333000968361046
21.142836,8.571542484303375,0.04911901302759762
21.146924,8.503751230700086,0.04897918444872217
21.151004,8.431939627672541,0.04890049560900505
21.155084,8.35409179167085,0.048895739645363825
21.159168,8.276598965720027,0.048957751896025845
21.163256,8.197334541370248,0.04910355103311516
21.167344,8.115512026646433,0.049327345658290916
21.171436,8.034155246873425,0.049615138304200904
21.175524,7.948445942976358,0.049989277376548104
21.179608,7.865107532680054,0.05042462493817681
21.1837,7.781791957734816,0.05094987810633248
21.187792,7.699728609715461,0.05155237847786259
21.191876,7.621719864146956,0.052228341086222554
21.195964,7.542160969979366,0.05299317993578673
21.200052,7.459822535637869,0.0538667209891414
