Time,Force,Position
19.829796,6.510322716688076,0.05237272715758488
19.833892,6.388633396386271,0.05244922514308249
19.837984,6.265038917434509,0.052533108127062564
19.842084,6.144578988707523,0.05259114515431421
19.846176,6.0289373190554,0.05262940622663045
19.850272,5.909485332103359,0.052688538629184815
19.854368,5.793843662451235,0.052730158519694155
19.858468,5.685146860323805,0.0527205227150019
19.862564,5.573204783071664,0.05275171736509277
19.866656,5.461594880519328,0.052760730011932266
19.870756,5.349874253067055,0.05278216907986313
19.874848,5.239272292289667,0.05278558034147729
19.878948,5.127662389737331,0.05279973427072587
19.883044,5.015265995209919,0.0528124576358313
19.88714,4.903877542457452,0.05281619952230618
19.891236,4.794394248354943,0.05280972522459382
19.895332000000003,4.687713329777405,0.052791663344806686
19.899424000000003,4.572403834825086,0.05283803475523878
19.903524,4.4605724824728785,0.052897381379677255
19.907616,4.3526621723205245,0.05292963768000941
19.911716,4.247443512793207,0.052963104409219273
19.915812000000003,4.1365093773160115,0.05302801426525372
19.919904,4.027148225788972,0.053118645641777804
19.924,3.9195815080119547,0.053200223880347154
19.928096,3.8158251075348546,0.053245128687909114
19.932192,3.716776241232684,0.05326538743483324
19.936288,3.6185138669055896,0.05329079247972641
19.940388,3.5152117837037626,0.053380421190366366
19.944416,3.4121311503018052,0.05346205488009322
19.948508,3.3098370088749247,0.05355169990079304
19.952544000000003,3.208550809222991,0.05364063965718875
19.956636000000003,3.106035217996241,0.05378064026605632
19.960724,3.006997769369603,0.05394489759830548
19.964756,2.9113277384431426,0.05415891594538433
19.968852,2.817341416366771,0.05439078639950385
19.972880000000004,2.721339210740506,0.05468518079639389
19.976972000000004,2.629036597514223,0.054943375486988785
19.981056,2.546149052637798,0.05513174107064902
19.98514,2.462475015786296,0.05533170341026504
19.989224,2.3823898464348403,0.05551563470637781
19.993308,2.3021939521834507,0.05574612954927089
19.997388,2.226373417407186,0.05598914663397212
20.001372000000003,2.151450099505932,0.05626490521638484
20.00546,2.080902141079802,0.05652390479356318
20.009488,2.0080061244039746,0.0569123909934326
20.013584,1.9416120756531,0.05719592331615346
20.017612,1.8767910108523789,0.05753035250867777
20.021644,1.8184719139766103,0.05780475105795485
20.025732,1.7675520019008064,0.05799703406793782
20.029784,1.7192130155501026,0.05820702785410778
20.033816,1.6782732139993635,0.058329613304532096
20.037912,1.642151671523488,0.058363458049427136
20.041964,1.6089432294725174,0.058340150013556885
20.04606,1.583576871821251,0.05812993201719191
20.050092,1.5592184559449316,0.05788491377710764
20.054176,1.5432671666435227,0.05752045298284118
20.058268,1.5251892688922857,0.05723274538717717
20.062356,1.5054276622909597,0.05691376007622989
20.06644,1.4920572987146516,0.05653069739370784
20.070476,1.4738686760634798,0.056242956735212526
20.074568,1.4630792382122715,0.05585928746394638
20.078664000000003,1.4543171015864902,0.055639137843223316
20.082756000000003,1.4534084670359457,0.05542372776181932
20.086852,1.448700932861017,0.055523330194201206
20.090944,1.4503960593866385,0.055759008602875346
20.09504,1.4487466035631484,0.05641994405152702
20.099136,1.4506974329152384,0.057255712087824984
20.103228,1.4540112140931456,0.058388664750647946
20.107324,1.4586879470968697,0.05979244897116628
20.111416,1.4687593990261971,0.06129662913549837
20.115508,1.47929658590633,0.06305334624738645
20.119604,1.4966907507622857,0.06491154632522633
20.1237,1.5174637509939521,0.06692704095860305
20.127792,1.5356786608515833,0.06929345906389714
20.131888000000004,1.5599640567099604,0.07174999574615877
20.135980000000004,1.5838179706441309,0.07442972815946092
20.140076,1.6158689790288756,0.07708112906598387
20.144172,1.654666240489508,0.07985591395619804
20.148268,1.6970637871257206,0.08266786292276306
20.152364,1.7533739041623833,0.08530217953624773
20.156456,1.8096954388745785,0.08802611635448294
20.160548,1.868254306936537,0.09054855108077128
20.16464,1.9231135825985133,0.09306242391892153
20.16874,1.9824475249600155,0.09527481669512713
20.172832,2.04232367414566,0.09712981316979978
20.176932,2.1035285221305218,0.09863467333602148
20.181028,2.162141026714751,0.09993931393199924
20.18506,2.2165882039481923,0.10103340462588963
20.189144,2.270569646230829,0.10184733291873367
20.193236,2.3209508033378854,0.10254712951184819
20.197324,2.368063849969166,0.10306610913167759
20.201412,2.404177426624902,0.1036885952981237
20.2055,2.438706601654952,0.1041381594273516
20.209588,2.4765803590341133,0.10423002599166982
20.21368,2.5109645561376297,0.10423417891577125
20.217764000000003,2.544772293390406,0.10404036063275511
20.221852,2.5713908779675543,0.10387544879372936
20.225944,2.596646510718886,0.10354694563922946
20.230032,2.6153887578697326,0.10326595765973351
20.23412,2.625036693694993,0.10308698429846663
20.238208,2.6299656776697917,0.10291322249237303
20.2423,2.6322030110195547,0.10280017144528954
20.246388000000003,2.635104693768927,0.10257833305618268
20.250476,2.638117101418234,0.10234210299493808
20.254564,2.6367655672679495,0.10230855761308606
20.258652,2.6355247580176,0.1022571732907502
20.26274,2.637086324292221,0.10213353208325994
20.266828,2.6450391335918595,0.10186649054615923
20.270912000000003,2.6518732762166173,0.10165707844327052
20.275,2.658596693941439,0.10146443822616621
20.279088,2.664877212066522,0.10133839592559694
20.283172,2.6777704230164923,0.10102476830041172
20.287256,2.690442184166592,0.10075020977108239
20.291344,2.698295686241829,0.10062488140904534
20.29542,2.7052519714420535,0.10051815318826285
20.299508000000003,2.7119868068424102,0.10044726630731397
20.303592,2.720405351092854,0.10035638870200915
20.307720000000003,2.7270294615932738,0.10030509118914215
20.311804,2.737242439593741,0.10018430394620037
20.31594,2.748585501944623,0.1001283064378252
20.320024,2.7662205000961206,0.10006358488598016
20.324104,2.7916096930984526,0.10000392701947473
20.328184,2.818606123077538,0.10026367248764467
20.332264,2.8491263663588655,0.10087713115381347
20.336344,2.8938377182181783,0.10169879259191808
20.340428000000003,2.955233214831705,0.10285825542948866
20.344516,3.039261199624726,0.10421828768568578
20.348592,3.143340746872139,0.10578654818134343
20.352724,3.2721793907488737,0.10743405752655864
20.356808,3.4285795067799008,0.1090906677073193
20.360948,3.6143241110397093,0.11065443778289913
20.365032,3.820662484578053,0.11227051331456167
20.369116,4.048491844269942,0.11390957987362366
20.373196,4.300060941140674,0.11556182044461291
20.37728,4.576488441865129,0.1172099710216447
20.381356,4.874074754043325,0.11889236636479039
20.385436,5.196187295375439,0.12057465461881324
20.389516,5.542272441361799,0.1223241679912562
20.393604000000003,5.91097865785212,0.12410816087561584
20.397692,6.303302468945816,0.12582714542310233
20.401776,6.71339483844201,0.12748461539739805
20.405868,7.131374963040042,0.1291234735496465
20.410004,7.565062091788546,0.13045901963630419
20.414084000000003,8.012184638311162,0.13140189573771718
20.418216,8.452748128531159,0.13204379619845039
20.4223,8.88065924109673,0.13234726466701316
20.426384,9.282559030107096,0.13247733000113754
20.430472,9.660020479512415,0.13245661392232078
20.434548,10.008336055137754,0.1323666152908294
20.43864,10.326043497932892,0.13223178387920134
20.442724,10.614837934423456,0.13209742313291917
20.446812,10.881576342585268,0.1319324351845339
20.450892000000003,11.128385330868152,0.13171227962847484
20.45498,11.351110989596862,0.1314536166936654
20.459064,11.545943001471471,0.13120222154617434
20.463144,11.716802408691837,0.13090985302648386
20.46722,11.86356706868249,0.13056172955054554
20.471304000000003,11.978162029568328,0.13021236713333417
20.475388,12.067986476149304,0.12980684844737436
20.479472,12.130249450575993,0.12939738050799174
20.483512,12.168661962923904,0.1289831990726044
20.487552,12.18973739879352,0.1285348324039092
20.49164,12.192257784285564,0.1281020878402057
20.495668,12.175115870400683,0.1277235078647794
20.499752,12.153465036789678,0.1273224372012661
20.503812000000003,12.126652351728467,0.12694870334352473
20.507908,12.099396767067521,0.12658950133702554
20.511956,12.06922808198167,0.126254118044596
20.516044,12.042758989295802,0.1258892201788314
20.520076000000003,12.019435864510239,0.12551552619549305
20.524124,11.989278597099922,0.12520136571647808
20.528212000000003,11.957769795539319,0.12488133911446402
20.532196,11.92267212647867,0.12458380651514167
20.536284,11.888582399192966,0.124275107901331
20.54032,11.857405772332166,0.12393923297429495
20.544416,11.833849780071205,0.12353988281189447
20.548468,11.807048512685528,0.12317672669854107
20.552552,11.790570948200257,0.12275993639781388
20.556600000000003,11.774436976090321,0.12235719841699269
20.560648,11.76289981325538,0.1219205705662779
20.564688,11.751927692595649,0.12148943284091089
20.568768,11.743536497661015,0.12104480315179024
20.572812,11.735034577826449,0.12060390206055037
20.576844,11.726089758392142,0.12017864857851543
20.580928,11.718607198008053,0.11975610321104821
20.585016000000003,11.711013912724031,0.11933732882511959
20.589092,11.705104336290097,0.1189108566763764
20.59312,11.703570119331285,0.11846020987422451
20.597152,11.704284653397773,0.11801095739199555
20.601232000000003,11.70388052078938,0.11757490654977756
20.60532,11.71569383205581,0.11704767317516929
20.609416000000003,11.73019879394728,0.11650537801161041
20.613452,11.743806538963735,0.11596700602290165
20.617536,11.758311500855205,0.11542408446014955
20.621628,11.774500171596761,0.1148761940125142
20.625728,11.782957482838551,0.11439263017157585
20.629816,11.79690882023034,0.11387445119730745
20.633916,11.805809031071869,0.11337561267855822
20.637956000000003,11.814487792113525,0.11288507398060028
20.641992,11.820929219805418,0.11242116752332786
20.64598,11.8290543563474,0.1119513733810309
20.650064,11.840314043114159,0.11145291961742684
20.654148,11.854376105405889,0.11093739955348428
20.658244000000003,11.870343326347577,0.1104081294912074
20.66234,11.879919304264245,0.10991717469272871
20.666396,11.890171049256061,0.10943009184322582
20.670496,11.900422794247874,0.10894315568919341
20.6746,11.913255464964786,0.10844851207916796
20.678692,11.92037265973182,0.1079937983747134
20.682784,11.93096799709897,0.107525397288529
20.68688,11.936412900691451,0.10710585210129635
20.690976,11.94051768780918,0.10670766943803904
20.695076,11.949219284201904,0.10628337732301006
20.699168,11.959715314344647,0.10585175781888595
20.703268,11.968195460937501,0.10543758090285407
20.7073,11.980153750130468,0.10500979674989905
20.711392,11.990882647748617,0.1046001094832365
20.71548,12.007559888792045,0.1041736347114243
20.719568,12.025134346710487,0.10374347633308967
20.723656,12.048202830778932,0.10328604943773018
20.727744,12.072168531722388,0.10282604420982042
20.731836,12.091770290866254,0.10241205436385638
20.735928,12.110142658435304,0.10201593263322109
20.74002,12.128736475804224,0.10161321855116359
20.744112,12.153942985998029,0.10117199403092712
20.7482,12.18015743796678,0.10072470518306328
20.752284000000003,12.211755191185606,0.10025725248347875
20.756376000000003,12.239653352004447,0.09981136827244719
20.760464,12.273488438573038,0.09932412791220464
20.764556,12.304742599416524,0.09884649849886577
20.768644,12.340139252259734,0.09833742538634509
20.772724,12.375868079802746,0.09781839285461925
20.776808000000003,12.409802473595734,0.09730949996530798
20.780892,12.441045216763689,0.09681369032879272
20.78498,12.473406626606526,0.09630772837485185
20.789076,12.505202994274153,0.09579611643342097
20.793164,12.537220811741651,0.09527937068314127
20.797248000000003,12.564076777758947,0.09477857465923903
20.801332,12.590256976701104,0.09427484436643892
20.805424,12.6119510912682,0.0937907474617887
20.809508,12.632969438760153,0.0933043030277001
20.813592,12.652414802301951,0.09281636420324932
20.817676,12.671405848568478,0.09231861041513159
20.821756,12.692302053484964,0.0918130180216996
20.825832,12.708379999326585,0.09133611421362656
20.829916,12.721766294543169,0.09086937144541427
20.833992,12.726291145909574,0.09043122333992663
20.838072,12.732942605725805,0.08997670313219705
20.842152,12.737578181992141,0.089536967453255
20.846232,12.746024075558399,0.08907945956206009
20.850312,12.752675535374632,0.0886301791962139
20.854396,12.761342878740756,0.08816948260947748
20.858484,12.77191538075684,0.08770107795779956
20.862568000000003,12.78629820007284,0.08721610910856638
20.866656,12.800902469188708,0.08672522190571333
20.870748,12.815506738304578,0.086235483036165
20.874828,12.8265221399204,0.08575675023416933
20.878912,12.839442700186181,0.08526954329016259
20.883000000000003,12.85426841910192,0.08477474703085063
20.88708,12.872117963342497,0.08426334985920442
20.891164000000003,12.891872666233036,0.08374556068312072
20.895244,12.918572236648266,0.08319147816523176
20.899328,12.94516108216356,0.0826426278362274
20.903412000000003,12.969844769028898,0.082104646413154
20.9075,12.99856022299402,0.0815449740075192
20.911584,13.0291808356091,0.08097789554702434
20.915672,13.06899506677417,0.08038289465228032
20.919756,13.107801356164291,0.079796375986678
20.92384,13.14693982025422,0.07920189004959978
20.927924,13.181370750169217,0.0786277698089668
20.932012,13.214007246334193,0.07806014888376983
20.936092,13.244062816774067,0.07749814467129824
20.940176,13.270750969513765,0.07693965239414162
20.944264,13.292953037878403,0.0763935137076802
20.948348000000003,13.318068206667949,0.07583783319063199
20.952440000000003,13.340713174632326,0.07528181211202725
20.956532000000003,13.367279184796555,0.07470890267949433
20.960628,13.39182931141089,0.07414715851743621
20.964712,13.414474279375268,0.07359404028714489
20.9688,13.432411713164718,0.07305780092623926
20.972892,13.446760279454121,0.07253004071959653
20.97698,13.455282644893712,0.07202787968314113
20.981068,13.46223202638315,0.07152281446054874
20.985152,13.466489757247553,0.07102248256062381
20.98924,13.468055837486919,0.07052824088862746
20.993328,13.46973264262622,0.07003140853956838
20.997416,13.46322377099048,0.0695526637668005
21.001508,13.453126031854692,0.0690789961168917
21.005596,13.437202091869096,0.06862558405962861
21.009688,13.421610326583302,0.06816122690133901
21.013784,13.401089577322711,0.0677150405566975
21.017876,13.37754500273728,0.06728129111298851
21.021972,13.353778978351977,0.06685265888318764
21.026068,13.326091911766826,0.06643688543673683
21.03012,13.289665543906958,0.06605155950018306
21.034216,13.25279627644735,0.06567721452111959
21.038248000000003,13.210211533037866,0.06531863239172937
21.042344,13.167626789628383,0.06495830984891188
21.046428,13.121231728918982,0.06460738336360967
21.050512,13.07853626060956,0.0642466189414771
21.054564,13.033714183850314,0.06389587864554316
21.058652,12.989678599066142,0.06354558511546872
21.062652,12.94340568093221,0.06320843909588883
21.066684,12.896124821023331,0.0628732034368377
21.070772,12.847614569539635,0.06254704305639885
21.074828,12.795404725655954,0.062226217457172904
21.078916,12.744657140822495,0.06191082973235501
21.083008,12.697609148389015,0.06158581368333281
21.087096000000003,12.655157965230531,0.06125014542002113
21.091184,12.612374607372246,0.06092245494954367
21.095260000000003,12.575417450363764,0.060573556993791494
21.099352000000003,12.540365452005245,0.060217285721462205
21.103384,12.506321395421672,0.05985517302775156
21.107460000000003,12.477992814787973,0.05947568267118993
21.11154,12.454593218129077,0.05907626471365447
21.11562,12.43601188054504,0.05866209795609138
21.1197,12.420232918485974,0.058240041211888555
21.123784,12.403778189351769,0.05781044073950824
21.127816000000003,12.392141719292422,0.05736547348734712
21.131904,12.374900498183136,0.05693030669582208
21.135988,12.361801769073573,0.056474221128377175
21.140072,12.342311796938992,0.056023167262305246
21.14416,12.328648025654221,0.05555405060939434
21.148252,12.31778662989442,0.055078168864163606
21.15234,12.303114916834705,0.05460875571890541
21.156428,12.28911897085013,0.05414331075938944
21.160512,12.274336532890477,0.05367329262992546
21.1646,12.25383861898095,0.05321445297070909
21.168676,12.229641112671445,0.052758708582242145
21.1727,12.196925754887088,0.05231629805215626
21.176792,12.159502862927805,0.05188050628804752
21.180872,12.118269653668605,0.05144984266502948
21.184952000000003,12.069194360009703,0.05103912858236254
21.189036,12.014182140601054,0.05064500213529985
21.193116000000003,11.954130212317668,0.050266626410728314
21.197252,11.883433824109613,0.049912856820233435
21.201336,11.805681843476929,0.04958183165601995
21.205432,11.723787370844525,0.049265010400393515
21.209468,11.63394008891248,0.04897128254411386
21.213556,11.539728865180846,0.04869966720310993
21.217652,11.43622471567482,0.048465864822022
21.22168,11.337771692719063,0.04823834141260054
21.225720000000003,11.226547601388798,0.04804599285286804
21.229812000000003,11.105465542108943,0.04788122691971482
21.233912,10.983264816154202,0.04772017898596261
21.238008,10.857032323099677,0.047571176725435815
21.2421,10.723854962520456,0.047441928213128495
21.246196,10.58832954369154,0.04732872614949316
21.250288,10.450566791512859,0.047227476207536236
21.254376,10.320989716109219,0.04711826547945095
21.258464,10.187945915781,0.04703387162947398
21.262552,10.05244333230315,0.04697107155892045
21.26664,9.923221266950382,0.04690550824826901
21.270724,9.790078159397765,0.04684991824752832
21.274808,9.653911226520302,0.04680453967975617
21.2789,9.519760177192737,0.04674739569763067
21.282988000000003,9.388522228290077,0.04667948793611188
21.287080000000003,9.255157670937585,0.04662179420863982
21.291176,9.12168238868516,0.046566919258418014
21.295264000000003,8.989436498007553,0.04649648662498421
21.299356000000003,8.859095765979902,0.04642087587315322
21.30344,8.721355849152287,0.04635148496248195
21.307524,8.585410366074697,0.046282045982888396
21.311608,8.454172417172035,0.04620169508235517
21.3157,8.32069713491961,0.04613964481595927
21.319788000000003,8.18430875224228,0.046086134647608315
21.323872,8.051619961964933,0.04602571898392782
21.32796,7.920725605437609,0.04596430911448691
21.332048,7.788823307135338,0.04590592493303465
21.33614,7.650984083083323,0.04587236508361682
21.340232,7.513144859031306,0.045839831210767255
21.344320000000003,7.3753056349792905,0.04580843477526948
21.348416,7.22726485060234,0.045791344548024346
21.352504000000003,7.081804991950489,0.045781063158369495
21.356596000000003,6.938361016848531,0.045755650175308075
21.360692,6.794252692346965,0.04576688487745789
21.364788,6.653733235345445,0.04577328426269612
21.36888,6.514786762294081,0.04579520410468133
21.372976,6.37483234746777,0.04582503662704003
21.377068,6.234435033041718,0.045882240050437
21.381156,6.0941484435156035,0.045931695100011785
21.385252,5.956664229514457,0.045973530455581516
21.389344,5.8210851741632705,0.046010483267473604
