Time,Force,Position
21.347844,0.49395247391193065,0.0
21.351936,0.5021609860380376,0.0
21.356032,0.501630196889429,0.0
21.360128,0.4996371486906013,0.0
21.364224,0.49372305829192165,0.0
21.368256,0.4862359839430882,0.0
21.372348,0.47785169271924277,0.0
21.37644,0.4695781263953323,0.0
21.380532,0.45861290944638644,0.0
21.384624,0.4514580097973575,0.0
21.388712,0.4430737185735122,0.0
21.39274,0.4334600357748504,0.0
21.396832,0.4276680879516386,0.0
21.400924,0.43074900165414287,0.0
21.405012,0.4368765760325531,0.0
21.4091,0.4517777047122774,0.0
21.413192,0.4772468214433395,0.007660686020498099
21.417284,0.5118445025265862,0.01545657174178251
21.421376,0.5600682500126094,0.023335288525221494
21.425464,0.6267591583273384,0.03138037568384093
21.429492,0.7118179202463714,0.039449969111189864
21.43358,0.8219907888455961,0.04746868347248953
21.437664,0.9648983987248468,0.05539339370319136
21.441744,1.1381926916344254,0.06327977892023656
21.44582,1.3451189426990418,0.07100287714572799
21.449852,1.5826533265938558,0.07865101551400397
21.453888,1.8496657589684529,0.08625276492312257
21.457976,2.1417808803477087,0.09384477768396496
21.462064,2.462022516056464,0.10139908003263942
21.466148,2.8078097403696183,0.10892127774471964
21.470224,3.1781231938366905,0.11641258062782456
21.474308,3.5772275110328713,0.12387366570181312
21.478388,3.9972691898829247,0.13133914304041144
21.482464,4.4278138025865115,0.13887259606627114
21.486544,4.883869750867898,0.14633356120266275
21.490628,5.355556231426424,0.15376245504270147
21.494704,5.8418538848116075,0.15347683624654582
21.498788,6.335672865572223,0.15302551033033512
21.502872,6.830144778056916,0.15245609217883938
21.506952,7.320749284864028,0.15166028654447952
21.511032,7.795578281467468,0.15082286772640532
21.51512,8.24596893846586,0.15001695827264552
21.519208,8.66809952088375,0.14928296160338775
21.5233,9.063531594995764,0.14854031349198343
21.527392,9.426106785252282,0.1479419043853025
21.531476,9.760421900928304,0.14737773094625206
21.535564,10.067385576574367,0.14684406253810048
21.539648,10.349922330290916,0.1463145501862632
21.543724,10.60848647935322,0.14581167538882023
21.547808,10.843410198461083,0.1453170861439279
21.551892,11.057950180414748,0.14481181579313848
21.555984,11.247166023563883,0.14431884491468341
21.560072,11.413970828333397,0.1437952658833816
21.564164,11.565542329723382,0.14316681609767146
21.56826,11.687990792684452,0.1426200415053915
21.572356,11.789169719291847,0.1420861115726889
21.576452,11.868414760145953,0.14159102404344828
21.580544,11.930788459472575,0.14112398842929413
21.58464,11.977764493997462,0.14070717448131373
21.588736,12.015966974221033,0.14030739164061107
21.592832,12.053138677318595,0.13986999117776094
21.596924,12.087385862315715,0.13943608807757674
21.60102,12.124767597537613,0.13896849232986783
21.605116,12.158793332734865,0.13854824447536174
21.609208,12.190913909282157,0.1381455598908613
21.613304,12.21933489342947,0.1377757740306123
21.617404,12.245617851451419,0.1374058109897533
21.621496,12.27110289982276,0.13701276008892987
21.625592,12.293652012418129,0.1365961491061984
21.629688,12.313043739437658,0.13616467329489967
21.63374,12.325246313781559,0.13576058402831082
21.637788,12.335753761599841,0.13533973841494498
21.641876,12.342550199342606,0.13492257240451386
21.645972,12.348438002534824,0.13448744134035343
21.650056,12.354990155126657,0.13402664099041375
21.65414,12.360301498468138,0.13355853694884892
21.658232,12.362688323709179,0.13309068522240244
21.662316,12.362704255349456,0.13260232327840796
21.666408,12.36315166891394,0.13207004480670567
21.670412,12.357650739053147,0.13156980673793514
21.674448,12.343742682617442,0.13113737678083312
21.6785,12.33051039325688,0.13070617556621114
21.682532,12.312238395021586,0.130326112801621
21.686568,12.299006105661023,0.12989528362405625
21.690612,12.292275784225414,0.1294144926434648
21.694656,12.283751029039781,0.12894404363568238
21.698688,12.275791316029355,0.1284790914108258
21.702728,12.269626036768953,0.1280030733644799
21.706768,12.260669799659112,0.12757457088326282
21.71086,12.251049213149663,0.12717008671849378
21.714956,12.241993668815422,0.12677074864036275
21.719052,12.233170991956582,0.126389812250431
21.72308,12.230296658523022,0.12598084140844132
21.727176,12.22452064234009,0.12562417849388574
21.73122,12.220428335007245,0.12525983655041217
21.735308,12.213766519624834,0.12493445299713783
21.739364,12.208013338792965,0.12462931688993742
21.74346,12.20205012583676,0.12435822645104658
21.747556,12.201703081606029,0.12407241399045048
21.75166,12.203604788400593,0.12378548742722423
21.75576,12.211897738220175,0.12345465257350646
21.75986,12.222660888864924,0.12311582611345848
21.76396,12.234321256384684,0.12277103137335879
21.768056,12.242736348779733,0.12246469787856441
21.772152,12.24499306562517,0.1222203984254667
21.776204,12.254316792570766,0.1219366306421918
21.780304,12.26902382076643,0.12162182552992808
21.784344,12.28228000758741,0.12133382145266253
21.78844,12.302259612133213,0.12099328322634716
21.79254,12.325495909479258,0.12064475555102983
21.796576,12.349973016075651,0.12030527117923696
21.800628,12.377031048397146,0.11995578030290549
21.804616,12.401630297569007,0.11964329588342924
21.808716,12.430937080915797,0.11929889879638936
21.8127,12.462381890387949,0.11896063058808823
21.816788,12.501447334459934,0.11856778061792635
21.820836,12.545552487406654,0.1181324577471505
21.824884,12.600191375378113,0.11762369588058208
21.82898,12.650122729174642,0.11715132942249247
21.833024,12.706556050896124,0.11664253833603164
21.83712,12.765570298342706,0.11612901488298336
21.841208,12.828394863089205,0.1155954332037308
21.845252,12.89671345398571,0.11503454151342747
21.84928,12.965818536857292,0.11447457976788579
21.853364,13.038168894853586,0.1138826340223166
21.85746,13.108724819099852,0.11330585514350222
21.861504,13.179834367845794,0.11272025232503388
21.865588,13.2506003242164,0.11212363834109934
21.869628,13.318896079761839,0.11153901799706208
21.873708,13.384943084281984,0.11095664660306065
21.877796,13.455796930201457,0.11032232852273914
21.881876,13.527315125520543,0.10967328620368792
21.885956,13.59490086096424,0.10902843486125471
21.890036,13.660348570282581,0.10838441592919139
21.894068,13.724211877975234,0.10772179267489536
21.89814,13.78604788444246,0.10705800776918349
21.90222,13.843840706134365,0.10640484127533731
21.9063,13.892207041800877,0.10578773374740837
21.910388,13.942577843341756,0.10513512982881403
21.914412,13.984530100632186,0.10450794031326475
21.918456,14.020976914097078,0.10388663311355763
21.922492,14.052029008636366,0.10326857456020708
21.92658,14.077243484650312,0.10266525518789907
21.930616,14.102667992788595,0.10203371513613724
21.934704,14.12516798282644,0.101396855786763
21.938736,14.145862121438729,0.10074566951944659
21.94278,14.158370583275975,0.10013079949439388
21.94688,14.169195336263131,0.09951969506214434
21.950976,14.179455047075082,0.09890361091124752
21.955008,14.187355281961803,0.09828733702897725
21.959104,14.19043725777366,0.09769981147450167
21.963192,14.189033149210456,0.09712968320511299
21.967228,14.190763590872029,0.09653638280526047
21.971316,14.187000006383593,0.09596468845823526
21.975404,14.183125696995225,0.09539704001679136
21.97944,14.174433128531994,0.09485490742115414
21.983468,14.163946126318738,0.09431795799745951
21.987496,14.151332515655653,0.09379530473062128
21.991576,14.13547362986786,0.09329791529897274
21.995656,14.119171844480325,0.0928119986474985
21.999736,14.104332318143012,0.09232951022437363
22.003728,14.086812558856193,0.09187802468873316
22.00776,14.071984450194412,0.09141758996844701
22.011844,14.059405092557927,0.09096256977232473
22.015928,14.050979644596696,0.09050329470314065
22.019928,14.041557672536051,0.09007292818813155
22.02402,14.034495176400636,0.0896429883465877
22.028052,14.029792156190453,0.08921462667246459
22.032092,14.024535511480595,0.08880279906552045
22.036124,14.025116485296081,0.08838593328934513
22.040176,14.02446806753675,0.08798102325141409
22.044224,14.023044575477876,0.08759805106150602
22.048268,14.019948792244444,0.08724037023483189
22.052372,14.022579902636423,0.08688041152170468
22.056476,14.025111705804,0.08654751843004596
22.060528,14.027654926647106,0.08623709048374027
22.064572,14.035925041115625,0.08592579318866657
22.068616,14.050929990984496,0.08560788020400782
22.072652,14.06616780832877,0.08530658596084066
22.076648,14.085670260248232,0.08499977530827864
22.080676,14.10652424631798,0.08470220445415881
22.084772,14.13142141716305,0.08440554794784395
22.08882,14.152519688383736,0.08414855282730088
22.092816,14.17126990135472,0.08391377532195929
22.096844,14.19115019867612,0.08369503991718426
22.100936,14.212935654647477,0.0834689394741306
22.104964,14.238199253218948,0.08323779019659107
22.109056,14.264249343765494,0.0830087449946223
22.113088,14.291872418262194,0.08278246953441795
22.117184,14.315685175458977,0.08257264550748265
22.121284,14.343651842331017,0.08236186798924369
22.125328,14.376547493177853,0.08212854016522673
22.12938,14.416166561749511,0.08186966292054311
22.133432,14.457912238771,0.08159955081622558
22.13748,14.500100815392228,0.08131822747726239
22.141568,14.549455709338018,0.08099942712627999
22.145572,14.597913386408797,0.08068553072815579
22.149556,14.647711179954324,0.0803610632726825
22.153652,14.70366734904947,0.08000582194577875
22.157696,14.759734243044548,0.0796499864528117
22.161736,14.8140067032896,0.07929969341069358
22.165832,14.867935571159318,0.07893813610995483
22.169928,14.929141481253533,0.07853832648508591
22.17396,14.989782349172538,0.07813313253926733
22.178004,15.046601482116095,0.0777218012765581
22.181948,15.105768673309349,0.07729518384617906
22.185996,15.163695055252253,0.07686061867049962
22.190072,15.224080220344792,0.07640898751284125
22.194104,15.285240459736876,0.07594024747250296
22.198184,15.348970207178526,0.07545046958444869
22.20222,15.41369647871959,0.07493887372516697
22.206204,15.475952549435489,0.07442969869770906
22.210128,15.531030885151292,0.07393676343770367
22.214164,15.581844586291904,0.07344882145864068
22.21826,15.632203970157246,0.0729531651650468
22.222348,15.677180052772517,0.07246979905054861
22.226384,15.717326458637391,0.07198260319098382
22.23042,15.747603478877135,0.07151238383031917
22.234452,15.774513081416702,0.07104549752199152
22.238488,15.796482282305938,0.0705762024411717
22.242564,15.818107890819837,0.07009495083090024
22.246648,15.839279182058464,0.06960533813070445
22.250728,15.854391404971878,0.06912135685197136
22.25476,15.868041368835073,0.06863192491568137
22.258748,15.880794115823253,0.06814379624229643
22.262772,15.88715561978642,0.06766757254536163
22.266852,15.889817531349602,0.0671990422332569
22.270936,15.88508025811282,0.06674589443890097
22.275016,15.875524725801174,0.066306739676397
22.279044,15.8612616593146,0.06587853913176434
22.28308,15.840496624903071,0.06546309333670963
22.287108,15.819055823416404,0.06504287393268662
22.291204,15.801868238829393,0.06460218216980212
22.2953,15.78299694539229,0.06415978178889704
22.299392,15.76042605955521,0.06372292166219216
22.303488,15.738076623517994,0.06328000672780491
22.307524,15.715837912380715,0.06283279225868887
22.311556,15.70032261896826,0.06236721751697963
22.315644,15.676289474080958,0.06191855142482743
22.319728,15.653940038043743,0.061469306572339476
22.32382,15.629796168256506,0.06102056395211417
22.327908,15.601166214094206,0.060574283052230865
22.331944,15.571639043056898,0.060127168228494524
22.33598,15.539309496494619,0.059682922789578076
22.340072,15.505972008157395,0.05924053137976599
22.344164,15.478349995770046,0.05878486673225813
22.348256,15.449609316707814,0.05833334697319255
22.352304,15.42165512962066,0.057881893273370254
22.356304,15.393922392333375,0.05742315185594657
22.360336,15.365070988371208,0.05696848605621335
22.364384,15.338689785234209,0.056516010454247326
22.368468,15.30827681499742,0.056075028482233766
22.372496,15.2678951519111,0.05566234022454242
22.376532,15.229086472774934,0.05525255541161851
22.38058,15.190056343838899,0.05484590090462103
22.384608,15.150915490002928,0.054440765721680516
22.388584,15.112228953442232,0.05404445867970316
22.392636,15.069399924881813,0.05366244295038854
22.396732,15.035875239771315,0.05326622713919336
22.400768,15.002129104860947,0.052874186616733106
22.4048,14.96894801212579,0.05248849394978813
22.408828,14.937794220616057,0.05211648682168008
22.412876,14.904070921056757,0.05176245951832283
22.41696,14.873715039197636,0.051411138392017816
22.421004,14.842240490663631,0.05106385799368093
22.4251,14.800686524380156,0.05074541082346376
22.429084,14.758911108296815,0.05043054193694199
22.433004,14.71209598333874,0.05012832938913765
22.437088,14.66091691658107,0.04984425987696261
22.441172,14.609737849823404,0.049557894781015625
22.445248,14.551724640440979,0.0492847295517205
22.449332,14.489568939058831,0.04902363771605204
22.453416,14.427978279851892,0.048768231508257626
22.457448,14.356529652695357,0.048535137853370526
22.461528,14.28284369218906,0.04831161320060492
22.465616,14.199754081008434,0.0481224004946987
22.469708,14.112521977828088,0.04794644292181519
22.473796,14.017337065348103,0.04778991185051509
22.477824,13.911286243143575,0.04765899642589968
22.48186,13.80120365383926,0.04753804017742479
22.485888,13.681263096585345,0.0474401882866696
22.489976,13.554488396706674,0.04735670726696106
22.494064,13.425587088378174,0.0472811977627721
22.498148,13.287835753875028,0.04722604295901746
22.50224,13.145941927372155,0.04718482755183629
22.506268,13.002032217319393,0.04714965998697218
22.510312,12.853304248191764,0.04712227402520957
22.514412,12.708275871464123,0.04708947262022955
22.518508,12.563136769836543,0.04705853633527834
22.5226,12.410720625984473,0.04705616150831392
22.526696,12.259988190982485,0.04705589971814366
22.530788,12.111947406605536,0.04705481268194408
22.534824,11.963795897328652,0.0470567228755957
22.538916,11.820573372026564,0.04704392173859745
22.543004,11.678026613799618,0.0470371866994646
22.547092,11.53782791382237,0.04701299285501305
22.55118,11.396731996970109,0.046987625256976855
22.555268,11.260343614292783,0.04695472733488832
22.559356,11.122725840040633,0.04693366693767019
22.563444,10.98410012401354,0.04691468098127247
22.567536,10.853992259461293,0.04688056943489174
22.571628,10.726908220233886,0.04683416703189706
22.575716,10.598816239231532,0.04679140067631734
22.579804,10.471510750204255,0.04675324363570599
22.583896,10.34700763670195,0.04671024866074611
22.587984,10.224298956949667,0.04666752948574061
22.591976,10.102266044272527,0.04663235414692603
22.596064,9.975193422720652,0.046616884593427006
22.6001,9.845096975843935,0.046614295229812384
22.604192,9.719032296067011,0.046595605057262277
22.608284,9.587252140340208,0.04659022584915011
22.612368,9.453566825963446,0.04658855955506588
22.61642,9.31808707783666,0.04658681607900272
22.620504,9.181377938135059,0.04659671218221741
22.624592,9.040514888758203,0.0465904298616226
22.628628,8.899319664681542,0.04659739079512364
22.632712,8.755211340179976,0.04661386895516018
22.63674,8.607403423278427,0.0466344046614085
22.640784,8.461943564626576,0.046631073246436575
22.644784,8.31076823002485,0.046643521942013245
22.648872,8.148383393323241,0.04667667158297016
22.6529,7.9792751388968135,0.04673186233748714
22.656984,7.80579152499526,0.046783824907722205
22.661012,7.630734927143553,0.04682806785036291
22.665048,7.446373985841924,0.04689254408690958
22.669092,7.262455944140033,0.046930900815197886
22.673176,7.073154601188071,0.046973455834854155
22.67726,6.8795886236609185,0.04700787130871477
22.681348,6.687473487508454,0.04700752249601389
22.685408,6.49065081718106,0.04702075790056532
22.68944,6.296851972178507,0.047014886019758936
22.693488,6.0984563179009585,0.04701840486161871
22.697572,5.89725828809844,0.04703242801977917
22.701612,5.688550348596023,0.0470811579630879
22.705648,5.480407451268815,0.04714816385329558
22.709696,5.269462178416634,0.04723807634793042
22.713784,5.055825254939418,0.047342006398685514
22.717876,4.843306998137083,0.04742255881930708
22.721964,4.628883582684789,0.047504293845509984
22.726056,4.420175643182372,0.04756141624182651
22.730148,4.217969671604907,0.04760898289083842
22.73424,4.021700625777188,0.047592200222507014
22.738332,3.8309256060994743,0.04755578523326923
22.742432,3.6448581205966892,0.047478100499425344
22.746512,3.465514052818727,0.047337723196168406
22.750604,3.2849405934659477,0.047209226193443796
22.75464,3.1117663189131326,0.04704001012981267
22.75872,2.945880504260348,0.04683325450134024
22.7627,2.7813462237578466,0.04666358688684993
22.76678,2.6223059694053514,0.04647063608711883
22.770864,2.4639414821279986,0.04629784565434672
22.774948,2.3148813383005677,0.046034969872167535
22.779032,2.173220379273102,0.045705521207521485
22.783112,2.0428796472454516,0.04524444809297211
22.787192,1.915009116042968,0.0448205057855369
22.79128,1.790162410165324,0.042394974595886856
22.795368,1.6727148890876442,0.03995024954673269
22.7994,1.5575161190352609,0.03752923153837337
22.803492,1.4455740417831198,0.03511907358738989
22.807572,1.3353156733810674,0.032722234503590554
22.811656,1.2305513311290208,0.030322842184712824
22.815732,1.1270277981273238,0.02797468369202912
22.81976,1.027990349500686,0.02564572559589138
22.823792,0.9295179430492551,0.023357644598782284
22.82788,0.8372153298229721,0.021116789260158357
22.831908,0.7509717849219023,0.01888623904577754
22.835996,0.6682063826209449,0.016688146863317842
22.840088,0.5902104919305835,0.014526901083755327
22.844132,0.5186058442652396,0.012354180593068333
22.848164,0.4523844978499667,0.010196184579709158
22.852216,0.3934516113347232,0.008027580752331983
22.856304,0.33698892564464544,0.00593978854855871
22.860344,0.2840043825546802,0.0039082016040755275
22.864432,0.2334900402898806,0.0019736425590183237
22.86848,0.18858044907502172,0.0
22.872576,0.15073786796032257,0.0
22.876608,0.11727064632074764,0.0
22.8807,0.08940817573111343,0.0
22.884728,0.06715045619141985,0.0
22.88882,0.04937882102678541,0.0
22.892908,0.03329089471223975,0.0
22.896996,0.02191050257262294,0.0
22.901084,0.012213819283094904,0.0
22.905172,0.0071139452685608584,0.0
22.909208,0.0028005632291037644,0.0
22.913288,0.0005030647395400589,0.0
22.917316,0.0,0.0
22.9214,0.0,0.0
22.925476,0.0,0.0
22.929556,0.0,0.0
22.933636,0.0002816149396703161,0.0
22.937716,0.00045250497940576087,0.0
22.941804,0.0017420616940227712,0.0
22.945888,0.0030316184086397815,0.0
22.949976,0.009250159098055393,0.0
22.954064,0.013452816237577615,0.0
22.958092,0.01866341515204653,0.0
22.962172,0.0220795803164918,0.0
22.966152,0.022582645056031858,0.0
22.970188,0.02779324397050078,0.0
22.974276,0.03490900153492821,0.0
