Time,Force,Position
20.405888,9.850301791611955,0.04651069865233558
20.409976,9.772056726712654,0.04661486627950412
20.414055999999995,9.6948196035883,0.04671605169953788
20.418099999999995,9.619598364013841,0.046810258591772916
20.422128,9.54774454213956,0.04691540507029074
20.42622,9.482835587789967,0.04699569411789723
20.430308,9.417815908540442,0.047081537908331896
20.4344,9.352574779491048,0.04717741894924327
20.438492,9.29282767659166,0.0472698864636972
20.442588,9.235207182142098,0.04735000767769873
20.446684,9.177475962792604,0.04743536325033569
20.45078,9.114139992393167,0.04753098422978978
20.454876,9.047215154493685,0.047627492969188556
20.458968,8.979393099719188,0.04772747961085937
20.463064,8.914816320069404,0.0478044686478277
20.46716,8.847658614694517,0.04787908868872404
20.471252,8.776014824944571,0.047956571132160404
20.475348,8.699995675719503,0.048031969718843145
20.479444,8.619490442119373,0.04810872132658555
20.48354,8.540546774793865,0.04815647070613426
20.487636,8.462046007068096,0.04818485249597339
20.491732,8.377486171017116,0.04820315630601759
20.495771999999995,8.293934276741082,0.0482160281762801
20.49986,8.208587948715024,0.04822926232114859
20.503952,8.126486895813676,0.04821734176480187
20.50804,8.042259234462499,0.04821937721518352
20.512132,7.961841890411239,0.04821084749417479
20.51618,7.880859504184773,0.04818723935263218
20.520264,7.795280308683312,0.04816974604890534
20.524316,7.7095903882819155,0.04815692330236219
20.528416,7.621540991955291,0.0481275946010171
20.532456,7.532705103653587,0.04809444519090311
20.536508,7.442639823777068,0.04807966093193805
20.540544,7.355819819025259,0.04803699818115475
20.54464,7.2658652640486725,0.048015799377432736
20.548736,7.181294010322159,0.047995075868618925
20.55278,7.100876666270898,0.04799555962630109
20.556875999999995,7.02686198292019,0.04804135328147027
20.560928,6.956901902020332,0.048164934508849046
20.564976,6.890332074171719,0.048400895665618844
20.569004,6.826820324674544,0.048770974279944646
20.573104,6.772314996954087,0.04928741754802778
20.577152,6.723116498610365,0.04995719795405056
20.581247999999995,6.6807978135935295,0.05079195596571929
20.585348,6.640429957928784,0.05181714027411929
20.589383999999995,6.605491074216243,0.05303320135667003
20.593484,6.577554146406057,0.05443777038371317
20.597576,6.560883809073417,0.05602958686981697
20.601672,6.557828120468018,0.05776587903235064
20.605668,6.564466038390015,0.05966331306671302
20.609716,6.584054255639644,0.061728506549594504
20.61376,6.618043613591593,0.06392460812672593
20.617812,6.669568662470638,0.0662044941727118
20.621844,6.732360301827229,0.06862816824629543
20.625888,6.806639981461235,0.07118323518144923
20.629988,6.889826775647557,0.07385935199040947
20.63408,6.986616800885589,0.07657331064991549
20.63818,7.091061713750053,0.07932676101669542
20.642272,7.204833805415506,0.08207298000601199
20.646367999999995,7.318617314756494,0.08482511430047066
20.650424,7.4380055751474226,0.087496321348176
20.654528,7.55547725921286,0.09008810012413508
20.658628,7.669680832802521,0.09259680892819692
20.66268,7.783075079066041,0.09497519681797575
20.666764,7.894197738953199,0.09722400935753836
20.670856,8.003713161863605,0.09930126787589609
20.674892,8.109483321671895,0.10119295744316975
20.678984,8.206346366927875,0.1029274863274502
20.683072,8.292064964281773,0.10454881542379346
20.687164,8.36808995510828,0.10602988629657027
20.691256,8.432516180757437,0.10739461165772718
20.695236,8.48803529185428,0.10862922969254794
20.699328,8.528931812448931,0.10979599360795578
20.70342,8.560024001616256,0.1108516892841866
20.707504,8.580414642481243,0.11181103768653866
20.711592,8.591222401718774,0.1126598609879859
20.715684,8.58819406242919,0.11346327244543983
20.719776,8.572448291287376,0.11421272105917933
20.723864,8.545447347343549,0.11491247932329561
20.727952,8.514368965597802,0.11551160572464826
20.732036,8.471149611850562,0.11611595986566595
20.736124,8.417140820252115,0.11674395787656612
20.740208,8.361536209352447,0.11730117346196942
20.744244,8.300525461851645,0.11782884143561408
20.748332,8.239491878999775,0.11827882630231196
20.75242,8.170704101297071,0.11874887342360022
20.756508,8.0917033455939,0.11929543804233056
20.760596,8.008991579815211,0.11985087401938908
20.76468,7.922790253760878,0.12040650529808573
20.768772,7.833332234906305,0.12099155102961683
20.77286,7.743862798376197,0.12154536726052473
20.776892,7.649895859795496,0.12210746883696444
20.780975999999995,7.5539016199893725,0.12267346447398186
20.785056,7.45722019543257,0.12319431938625598
20.789136,7.360748803000106,0.12366739017632697
20.79322,7.2629258764173565,0.1241408738478403
20.7973,7.1638621405842615,0.12461083053575307
20.80138,7.0684979971511455,0.1250462443413631
20.80546,6.9713394199680065,0.12551869430336066
20.809508,6.874856609860011,0.1260009158084998
20.813536,6.781851942352127,0.12646785893652912
20.817616,6.696246459644206,0.1268541772915948
20.821644,6.6103088022364815,0.12726723566785017
20.825728,6.527517112729065,0.1276703063575597
20.829823999999995,6.443053132047092,0.1281400457479714
20.833856,6.3672291454154335,0.12852709134872026
20.837952,6.300377327533892,0.12881449120212143
20.841944,6.240481794852576,0.12903009484285966
20.846,6.190123473096584,0.12914551843167588
20.850036,6.146045669465677,0.12918524454613683
20.854128,6.103097950185184,0.1292529915577153
20.858228,6.06633144180537,0.12930133106928327
20.862264,6.0352918270509655,0.1293107284156629
20.866296,6.005725889022313,0.129373927611862
20.870348,5.9805467281443185,0.1294390962631832
20.874392,5.962213127566613,0.12943309454082788
20.87844,5.950392912589393,0.1293813363471945
20.882484,5.943623824162438,0.12928274730476674
20.886579999999995,5.948407830210703,0.12903960381807936
20.890612,5.9581322379093,0.12875901256069855
20.894644,5.972907772158164,0.12843129662342187
20.898672,5.9947503165071865,0.12802333911384084
20.902671999999995,6.02175471230641,0.12756283236107477
20.906716,6.0513400338307335,0.1270783254728002
20.91076,6.084735672654976,0.12652970531817212
20.914804,6.117123369704271,0.12600644775779565
20.9189,6.149965384028838,0.12550635527143453
20.922872,6.183372440528613,0.12502448014210912
20.926956,6.2124155552287945,0.12464512589481813
20.931004,6.241912987204251,0.12428836851290188
20.935052,6.277801662204723,0.12384764568461308
20.939088,6.313690337205196,0.12340838476627065
20.94312,6.3514841708556276,0.12294230046183596
20.947212,6.391293888055952,0.12243726289660503
20.951304,6.432222271931159,0.12190977977915538
20.9554,6.471024047356536,0.12143367910420061
20.959432,6.508817881006967,0.12097946105131763
20.963519999999995,6.543809339132428,0.12056906546483154
20.967608,6.572409554232872,0.12024614468004305
20.9717,6.594950701008102,0.11997973326649372
20.975788,6.616926805608125,0.11970328302525725
20.97988,6.631503725408185,0.11952645846220056
20.983964,6.641705285733117,0.11939315322373163
20.988043999999995,6.64820725365807,0.1193077402553407
20.992132,6.654709221583023,0.11922311439316444
20.996216,6.658630263782874,0.11916087833024265
21.000304,6.661089046932508,0.11909609398174603
21.004396,6.660966904357041,0.11905367174814867
21.008488,6.66363571963101,0.11892426121744001
21.012572,6.663834334079813,0.11880938573703956
21.01666,6.658760372178481,0.11874633314959569
21.0207,6.653232093001876,0.11866322301414077
21.024788,6.645122888100172,0.11860169203064089
21.028872,6.6345434823733,0.11855430802065348
21.032956,6.621493875821264,0.11852048987315456
21.03704,6.607092735118942,0.11847602210590764
21.04112,6.59223727714135,0.11841113387463527
21.045148,6.576706052088613,0.11834084928383072
21.049232,6.562293493710759,0.1182457226149223
21.053312,6.556288061907815,0.11804259822770519
21.057396,6.551512021679688,0.1178085803309897
21.06148,6.5461709392763545,0.11756057795935329
21.065564,6.543853682197862,0.11726206643667186
21.069652,6.54287654159412,0.11692359843951852
21.073732,6.542120850790247,0.11657159962542056
21.077824,6.5441675355113444,0.11618431535351328
21.081908,6.549127320657347,0.11575600580308346
21.085936,6.554640730303023,0.11529064213355615
21.089964,6.55993269014883,0.11484236258003845
21.094048,6.569256417094425,0.11433009452077769
21.098132,6.581271794665054,0.11379102375714774
21.102164,6.5932871722356845,0.11325327864631111
21.1062,6.609223592006167,0.1126622382127028
21.110236,6.6290810539765,0.11201678538435027
21.114328,6.651740891471805,0.11134176226524538
21.118424,6.67551939564199,0.11064549333966014
21.122416,6.69660624918714,0.10997330850334014
21.126452,6.720606203157197,0.10926465812932398
21.130488,6.744495432227318,0.10856504051332866
21.134584,6.7621041431723565,0.10792957190391372
21.13868,6.774783870142596,0.107363952860291
21.142728,6.7920604063878285,0.1067514271084528
21.14682,6.808329000858116,0.10615696893581962
21.150868,6.82840791262832,0.1055216149503533
21.154964,6.845684448873553,0.10491782963234833
21.158992,6.862285218043644,0.10431096823862292
21.163044,6.877988770338724,0.10371674717560898
21.167092,6.89313869813413,0.10315713530328738
21.171136,6.905707700204434,0.10261378127753427
21.17516,6.91334771829994,0.10213564244858789
21.179196,6.920311969320305,0.1016526464982519
21.183172,6.927054770540799,0.10118404068328503
21.187252,6.9317816882114,0.10074721534291273
21.191296,6.935279214307184,0.10034041890083703
21.195392,6.938666015503033,0.09994328657671711
21.199487999999995,6.9455309592989956,0.09952907764458373
21.203579999999995,6.959684362994987,0.0990574827018865
21.207671999999995,6.971821883141086,0.09861486956565392
21.21172,6.9838486783872495,0.09817941847924047
21.215748,6.998234949558642,0.097744667266226
21.219732,7.018336696679909,0.09725258022174607
21.22378,7.037209052226361,0.09679025439822314
21.22788,7.0578758415228355,0.09631840792422121
21.23198,7.075075905894732,0.09591412078018141
21.236011999999995,7.096540604841817,0.09549383963409966
21.240112,7.122945705439234,0.09506920211863241
21.244164,7.149915848211857,0.09466154912766393
21.248268,7.182269292234552,0.09422249333439991
21.252316,7.219563137907579,0.09377716316067061
21.256364,7.2671692688054765,0.09325086987677252
21.260364,7.321055917828456,0.09269663576443515
21.2644,7.380547317901376,0.09210586002358492
21.26844,7.439595818374557,0.09154312736808867
21.272535999999995,7.5021224614478506,0.09097344337019231
21.276616,7.566000638671428,0.09042530206355318
21.280652,7.626854990570166,0.0899187665663223
21.284732,7.686590675794022,0.08944106000379935
21.288812,7.74912873654285,0.08894819370217633
21.292896,7.816706506166408,0.08841063578063713
21.296976,7.887197376214876,0.08785466843990855
21.301012,7.956348129788592,0.08733398714806527
21.30504,8.029309200662224,0.08679180534742974
21.309124,8.102946038610998,0.08626393255295138
21.313204,8.18151186053457,0.08569745410698454
21.317284,8.260299132258012,0.08512849763364108
21.321376,8.334821769406267,0.0845793336702388
21.32546,8.413376173654306,0.08400281898576852
21.32954,8.492484202402023,0.08341326742256111
21.333616,8.572035130749477,0.08281252727751666
21.3377,8.646878524922,0.08225659460257545
21.34178,8.71712510981953,0.08173580971313922
21.345864,8.78198839346699,0.08124417802189218
21.349892,8.847294576714189,0.08073439168081599
21.353984,8.910462733836027,0.08021795637132846
21.358076,8.971714314632372,0.07968217165591132
21.362164,9.034084562103601,0.07913694693046444
21.366256,9.093087391874649,0.0786003833613501
21.370348,9.151414454570556,0.07806393742827451
21.374436,9.204923258191602,0.0775648923545953
21.378528,9.255851136087543,0.07707582939949571
21.382624,9.309348522033055,0.0765530760749885
21.38672,9.360375707153398,0.07603680888389766
21.390816,9.411845791873484,0.07550733400433232
21.394908,9.461742892643414,0.0749817233982089
21.398952,9.509845559663322,0.07446590401542959
21.403048,9.559964110233123,0.0739403826376859
21.407143999999995,9.603580692877971,0.07344760409851145
21.411176,9.642379016447956,0.07298628346801625
21.415268,9.679272181367983,0.0725391700864111
21.419296,9.710560595238068,0.07211641683095632
21.42338,9.738149416708172,0.07170864424034505
21.427364,9.765738238178274,0.0713019284350335
21.431348,9.796461609873152,0.07087432747706085
21.435379999999995,9.825734140193342,0.07047409560469682
21.439412,9.853777278938717,0.07009150271089964
21.443392,9.882828359459035,0.06970557907294239
21.447368,9.915357582579468,0.06931857763739316
21.4514,9.947554631000095,0.06894774353919592
21.455432,9.98434848869572,0.06856581185182901
21.45946,10.021818113466484,0.06819307430374545
21.463508,10.055145246237526,0.06785305672886956
21.467492,10.087353712333687,0.06752604614519302
21.471484,10.117546294879956,0.06721400455677579
21.475416,10.147628152526288,0.06690961552665509
21.479464,10.181631052372472,0.06658904239402533
21.48346,10.213618068668763,0.06628292219710251
21.48744,10.250312619139983,0.0659625356771765
21.49148,10.29081748691112,0.06563024658138936
21.495564,10.330757312507052,0.06528991387985547
21.499592,10.379436439377697,0.06491377235760219
21.503616,10.433941767098153,0.06451485944492932
21.5077,10.492478861918398,0.06409798606291447
21.511796,10.546984189638854,0.06370742201418425
21.515844,10.602940358734,0.06329819545843937
21.519892,10.662928294928928,0.06287173821556359
21.523936,10.72033530539876,0.06244887882724189
21.527992,10.773588406193333,0.06202391144424826
21.532039999999995,10.826387189712637,0.0615874498755539
21.536092,10.876715772406776,0.0611519324655535
21.540124,10.926811487625512,0.0606975265468905
21.544068,10.980828245044098,0.06023027473033566
21.548068,11.036185118937436,0.05975011194758402
21.552116,11.092882109305524,0.05925721102251601
21.556096,11.146100957073502,0.0587675935998438
21.560148,11.19180989514158,0.05830018556668947
21.564195999999995,11.237629558109592,0.05783121982295594
21.568192,11.277955194927598,0.057374131601085
21.57222,11.312786805595604,0.056928468163559336
21.576256,11.349412850013628,0.056484643001131055
21.580352,11.377631767856741,0.05606206274392365
21.584276,11.403048310174883,0.05564867535339619
21.58826,11.427346185818145,0.05524725305154773
21.5923,11.452762728136289,0.05483905944395382
21.596332,11.47638483670441,0.05443424870819913
21.600332,11.497204569747558,0.05403796968583527
21.60442,11.518024302790705,0.053642734307353196
21.608512,11.537503919359104,0.05326249751197894
21.612544,11.55687281102757,0.05288758724397358
21.616524,11.573217877371194,0.05252613096548709
21.620604,11.587325610365053,0.05218103554401694
21.624644,11.593358391483804,0.051840060555577105
21.628727999999995,11.59334352195288,0.05152289026545202
21.632816,11.587502451572144,0.051222050160813895
21.636904,11.5761673550414,0.050925000933520946
21.640932,11.563935041635647,0.05062660125431729
21.645016,11.545311485204875,0.05033264255661769
21.6491,11.52276688657425,0.050048812567830364
21.653184,11.494617536893685,0.04977144810501629
21.657268,11.45032970113844,0.04952551092679182
21.661352,11.405033923608247,0.04928134455765613
21.665376,11.349315135953251,0.04905605363474428
21.66946,11.28361623777319,0.048834211692424655
21.673552,11.211415371668176,0.0486185903522517
21.677632,11.130475204288446,0.048424308100935495
21.681728,11.03900130188398,0.048251569594127824
21.685824,10.935985722679826,0.04810500282901923
21.68992,10.826578900450652,0.04796082221841891
21.694012,10.703946692571709,0.047839034757105825
21.6981,10.57122364926776,0.04772325048318551
21.702196,10.43177718823899,0.0476214663534069
21.706284,10.289982668960524,0.047536711659399856
21.710376,10.146615165731903,0.04744078025431038
21.714464,10.000223837178446,0.04735493671153439
21.718556,9.854176101000322,0.047287534070129894
21.722592,9.70622320617224,0.04722073386061981
21.726688,9.556254427794265,0.047159176808564865
21.730784,9.405388432541278,0.04709550327741193
21.73488,9.256992638113456,0.04703857619000592
21.738912,9.118798404010569,0.046967917899736096
21.743004,8.979374778332867,0.04690825037783327
21.747091999999995,8.844437237030222,0.046847755045223725
21.751183999999995,8.706819462778077,0.04682377649760904
21.755272,8.565845688501286,0.04682815903280038
21.759364,8.423753247549612,0.04684404789552113
21.763456,8.284241732323041,0.046866040041251035
21.76754,8.15224012679637,0.04687389324548393
21.771632,8.02674048919465,0.0468683546507336
21.775728,7.911442411917863,0.046846475677931945
21.77982,7.802314127866225,0.046828802511049136
21.783856,7.695766769539686,0.04681696994653597
21.787944,7.593029728513066,0.0467927848241959
21.792,7.490636279861785,0.046794925105216066
21.795984,7.389361497885384,0.046784454209766714
21.80002,7.289094657683929,0.04676894655189889
21.80406,7.189392859657683,0.04676956799124812
21.808156,7.090366828706577,0.04678179427688881
21.812252,6.99212728973055,0.04679928094449084
21.816348,6.894784967629534,0.04681695679259155
21.820388,6.7985613122033985,0.046819373730956834
21.824416,6.700432498127306,0.04682849126120275
21.828496,6.606224726251065,0.0468168943316408
21.832528,6.520977705449408,0.04675619585520394
21.83656,6.439762451747539,0.04667083606803832
21.840644,6.367962266395526,0.04655980874863739
21.844672,6.297956514793538,0.04644839275729504
21.848756,6.228958704966497,0.046327211582892616
21.852836,6.153913244489775,0.04624325262663882
21.856916,6.07965427598813,0.04616336686478124
21.860996,6.009881391861545,0.046083696402137525
21.865072,5.939211290859948,0.046003880913772645
21.869156,5.866303856508588,0.04595044402925327
21.873236,5.7947365386319785,0.045868034414497404
21.877284,5.722837046055565,0.045804510911090855
21.881312,5.652731987229175,0.04574038201362124
21.885364,5.58273765330272,0.045668497802838125
21.889448,5.518348070426207,0.04558169400796728
21.89348,5.456539413274793,0.04550242749100158
21.897564,5.395849422798262,0.04540525217419858
21.901648,5.333819315846979,0.04533608776409796
21.905736,5.276496743070624,0.04525117824629989
21.909828,5.212340027669513,0.04520178699480123
21.913916,5.142922153593797,0.04520582298791699
21.918004,5.077990363893139,0.045208963141713965
21.922087999999995,5.0074538231425425,0.04522430677925142
21.926172,4.934114906866977,0.0452506488898872
21.93026,4.860554540791538,0.045291580109257476
21.934348,4.792820375565914,0.045302376131332735
21.93844,4.7176870255403225,0.04532815684957453
21.942532,4.63717037426466,0.04535195714661734
21.94662,4.560574765188851,0.04534785121564807
21.950708,4.4833033890379,0.045326944515190155
21.954796,4.402000245787162,0.04534199159630945
21.958888,4.321594319411435,0.04536075514128102
21.962984,4.238496742410673,0.04537825154877821
21.96708,4.154391223634964,0.0454076374316639
21.97118,4.064680953809314,0.0454563999925481
21.975272,3.9745163667083925,0.04545631066774934
21.979364,3.881327954282631,0.045484844515571034
21.983464,3.780961806856774,0.04551513204636444
21.987564,3.6740936915059654,0.045566275380750726
21.99166,3.5683442428300385,0.045599935272437775
21.995752,3.4621404768788384,0.0455873432784919
21.999848,3.349766917702491,0.04554199288406695
22.003948,3.237282633626208,0.04551164744024882
22.00804,3.1288301166497132,0.045420300437110164
22.012136,3.0177966739481166,0.045299746073500846
22.016236,2.9040715806214843,0.045158343806144856
22.020328,2.794046079694835,0.04499846075580195
22.024424,2.6832340867931084,0.04479759976144976
22.02852,2.5685010516915296,0.04462623942557063
22.03262,2.454886683264833,0.04438395574607675
22.036712,2.3433989232879644,0.044064206400792554
22.040808,2.233029829985977,0.043679541252090275
22.044908,2.1236686784589365,0.043227486238981226
22.049,2.015426193606778,0.04268419658026486
22.053036,1.9090888674045776,0.04207505453631659
22.057128,1.8004034829526792,0.04151690505723175
22.061216,1.694631198925686,0.040857105191730976
22.065296,1.597155316573669,0.038574865219164506
22.069388,1.506181402146605,0.03628121738619116
22.073476,1.4177884134446406,0.03399066198481144
22.077568,1.3328735673427892,0.03172115056984386
