Time,Force,Position
21.32796,7.920725605437609,0.04596430911448691
21.332048,7.788823307135338,0.04590592493303465
21.33614,7.650984083083323,0.04587236508361682
21.340232,7.513144859031306,0.045839831210767255
21.344320000000003,7.3753056349792905,0.04580843477526948
21.348416,7.22726485060234,0.045791344548024346
21.352504000000003,7.081804991950489,0.045781063158369495
21.356596000000003,6.938361016848531,0.045755650175308075
21.360692,6.794252692346965,0.04576688487745789
21.364788,6.653733235345445,0.04577328426269612
21.36888,6.514786762294081,0.04579520410468133
21.372976,6.37483234746777,0.04582503662704003
21.377068,6.234435033041718,0.045882240050437
21.381156,6.0941484435156035,0.045931695100011785
21.385252,5.956664229514457,0.045973530455581516
21.389344,5.8210851741632705,0.046010483267473604
21.39344,5.6865140605870295,0.04603521132895173
21.39754,5.553061613685671,0.046048273525725686
21.401632,5.421514325434271,0.0460552240411339
21.405728000000003,5.288061878532911,0.046067209669870254
21.409824,5.1547201565314875,0.04606832795315682
21.413924,5.0251887518299805,0.04604864106033851
21.41802,4.894981580053331,0.04601355732869599
21.422112,4.765782350051628,0.04596984448732251
21.426212,4.639496220474831,0.04590644977224081
21.430308,4.520498550798062,0.045835093024093276
21.4344,4.403406039771253,0.04575433462818751
21.438496,4.287775787794664,0.04569851278594787
21.442592,4.169675334992907,0.04562795100259324
21.446692,4.04316775561624,0.04557962700664048
21.450784,3.918565334889532,0.04552847526947695
21.454880000000003,3.8014728238627224,0.04544015125563311
21.458976,3.6883013550357653,0.04531766798432063
21.463076,3.5721060608839674,0.04522680101590214
21.467168,3.454681375157353,0.04517303335749662
21.471268,3.3410670067306563,0.045082492751765284
21.475364,3.2230886965043677,0.045097463644733445
21.479460000000003,3.108809978678061,0.04509286510766362
21.483552000000003,2.9991280701267495,0.04506808703084268
21.487648,2.891129870425526,0.04506224735119963
21.491744,2.782013004049421,0.045086870428190984
21.49584,2.6697615874485408,0.04518038504000446
21.499936,2.563114921897602,0.04522606187313897
21.504032,2.4583734149966214,0.04524454149633937
21.508132000000003,2.350608082770801,0.04532894220829685
21.512228,2.2419455336699685,0.04541347835174658
21.51632,2.135077418319159,0.045499608995931445
21.52042,2.0297822869185045,0.04568413696222384
21.524512,1.932008482893281,0.04608963853387618
21.528612000000003,1.8429968154938394,0.046918131404651155
21.532704000000003,1.7627472847201788,0.04807498427501658
21.5368,1.682864181672922,0.04994936666386515
21.540896,1.6108688337275001,0.05254932082608229
21.544936,1.556752769084511,0.055844338734387905
21.549028,1.5275829978441149,0.05931811819183873
21.55306,1.51352438740778,0.06354764463339348
21.557148,1.5336399419506241,0.06785271949932888
21.561236,1.5885175389989206,0.07229681365681029
21.565324,1.6779357287527992,0.07684742546745059
21.569408000000003,1.8060370032119821,0.08138852769073421
21.573492,1.9718134206015225,0.08595835635731568
21.577576,2.1766050973961715,0.09047746716503778
21.581664,2.414807282545988,0.09505462837558334
21.585752,2.683839050325872,0.09972654729014316
21.589844,2.992550426910474,0.10430800440200398
21.593940000000003,3.3367989203000725,0.1088985209971063
21.598028,3.7109797794447266,0.11353608241002035
21.602116,4.118227554569211,0.11807359990899645
21.6062,4.5575228862230475,0.12236941741242087
21.610288,5.029973023405582,0.12619082406135146
21.614372000000003,5.524246321441469,0.12967027191669345
21.618456,6.04648973820479,0.13242273545067007
21.62254,6.59197290416955,0.13440497598244985
21.626624,7.154048873484262,0.13559258086605164
21.630708,7.713089599798601,0.13657422208892686
21.634792,8.273978396385234,0.13678880155286363
21.638876000000003,8.816842931742901,0.1368081698287242
21.642952,9.328079974819891,0.13669679835521167
21.646984000000003,9.805440774590906,0.1364917990153255
21.651068,10.250166140306298,0.13626058128829963
21.655156,10.666066389265982,0.13594828400918701
21.65924,11.04899902947024,0.13563087845364435
21.663332,11.403007245694388,0.13528873952371484
21.667416000000003,11.737063206688543,0.1348364153097512
21.671444,12.043435552952943,0.13439211368603513
21.675528,12.323575125862266,0.13390932598664212
21.679612,12.581735142316177,0.1333294458938433
21.683696,12.811413634389714,0.13271523900743926
21.68778,13.013286369158024,0.13207622441762415
21.691864,13.183100129721453,0.13146192526085937
21.695948,13.328376243455427,0.13082684721108284
21.69998,13.445647985435366,0.13021881102842292
21.704064,13.537839873761714,0.12963908541886654
21.708152,13.604520426510266,0.12911996803638173
21.712248,13.657464187956103,0.12857561961592942
21.716344,13.698709877000187,0.12803888388481463
21.720336000000003,13.733430762768252,0.1275037321662829
21.724432,13.769602489911001,0.12694671581430142
21.728532,13.808576592578724,0.12637104395419285
21.732628,13.845191219321215,0.12580041380690496
21.736724,13.879335645238543,0.12524047713465958
21.74082,13.914930912530554,0.1246585843393371
21.744912,13.944688561297223,0.12409756509303925
21.749008000000003,13.97005943291324,0.12353970325322713
21.753108,13.987122485178743,0.12301112665675912
21.7572,13.999245135793913,0.1224996082059188
21.761296,14.00419005140899,0.12202899853005678
21.765392,14.004870332448878,0.12157536715318867
21.769488000000003,14.00476412151369,0.12112452713154265
21.773584,14.003539243903619,0.12068512588307417
21.777676,14.002646540993354,0.12023609918110037
21.781772,14.004666938507992,0.11976658545517606
21.785872,13.998955976522861,0.11935152724800434
21.789968,13.992237072762785,0.11894415406664596
21.794064,13.982272893877997,0.11856793192438848
21.798160000000003,13.96816622299349,0.11822801648884286
21.802252000000003,13.957537694709092,0.11787380322969572
21.806348,13.94826070057498,0.11752489694265078
21.810444,13.938540806841129,0.11718998364594979
21.81454,13.931856156107653,0.11685420500473782
21.818636,13.924507155974565,0.11653903984740867
21.822732,13.916161631742064,0.11625524277160448
21.826832000000003,13.91544815978493,0.11594530059048526
21.830928,13.911611555278553,0.11568606213590137
21.835024,13.915407003047545,0.11540114429257126
21.839116,13.923024185791983,0.11511561936179446
21.843212,13.937154754136907,0.11481686765088063
21.847308,13.95869592495733,0.11450083820555702
21.851404,13.978232629903394,0.11422436486178802
21.855444,14.003828403174667,0.11392627614407926
21.859532,14.030664985696294,0.11363884082799114
21.86358,14.055940001943297,0.11337744157692445
21.867576,14.089179245165473,0.11308142075563943
21.871612,14.125121556688217,0.11279617337186797
21.875652,14.167233661436109,0.11248582328330683
21.87974,14.211262342509492,0.112186623527683
21.883836,14.245555198208745,0.11197580190612584
21.887828,14.279748746683595,0.11179283360489133
21.891924000000003,14.31529382930873,0.11161600016042576
21.895972,14.351403954109074,0.11144614162308836
21.900004000000003,14.390992221509528,0.11126410002185913
21.904036,14.431809880484797,0.11106845267215062
21.908116,14.469935888835035,0.11088648957104592
21.9122,14.51388809803508,0.11066826530414807
21.916292,14.554927206810222,0.1104703369128921
21.920348,14.59248817298525,0.11028566082847963
21.924436,14.624776562810142,0.11012233187714955
21.928528,14.65067370961002,0.10999036674482213
21.932616000000003,14.680713348409617,0.10982729733390632
21.936660000000003,14.70525896105921,0.10969163108618453
21.94074,14.725097039533871,0.10958201667456403
21.944824,14.745156567808404,0.10946631741612373
21.948848,14.761848678382758,0.10935968613013901
21.952932,14.780655979731407,0.1092143690846785
21.957028,14.795309371404807,0.1090786272876177
21.961108000000003,14.811856504052626,0.10891061432482488
21.965192,14.836345028324551,0.1086676882889059
21.969276,14.857122542520964,0.10842097022750007
21.973368,14.87935089809206,0.10815580387740889
21.977456,14.902354327962703,0.10786952327790501
21.98156,14.920417356183014,0.10759263777544839
21.985652,14.93859110930326,0.10731339192421616
21.98964,14.958104978898254,0.10701893765911605
21.993740000000003,14.970441113493157,0.10675373495146581
21.997836,14.985014581437822,0.10646984450642352
22.001932,14.999698774282423,0.10618263653431269
22.00602,15.018304009326876,0.10587272833704196
22.010056,15.040719561671246,0.10554278436373857
22.014088,15.056522421190726,0.10524723957594985
22.018124,15.07153878873513,0.10495164854283233
22.022212000000003,15.08857103982943,0.10464257410176485
22.026304000000003,15.102800915398756,0.10434713799513193
22.030304,15.12252481711809,0.10402911646905307
22.034392,15.137663327237965,0.10375395076169441
22.038392,15.157177196832961,0.10346592794558979
22.042472,15.178374775278046,0.103176287182119
22.046556,15.196892120773626,0.10291908603875026
22.050644,15.217203900019232,0.10265533642792227
22.054732,15.235721245514814,0.10239953093266849
22.058816,15.25289847453565,0.102160427948956
22.0629,15.276356221681564,0.10189950651871862
22.066988,15.301719127477435,0.10163054724513292
22.071072,15.326860583473438,0.10136922653062591
22.075148,15.359622674069277,0.10107182523342553
22.079228,15.38947166424021,0.10079118982973394
22.083304,15.424925405461082,0.10048760818515762
22.087388,15.457466046257045,0.10020064309290254
22.091468,15.49101462882796,0.09990938617506212
22.0955,15.528594978498662,0.09959412903532548
22.099584,15.569985645469277,0.09926165178312726
22.103668,15.609692603589808,0.09893232824898743
22.107748,15.653431328810123,0.09857991370292554
22.111836,15.694921303005142,0.09822764100364996
22.115928,15.74110739369956,0.09783538752539205
22.120016,15.779550707218672,0.09746096817612152
22.1241,15.808911127087732,0.09711861711745955
22.128128,15.840276012831158,0.0967448099918206
22.132156,15.872194523074254,0.0963573153381899
22.136236,15.899848398742161,0.09597819771677187
22.140276,15.922340422959866,0.09560959518345323
22.1443,15.936868220202397,0.09526366928402911
22.14834,15.942645298494686,0.09493934832723944
22.152376,15.940679599611666,0.09463047669726649
22.156404,15.929520282178663,0.09435523170404714
22.160444,15.917120155495311,0.09407035477232961
22.164532,15.897653018711798,0.09380441668881681
22.168624,15.87492918912804,0.09353977413932216
22.17272,15.846257016119004,0.09328466640300498
22.176752,15.817806292909841,0.09302343192728907
22.180788,15.785877427100566,0.09276940227768363
22.18482,15.756972386616129,0.09249816259113994
22.188868,15.725375695506656,0.09223437975716829
22.1929,15.686047644897416,0.0920050740659471
22.19694,15.641004118338298,0.0917990145070282
22.200984,15.604146268554222,0.09156629654223365
22.205036,15.57569554534506,0.09130132463356418
22.20914,15.54949357316119,0.09104054344556162
22.213244000000003,15.521397860002894,0.09080801653751921
22.217288,15.499139765369943,0.09056952744645
22.221328,15.48305146396214,0.09031633480576567
22.225372,15.472911505979617,0.0900543658223927
22.2294,15.471079367347603,0.08978502019102516
22.233436,15.479349481816119,0.08950388748735852
22.237464000000003,15.49065483928501,0.08922676794861399
22.241556000000003,15.502868831304443,0.0889681563579458
22.245652,15.520920441849224,0.08870486113371147
22.249744,15.542904512269384,0.08844398171333885
22.25384,15.570726201214892,0.08817846530611984
22.257936,15.59900220743567,0.08792351040004887
22.262028,15.630424181556753,0.08767134826740525
22.266128,15.660284589403217,0.08743972389744568
22.270224,15.694298906924935,0.08720640780588058
22.274316,15.734483017671803,0.08695927979308139
22.278412000000003,15.778599588294053,0.08671556871355458
22.282464,15.81936015889166,0.08649780902016123
22.286496,15.855646062789742,0.08631303202220214
22.290548,15.884765649363262,0.08616746847534376
22.294632,15.91601184438661,0.08600898771213608
22.298720000000003,15.945352880759998,0.08585868986734475
22.302808,15.974472467333518,0.08571498736880424
22.306864,16.005386487657063,0.08556803052393405
22.310952,16.034948973830318,0.08541493580621744
22.314988,16.061476217003207,0.0852574404289228
22.319076000000003,16.09057296822566,0.08507638621544461
22.323128,16.117642418222687,0.08488471101831549
22.32722,16.138763524794438,0.08469984790245651
22.331252,16.16122474784094,0.08450235803882586
22.33534,16.177405452762358,0.08431955716631406
22.339436,16.190218739983596,0.08413970755070667
22.343472,16.20358565170451,0.08394666250807921
22.347464,16.217616912825033,0.08373716087711758
22.351456,16.225478380720407,0.08353931965555819
22.35556,16.231877589565563,0.08333730385358236
22.359536,16.234012163835533,0.08313964401761227
22.363564,16.234008711980138,0.08293401430365999
22.367612,16.237693434849195,0.08269769400041224
22.371708,16.24204250711786,0.08244387537412456
22.375696,16.247731695861276,0.08217767472289376
22.379800000000003,16.24893480022963,0.081920880296237
22.383796,16.247889153572693,0.08165908212216796
22.387828,16.24179238036549,0.08140089662484767
22.391864,16.237490040908305,0.08113954470533231
22.395968000000003,16.23117181790123,0.08088755885314113
22.400060000000003,16.224410695294416,0.08064689981875331
22.404164,16.223930090812686,0.0803936025171172
22.40826,16.225133195181044,0.08013899215404877
22.41232,16.2237553738243,0.07988741171224903
22.416416,16.23078467904247,0.0796117854949174
22.420520000000003,16.240616359785605,0.07932827685229622
22.424572,16.247313490303966,0.0790614754934988
22.428672,16.25659154654743,0.07879304246303434
22.432720000000003,16.26967992009081,0.07851232093636497
22.436752,16.286578610934107,0.07822021355539692
22.440852,16.309414227527153,0.07790501216285324
22.4449,16.335052219645164,0.07758268908321493
22.448988,16.359792994888167,0.07726362041988806
22.45308,16.392486579430805,0.07691422417674433
22.457112,16.423275005323486,0.07657210813304952
22.461208,16.458427373015756,0.07620487306637208
22.465236,16.496492841132937,0.07582900859096726
22.46928,16.535566251025063,0.07544934192753955
22.473372,16.571272243217006,0.07507194240143134
22.47742,16.609326293658654,0.07467931433534615
22.481452,16.647258201524828,0.07427094160541374
22.485480000000003,16.680138982840738,0.07386512705655718
22.489508,16.715589272206216,0.07343915393115612
22.493544,16.75349834472133,0.07299608474167478
22.497644,16.787696407160926,0.07254449891209312
22.501732,16.8178512848252,0.07208965986934508
22.505776,16.849113411488823,0.07160933712993311
22.509816,16.873862152551965,0.07112457378041852
22.513864,16.894002666664576,0.07062936532685053
22.517916,16.90662185340176,0.07013267906330616
22.521964,16.91261692963852,0.06963322189913725
22.526052,16.916806154449723,0.0691171660084883
22.530144,16.914149818960638,0.06860166933914978
22.534196,16.900837605871345,0.06809721609536455
22.538288,16.88044696500636,0.06757715399066974
22.542376,16.854550880315834,0.06704455082298555
22.54636,16.820346976274802,0.06650499828370786
22.550404,16.779740411533222,0.06595221950049054
22.55444,16.730260985265925,0.0653825491215225
22.558548,16.673481681423063,0.06480016738170719
22.562576,16.608283833329757,0.06420978024670292
22.56662,16.536351149836097,0.06361117208456238
22.570648,16.4539840385421,0.06301029754788759
22.574732,16.360961049647894,0.06241163727438878
22.578768,16.25638496627847,0.061814062796706586
22.582852000000003,16.142947439058865,0.061213748403262574
22.586936,16.019751251114062,0.06061124165931611
22.591012,15.89117176191919,0.06000442643632222
22.595044,15.757098246574312,0.05939532972130113
22.599072,15.621451747279279,0.0587728758688308
22.603108,15.479192555159358,0.058153416823538764
22.607096,15.324494469364739,0.057551288865498394
22.611096000000003,15.165199574295126,0.056944124138169835
22.615036,15.001197145050584,0.05633399033231953
22.618964,14.835522424631487,0.055732368712705385
22.623012000000003,14.667953963237963,0.05514619962169276
22.627008,14.49602156004485,0.05457014144631128
22.631008,14.323424807452126,0.05399954272270798
22.635036,14.1533096733601,0.05344398760796227
22.639084,13.975253147643969,0.05292398199965169
22.643116,13.796089372928492,0.05242179022119377
22.647164,13.619628666513579,0.05193189160055033
22.651256,13.444752361724355,0.051460289790743095
22.655244000000003,13.268658083035847,0.051011724220938845
22.659176,13.094713248148231,0.05059190187318263
22.663212,12.928179015736116,0.05017808448614364
22.667196,12.76379422712489,0.04979483547515124
22.671196,12.603464040964518,0.04944125040769995
22.675224,12.446291240379988,0.04911804071085772
22.679252,12.289362724946393,0.048832963776033224
22.683284,12.13760747863853,0.0485734166222063
22.687324,11.996851702306214,0.04832556147080125
22.691352,11.86227713687458,0.04810086701161879
22.695384,11.736686157868593,0.04789634100473159
22.699412,11.615703405813136,0.04771059636780033
22.703448,11.49753444695818,0.04754520506426799
22.70748,11.385768148803775,0.04739989546944013
22.711576,11.28309616197496,0.04727537325452168
22.715672,11.184024460321726,0.04717714801401579
22.719712,11.099418953568613,0.04707283771068045
22.723752,11.021105382616117,0.04699603482696721
22.727804,10.942127462264011,0.04693963399444111
22.731892,10.868987160437248,0.04689656107908042
22.735984,10.803589635785785,0.046863938250592846
22.740068,10.74324323768459,0.04684247475524618
22.744156,10.684813415908888,0.046846835199067086
22.7482,10.632442662458399,0.046858819450157414
22.752296,10.583882226307825,0.046862791359351626
22.756392,10.540815816307257,0.04686275222573849
22.760488,10.498314448481898,0.04687487169342962
22.764584,10.45973412285639,0.046874835620947304
22.768680000000003,10.418019247006105,0.04689054908180222
22.77272,10.37798808000591,0.04691014721345777
22.776812,10.333814421005995,0.0469499064427459
22.780904,10.288411370431263,0.047002202243313675
22.784996,10.242111102981514,0.04705492284365628
22.78908,10.195921560431707,0.04710375451009379
22.793172,10.137846748706874,0.04716125227663156
22.79726,10.07830967793182,0.04720700341729566
22.801348,10.00946826370685,0.047265412586034075
22.805376000000003,9.93557572293161,0.04731271586964867
22.809416,9.861007415081225,0.04735207550587633
22.813524,9.779150647330813,0.047396650166652024
22.81762,9.694934403655166,0.04742815416349964
22.821716,9.607572192079212,0.047442456415132
22.825764,9.5180719543779,0.04743434537670992
22.829848,9.421726156376296,0.04741231724435664
22.833872,9.316973231799784,0.04740312109949081
22.837956,9.202240196698208,0.047397798988408936
22.842036,9.08346397682131,0.047374894977736025
22.846112,8.954375471719542,0.0473692730381851
22.850168,8.822927490692543,0.047349795866753946
22.854252,8.680491457365532,0.047341369480145334
22.85834,8.534233689063072,0.04730271977383163
22.862448,8.38360056128549,0.047261052919766885
22.866536,8.230386507782802,0.0472126665595957
22.870624,8.072464920105189,0.047174177619672665
22.874648,7.9172349830526105,0.047136981603190506
22.878692,7.756511019850027,0.047103661375447095
22.882776,7.596905723322324,0.0470583877247832
22.886852,7.438529818369439,0.04699137240156537
22.890932,7.279035246741672,0.04693478086896273
22.895012,7.119872849813709,0.046857430431067736
22.899064000000003,6.954994976935869,0.04679519543320038
22.90316,6.785188120083234,0.04675649758328333
22.907256,6.60876857040571,0.04673112458544544
22.911352,6.431230354053303,0.0467146639390494
22.915448,6.250779037275992,0.046719208529387664
22.919544,6.071114212473757,0.04673331151500165
22.92364,5.891338662771587,0.046753199564749215
22.927732,5.712349605044495,0.04678915894492318
22.931816,5.531455388667443,0.046832204395874946
22.935908,5.357284590015214,0.04684274700982078
22.939996,5.181552225088366,0.04690724932532919
22.944088,5.007946468611344,0.04694334240973199
22.948176,4.834340712134323,0.04697397831758215
22.952216,4.6609564054571715,0.04698573461147326
22.956312,4.485888389929931,0.046991210894223534
22.960408,4.317322342327644,0.046967183085664006
22.964448,4.149432061800498,0.04696421788957048
