Time,Force,Position
24.294532,9.737333193333656,0.04585365017261672
24.298624,9.575169806431918,0.04586239620276576
24.302716,9.408974652430393,0.04588849983534354
24.3068,9.243676715303879,0.04591482508700232
24.310888,9.082189095477283,0.045930831992151304
24.314916,8.920590750750753,0.045950610910537634
24.318996,8.764486432174229,0.04596717827862776
24.32308,8.607374171822759,0.04598751742827946
24.327168000000004,8.454404403471008,0.045981361465784965
24.331248,8.303339793769219,0.0459692188072346
24.335332,8.155077559592398,0.04595103257053845
24.339412,8.00692605031551,0.04592598007192985
24.343496,7.863592800113488,0.04588599086038122
24.347576,7.721046041886543,0.04585313042250234
24.351664000000003,7.586009193359499,0.045805212668666176
24.355752,7.45175883680753,0.045757039597237543
24.35984,7.3242318979803835,0.04568700273336763
24.363924,7.203317651978125,0.04560079215810977
24.36802,7.088118881925741,0.04549596520567607
24.3721,6.9766197042733396,0.045384502928830436
24.376184,6.867922902145907,0.045264633798490744
24.380268,6.759336824918411,0.04513449747809932
24.384356,6.656576948540725,0.04497802921752954
24.388444000000003,6.5538170721630395,0.04481783174684685
24.392532,6.450049254010406,0.04465764130781005
24.396624,6.345273494082829,0.04449968457722926
24.400712,6.238703300405226,0.044337330543653616
24.4048,6.132022381827689,0.044177973560389716
24.408892,6.019183087700536,0.044059354140521555
24.412988,5.903541418048411,0.04394108367004706
24.417084,5.787002531521276,0.043815670687337674
24.421176,5.670131470294336,0.043709528554071224
24.425272000000003,5.552928234367592,0.04362428841420167
24.429372,5.436057173140652,0.0435131468106181
24.433468,5.318288895038701,0.043394303689854356
24.437564,5.196267400037093,0.04332161873776302
24.441656,5.067411762410728,0.04328667539989306
24.445752,4.93654024123447,0.043266172567032475
24.449844,4.7998425192084,0.04327606380305341
24.45394,4.663255522082267,0.04327170671313567
24.45804,4.5236446996312925,0.043295036967285885
24.462136,4.3872905699805615,0.04335258130785487
24.466228,4.249596323855078,0.04345026632939953
24.470324,4.1135857865796845,0.043563501168787246
24.474424000000003,3.9761244079296048,0.04374372628253307
24.47852,3.8430383887546484,0.04395262161898534
24.482616000000004,3.7105174117549002,0.04421482818692807
24.486708000000004,3.5822610693303405,0.04452564743791167
24.490804,3.4583800863809055,0.044891939750737235
24.4949,3.3394395050818027,0.04533993028886282
24.498988,3.2225262250081244,0.04590266498348582
24.503084,3.10886963773469,0.04656214211661705
24.50718,2.9990347854367054,0.0473757415408822
24.511272,2.897397027589295,0.04830738319248318
24.515364,2.8027269726176423,0.04941205954865707
24.51946,2.72006432939648,0.05062974647594488
24.52334,2.6482904312509277,0.051990122601515115
24.527444,2.5832627861812636,0.053563569820913835
24.531536,2.531937679387712,0.055343336584960844
24.535584000000004,2.4900618939706174,0.05740059428945747
24.539676000000004,2.458421921905055,0.05977054410627697
24.543708,2.4369070382910913,0.06238271985096938
24.547744,2.4312441367541346,0.06520951022613057
24.551832,2.4408795927945097,0.06827581426960772
24.555924,2.470188765887342,0.07151053816551921
24.55996,2.515704931108051,0.07497497383208557
24.564048000000003,2.586289532306821,0.07850827990627543
24.568128,2.6754520192342315,0.08224869024510813
24.572208,2.7919431108405313,0.08604743405596797
24.576288,2.9334147488760225,0.08992797253496838
24.580372,3.106147451465788,0.0937688819997671
24.584464,3.3129435941347976,0.0975076951938627
24.588548,3.5517758756576248,0.10107342631874397
24.59262,3.808632418409419,0.10465515460061592
24.596704,4.08529623846467,0.10814229566689279
24.600784,4.381202293648172,0.11152261549974382
24.604876,4.69567481688478,0.1147830631823986
24.60896,5.0304968242489885,0.11782910740158332
24.61304,5.380838638990398,0.12066410851651663
24.617128,5.74456223498365,0.12326280602351718
24.621216,6.124347845178246,0.12552465035920152
24.625264,6.515033618123987,0.12752638526185756
24.629352,6.909430401145242,0.12931106873143156
24.633440000000004,7.306518834791532,0.13085817603544553
24.637524000000003,7.703817300562159,0.1321736994879133
24.641604,8.103440989231421,0.13318897186980905
24.64568,8.492374547273874,0.13408736184173897
24.649764,8.877318557063278,0.13467231983472155
24.653844000000003,9.247605723323895,0.1350798633133822
24.657884,9.605129787030148,0.13526256576575998
24.66192,9.936764669756663,0.13536588907720173
24.665968000000003,10.23881077910346,0.13545090629013462
24.670044,10.510038723495725,0.13554210157727833
24.67414,10.76323098898349,0.1354940309771826
24.678196000000003,10.999628384817104,0.135344046736078
24.682224,11.216661402947002,0.13514621320356307
24.686316,11.418926852648175,0.1348658274901658
24.6904,11.603855225871056,0.13455880054430122
24.694436,11.775035390115693,0.1342002603180798
24.69852,11.934716096407383,0.1337853238716616
24.702608,12.080881461196228,0.13334236369514865
24.706692,12.21072910895726,0.13288858727696293
24.710780000000003,12.330539557815566,0.1323805782062754
24.714864,12.441885791721294,0.131817159215132
24.718956,12.542309027524816,0.1312354508983371
24.723052,12.629350482076493,0.13067403928071897
24.727144,12.708172006826535,0.1300973916001678
24.731196,12.774974702150551,0.12956678347096956
24.735292,12.831675144374033,0.12908710185437536
24.739388,12.877265391722037,0.12866870967812202
24.743476,12.919266771569996,0.1282734919986444
24.747556,12.959916617267668,0.12787476053387828
24.751648,13.001574404740285,0.12746605609116496
24.755728,13.041094166087547,0.1270568266060438
24.75982,13.073768367134512,0.12668331975996697
24.763900000000003,13.104071674580716,0.12629115245222466
24.767992000000003,13.128869538201382,0.1259137355471451
24.77208,13.148272682896444,0.12554564335515353
24.776172,13.158027891766245,0.12523155079009465
24.780264,13.16126971503556,0.12493966592671862
24.784356,13.160246903729687,0.12466865140172166
24.788448,13.15955626712362,0.12438664301611116
24.792536,13.155276763017504,0.12412677983931066
24.796632,13.144495290986434,0.12391191475086209
24.800668,13.129792776755513,0.123729333532168
24.804752,13.11217716209969,0.12356980910719556
24.808844,13.093664330568851,0.12341517772832723
24.812936,13.072349123513044,0.12327961790621787
24.817024,13.053836291982208,0.12312416527743672
24.821116,13.035667052826708,0.12298199432859991
24.825204000000003,13.02119740607119,0.12281468198198867
24.829292,13.007857843666088,0.12265934620923973
24.833376,12.994296831461112,0.12251135301649149
24.837464,12.98175517870662,0.12237931913809015
24.8415,12.974153927602456,0.12223111496916797
24.845528,12.966121194574088,0.12212310494508032
24.849612,12.957091937446307,0.1220490985556353
24.853644,12.94728760601898,0.12200156375523274
24.857696,12.94488245939162,0.12190482106535645
24.861672,12.945168963389293,0.1217926925515893
24.865708,12.945787642086769,0.12166944793697383
24.869796,12.946517045684184,0.12154269200774698
24.873884,12.949151607931555,0.1214023535506525
24.877912,12.95167544527899,0.12126541775978543
24.881952,12.957223107951267,0.1211019905028321
24.885984,12.966248913223655,0.1209222288039395
24.889984,12.979539353071234,0.12072564791839514
24.89404,13.00180196166893,0.12047995056102989
24.898036,13.026424046191856,0.1202317910009309
24.902128,13.054745723114765,0.11996040374477626
24.906164,13.081051516487783,0.11970694596927775
24.91026,13.108475976535681,0.11944178645519242
24.9143,13.139034986808353,0.11914820596251384
24.918272,13.174068663780552,0.11880853536495231
24.922352,13.205956372852445,0.11847473469306194
24.926432,13.23884060602375,0.11810812030765973
24.930516,13.272832088194404,0.11770463297395012
24.934564,13.311630411764389,0.11724277782959615
24.938616,13.3424645083592,0.11682070546443145
24.94266,13.37004191215377,0.11640773236118923
24.946756,13.392236014698266,0.1160225055208621
24.950796,13.412967858192548,0.11563661530067362
24.954836000000004,13.429656516911509,0.11525994676951262
24.958884,13.450254800154788,0.1148299311740387
24.962908,13.470620215922667,0.11438423382224994
24.966964,13.489401230064855,0.11391717709309528
24.971016,13.501668858606562,0.1134650889508708
24.975064,13.505407217997888,0.11304430101071943
24.979064,13.507339725963657,0.11260917987714393
24.983116,13.509150091353959,0.11215461659567566
24.987216,13.516221615418866,0.11165494079775008
24.99132,13.523736039083511,0.11114231479484875
24.995368000000003,13.530353245873146,0.11063572561280982
24.999416,13.526990342137713,0.11017909005197805
25.003456000000003,13.520149295802169,0.10973414956335609
25.007508,13.514648365941374,0.10927149686318
25.011552,13.508925986280714,0.10881566660249181
25.015600000000003,13.499171839520265,0.1083905164186098
25.019628,13.497038327359649,0.1079186746838793
25.023624,13.497817915623937,0.10742804085329115
25.027728,13.507115355363071,0.10688794432754824
25.031828,13.514618361352184,0.10635516268639855
25.035804,13.522686409516501,0.1058279512246178
25.039832,13.529979383381276,0.10532712089437743
25.04388,13.536718732746376,0.10484467759483937
25.047904,13.545596108236838,0.10436957716269249
25.052000000000003,13.559856784977368,0.10387218796776539
25.056092000000003,13.57860354609296,0.10335603825898104
25.060076,13.595223698758723,0.102858332577852
25.064108,13.609717242974657,0.10237964135092979
25.0682,13.618384586340783,0.10193832878845241
25.072292,13.627162654606844,0.10149506109280325
25.076380000000004,13.633359797147802,0.10105944956312068
25.080416000000003,13.647631891563869,0.10059186051804997
25.084452,13.669413895679833,0.10008632392641142
25.08854,13.687053407796078,0.09961253300873842
25.092628,13.70940045408725,0.09911697058736878
25.096716,13.733431209228511,0.09861829207259035
25.10076,13.754327414144997,0.09814586838626818
25.104796000000004,13.77276483591185,0.09770155869399595
25.108884,13.788289157253798,0.09727676129320023
25.112964,13.808299562970806,0.09683645638063536
25.117052,13.833914719737754,0.09637186977899938
25.121080000000003,13.858854109429558,0.09590530370999675
25.125108,13.886706599546267,0.0954248997757451
25.129192,13.914559089662978,0.09494723122302946
25.133272,13.942190129979819,0.09447908573407206
25.137352000000003,13.973520762696642,0.09399938709730407
25.141384,14.006756554063424,0.09351117821923023
25.145476,14.044699879605135,0.09300458031152486
25.14956,14.088469405996655,0.09247021893310646
25.153644000000003,14.133357599063059,0.09193036570063551
25.157728,14.184858484954347,0.09136502931540488
25.161756,14.23467566199555,0.0908061814355259
25.165784,14.283484897261804,0.09025804602327372
25.169868,14.34114415870271,0.0896677094905579
25.173944,14.3953252775435,0.08908939635610574
25.178028,14.455664771933908,0.0884793012978318
25.182116,14.518463049473947,0.08784919211570973
25.186208,14.586854660388394,0.087179962191392
25.190304,14.6519895785026,0.08651344093697187
25.194392,14.717567396216547,0.0858399756725909
25.198484,14.777307595405148,0.08517451620233714
25.202572,14.837601419093424,0.08449700155617604
25.206656,14.895978666456207,0.08381004401557948
25.21074,14.951652845518426,0.08311098236542092
25.214824000000004,15.003505289605192,0.0824070549431011
25.218912,15.048844348091473,0.0817064601025137
25.222996,15.092156105352327,0.08099542605501694
25.227088,15.127049318362742,0.08029181020590011
25.231176,15.154310479097783,0.0795964518588892
25.235264,15.177417730157572,0.07890389352513288
25.239352,15.193003653841927,0.07821644447254289
25.243448,15.2046571176509,0.0775238564260006
25.24754,15.213386063359435,0.07682237562722578
25.25164,15.212467073242708,0.07613666156125234
25.255736,15.208402115225672,0.07544549078229948
25.259772,15.19368127960843,0.07477262024595943
25.2638,15.17189343389103,0.07410886889065725
25.267884,15.139228260773553,0.07346588750925546
25.271968,15.106108770380803,0.07280984912818642
25.276052000000004,15.065135777912817,0.07215946028806969
25.280136,15.026400118794594,0.07149212288652645
25.284188000000004,14.982391883326235,0.07082766606234916
25.288276,14.929865796383028,0.0701835556000211
25.292372000000004,14.871624233489948,0.0695517492506534
25.29642,14.812706903521727,0.06891126236029867
25.300404000000004,14.749979256253585,0.06827670972147426
25.304444,14.68455995836041,0.06764090356664244
25.308532000000003,14.620037877342245,0.066997957855202
25.312576000000004,14.553832087473992,0.06634803828797058
25.316552,14.480227112805776,0.06570648690167658
25.320596,14.399677270612868,0.06508340272701965
25.324684,14.311728243619994,0.06446707953088633
25.328712,14.216158582027287,0.06386435171620289
25.332804,14.113533328009954,0.06328190116098234
25.336884,14.006200539817689,0.06270250980432773
25.340928,13.894946709425579,0.062127182166202444
25.344956,13.77999328663348,0.0615492754406381
25.349004,13.666945022491342,0.060956564728555845
25.353,13.549754266349483,0.060374505966806324
25.357092,13.43032617685786,0.05979685785016511
25.361184,13.301372294116444,0.05923369869107815
25.365284,13.17152119450002,0.058660314336173344
25.369316,13.045701861983378,0.05805988623159381
25.373396000000003,12.917866645916844,0.05745583526999229
25.377488000000003,12.783086562325618,0.05686488021104767
25.381572,12.647077087159577,0.0562729930242062
25.38562,12.50782233686882,0.05568783303560659
25.389676,12.3634171528034,0.055113906339921415
25.393716,12.215434518913462,0.05455596502609727
25.397748000000004,12.067574027598994,0.0540089995140363
25.401840000000004,11.922183737109691,0.05345496505257591
25.405876000000003,11.783417557120808,0.05290300268125782
25.409916,11.644208477532187,0.05235202934123556
25.413944,11.509264032518752,0.05179464645136801
25.418028000000003,11.371750079455753,0.05125017824683972
25.422072000000004,11.235476935643101,0.05071068682363226
25.4261,11.096523558880948,0.050187574148977364
25.430076000000003,10.9479450816446,0.04970721886553148
25.434112,10.796907821258616,0.04923833540963872
25.438192,10.645206211473026,0.04878052096686945
25.442224,10.49441323623798,0.04834089953479015
25.446204,10.335678869378828,0.04795010152738563
25.450236,10.16810589402056,0.047608875290487504
25.454328,10.00155227811277,0.04728456698699875
25.458412,9.834112863005505,0.046982977866230013
25.462444,9.661190839423762,0.04670880502060343
25.46644,9.485477857992585,0.046464431447657044
25.470428,9.30529020986188,0.04624606101521966
25.474524,9.121746561706534,0.04604532880342274
25.478620000000003,8.93787073885138,0.04584994935813511
25.482652,8.750417466171713,0.045683525869752335
25.486624000000003,8.55142251669236,0.04554173360007779
25.490656,8.34907156718836,0.04541925279890389
25.494740000000004,8.140894416834552,0.04530573798805486
25.498824000000003,7.931266425106057,0.04521124066422364
25.502864,7.71749594137784,0.04513325267508012
25.506892,7.506195658474789,0.04505784867839024
25.51092,7.296689809321761,0.04498158754230826
25.515008,7.083262917968884,0.04491301300711315
25.51908,6.868717359941122,0.04484550869926225
25.523164,6.6502507597135105,0.04478979817258124
25.527164000000003,6.434697259910803,0.04472061619089165
25.531196,6.2218354107331315,0.04465199037280255
25.535228,6.002360868730572,0.044594405964978316
25.539316000000003,5.782997051627949,0.04452003278781553
25.543352,5.564530451400336,0.044437905871928925
25.547384,5.349087676497564,0.04432111097575697
25.551428,5.138241710869786,0.04419127924741569
25.555464,4.932779046492079,0.04405534047446999
25.559548000000003,4.729110815864395,0.04390245293796318
25.563636,4.523648151486688,0.043739034895023045
25.567672,4.324687455033932,0.04354104643346076
25.571708,4.129315626081224,0.043326413258684804
25.575688000000003,3.9393270983785866,0.04308690654224617
25.579716,3.755054046625826,0.042789643727846154
25.583804,3.5742591374731774,0.04248720510161543
25.587892,3.3932427785206585,0.042180394446765024
25.591884000000004,3.219625604368104,0.041826610223581404
25.595968000000003,3.052067498540763,0.04149106149805852
25.600048,2.8861931015635105,0.041123444294126434
25.604132000000003,2.7249155138612524,0.040699224156629445
25.608216,2.5699184442840766,0.040249411623587555
25.612296,2.415929316481847,0.03970840140271311
25.616384,2.271023082329671,0.03910660299256091
25.62046,2.1322866414026436,0.038466822894497425
25.624496,2.0016251523507225,0.037788904794329184
25.628584,1.871639430373943,0.035652766975428914
25.632672000000003,1.7472584594471041,0.033527582182842124
25.6367,1.6226560387203957,0.031411709375293105
25.640784,1.5015317605937994,0.02932121353600043
25.644876,1.39150625966715,0.027238460565695524
25.648860000000003,1.287650551965648,0.02518876162591522
25.652944,1.190972579264241,0.02315964194056746
25.657036,1.0985592411380232,0.021166362146528627
25.661124,1.0085053789370362,0.019228321128496175
25.665208000000003,0.923048326011043,0.01729998968922491
25.669216,0.8458876747600264,0.01538711714277425
25.673308,0.7722051661091219,0.01351941179852129
25.67734,0.7071512338329985,0.011640142141191556
25.681432,0.6483778196819577,0.009806606634167677
25.685524,0.5958849236559998,0.008028559881974259
25.689612,0.54227336095516,0.006282945675157388
25.693596000000003,0.4939343746044565,0.004625601712432162
25.697688000000003,0.4509786895038238,0.003029338175302442
25.701776,0.41071465502822657,0.0014902342729600049
25.70586,0.37033989565269454,0.0
25.709952,0.3350162628274288,0.0
25.714044,0.3001469472774354,0.0
25.718132,0.27480342497723464,0.0
25.72216,0.2521515533020694,0.0
25.72624,0.23107266557705797,0.0
25.730320000000003,0.21459058712704057,0.0
25.734404,0.1999029424270468,0.0
25.738484000000003,0.18521529772705297,0.0
25.742516,0.17333002855202953,0.0
25.746552,0.16312846822709487,0.0
25.750636000000004,0.15270545810229047,0.0
25.754724,0.14508482350245638,0.0
25.758816,0.131527263152877,0.0
25.762896,0.11796970280329762,0.0
25.76698,0.10620657620374188,0.0
25.771056,0.10015892555406171,0.0
25.775140000000004,0.0978108673043637,0.0
25.779224000000003,0.09557353395460057,0.0
25.783304,0.09243898372982562,0.0
25.787392,0.09490918455499134,0.0
25.791476,0.09782228497989656,0.0
25.795556,0.1026405440547603,0.0
25.799636000000003,0.10443497780478395,0.0
25.803716,0.10611868665487273,0.0
25.807752,0.10769167060502664,0.0
25.81184,0.10545433725526349,0.0
25.815924,0.10231978703048852,0.0
25.819956,0.1029955541056306,0.0
25.824052,0.102663379405826,0.0
25.828148,0.1042363633559799,0.0
25.832244,0.10692801398101535,0.0
25.836344,0.10289624688122857,0.0
25.84044,0.10457995573131736,0.0
25.84444,0.10716088145641797,0.0
25.848528,0.11074974895646526,0.0
25.85262,0.1151251084315895,0.0
25.856704,0.12129490165673737,0.0
25.860792,0.12555953623192675,0.0
25.864824,0.1325158214321516,0.0
25.868872,0.13566178933245943,0.0
25.872908,0.1423966247328145,0.0
25.876996,0.15025012680805117,0.0
25.881084,0.15698496220840627,0.0
25.885168000000004,0.16472773938370805,0.0
25.889252000000003,0.17179474948386778,0.0
25.89328,0.17998042625890906,0.0
25.897372,0.18715816125900367,0.0
25.901460000000004,0.19153352073412788,0.0
25.905548,0.19792476375914553,0.0
25.909584,0.2016243561591277,0.0
25.913668,0.20420528188422826,0.0
25.917696000000003,0.2145175671090978,0.0
25.921776,0.22583779410891403,0.0
25.925856,0.2360393544338487,0.0
25.92994,0.24243059745886633,0.0
25.934016000000003,0.24601946495891364,0.0
25.9381,0.24613018985884852,0.0
25.942184,0.24792462360887213,0.0
25.946272,0.2536400995587477,0.0
25.95032,0.26036351728357,0.0
25.954408,0.2624901257333982,0.0
25.958496,0.26282230043320287,0.0
25.962576,0.2662890253577824,0.0
25.966652,0.2717716338322554,0.0
25.970732,0.275238358756835,0.0
25.974816,0.27848363388154473,0.0
25.9789,0.28183963390618944,0.0
25.98288,0.2859821259059111,0.0
25.986968,0.28911667613068615,0.0
25.99106,0.29695876053038994,0.0
25.995148000000004,0.3060302365049102,0.0
25.999236,0.31218861205452514,0.0
26.003264,0.3136394534292114,0.0
26.007296,0.31631968637871394,0.0
