Time,Force,Position
21.045312,3.206616794966886,0.04634406764961798
21.049404,3.1713045798171526,0.046501877520620724
21.05344,3.142162157892567,0.04667302281246578
21.057536,3.1162764287682254,0.046880151305312534
21.061624,3.0956632759940192,0.04710224010015423
21.065716,3.0784175409199905,0.04735168215396782
21.069804,3.0618475729211037,0.04763162805381485
21.073896,3.044834705322478,0.04796402555265888
21.077984,3.0250308798744143,0.04842629952299574
21.082024,3.006124271301362,0.0488892810414063
21.086116,2.9890120964783335,0.04935563078193128
21.090104,2.9690975461303357,0.04984089058344451
21.094192,2.944364736707473,0.05039168963462339
21.098288,2.9186239855096643,0.05096441773017911
21.102376,2.892883234311856,0.05155409518620551
21.10646,2.8617591818639765,0.052165944374117854
21.110552,2.8333267800411326,0.05278090900681266
21.114636,2.80859397061827,0.05338119201594391
21.118716,2.779940118995556,0.05404149528434492
21.122804,2.751396992272777,0.054700498860602416
21.126884,2.7295772832748204,0.05527719429901605
21.130928,2.71414881730188,0.055841943090978924
21.134972,2.6997282931038877,0.056383306160259945
21.139008,2.6834026102559365,0.056945506385028447
21.143104,2.6698793029329555,0.0574782745716891
21.147184,2.6532214453851997,0.05809480072586516
21.151268,2.6373500798125207,0.05873359518024372
21.155308,2.6160954129897713,0.05941159901350235
21.159356,2.5950621959668916,0.060085789538453005
21.163448,2.56988648694429,0.06088458990607893
21.167544,2.540789735721836,0.0617828176330253
21.17162,2.5123687515745248,0.06273099173072531
21.175704,2.490449735352166,0.06363023108654685
21.179736,2.4665148355799134,0.06460950471289782
21.183736,2.443587877582608,0.06558712363704554
21.187828,2.42402833728548,0.06659923679228297
21.191916,2.4025636383383926,0.06765917775775612
21.196,2.3761699554165077,0.06887671438159342
21.200088,2.352578648019593,0.07006258543468513
21.204176,2.328876615722743,0.07129327797350186
21.208212,2.295095165676426,0.07288136104955427
21.21224,2.2595192818800856,0.07453833092645354
21.216276,2.218903689209012,0.07640721569893749
21.220356,2.174477779238021,0.07846210001038315
21.224456,2.1252336101921667,0.08067826598036766
21.228544,2.079013266471152,0.08285394490255771
21.232644,2.031563531175321,0.08520574037154902
21.236728,1.9866947216045907,0.08765720223826963
21.240812,1.9447390124587653,0.09006490301453023
21.24482,1.9087202290626857,0.09227125862041084
21.248916,1.879424863391428,0.09425451345899229
21.253012,1.852145381270064,0.09616239020574291
21.257108,1.8259845658235812,0.09797345030692922
21.261204,1.8057606761268439,0.09954571414724257
21.2653,1.7867661780049229,0.10103726799829113
21.269396,1.7693332461576232,0.10236184256824622
21.273492,1.7522324890101282,0.10363906306382963
21.277588,1.7382662820874077,0.1048040038579048
21.281676,1.7186953241147467,0.10622068593886097
21.285764,1.7014724243917836,0.10746013524090414
21.2898,1.687826974493335,0.10850230552987432
21.29388,1.6782132916946733,0.10932480041298771
21.297972,1.6728528257956679,0.10988232389038526
21.302064,1.673318560746473,0.11015504568633638
21.306164,1.6765866712222486,0.11030521174488128
21.31026,1.6824357074231249,0.11038485825913602
21.314356,1.6928815528989951,0.1102630343522885
21.318448,1.7112916253500368,0.1098727627437034
21.322548,1.73442064965154,0.10945694350244925
21.32664,1.7574503667286414,0.10924786023068661
21.330688,1.7792621099064592,0.10931963828349262
21.33478,1.8035554715849755,0.10950666955951624
21.338872,1.8298875521644509,0.10990199146728555
21.34296,1.8589341187200275,0.11051676052056794
21.347052,1.8939518640519477,0.1112784433881451
21.351144,1.9336006716854606,0.11229013749430486
21.355236,1.982023033620288,0.11331563994231512
21.359316,2.0446022511065003,0.11419469179978141
21.3634,2.124927191644145,0.11476508435951323
21.367432,2.2178588391340863,0.11547734403264313
21.371472,2.3356260551266863,0.11600889827079017
21.375551999999995,2.4698331307225656,0.11674277435235784
21.379643999999995,2.6245346683725765,0.11767535964392196
21.383724,2.8067976781768795,0.11867959447235324
21.387808,3.0183058689855637,0.11967787245666779
21.391888,3.2550160560233086,0.12071439131157387
21.395976,3.516473922014842,0.12174734964105548
21.400064,3.7974068906100285,0.12290452180002875
21.404096,4.097017052158257,0.12406578943333477
21.40814,4.418438956884304,0.12509376797842492
21.412224,4.761661187112636,0.12592144587017584
21.416252,5.123881367318282,0.12662742064370522
21.4203,5.501842804701,0.12720444453946259
21.424384,5.893075298435624,0.12769880662768132
21.428472,6.299705456971983,0.12806421018504777
21.43256,6.719705979084651,0.12826139119287217
21.436588,7.147815706099025,0.12845073286477504
21.440628,7.578529194189567,0.12874310729069402
21.444724,8.012732242555751,0.12905671823697412
21.448816,8.444575814996709,0.12933479772202464
21.452904,8.860468098136256,0.129701675453506
21.457016,9.265315240598127,0.12994090085059143
21.46112,9.652015979255562,0.13000236506987445
21.465216,10.004974034858028,0.13005751481236708
21.469264,10.323280772854972,0.1300801933493437
21.47336,10.609639261546969,0.1300769676303691
21.47746,10.868314135509205,0.13003431427810405
21.48156,11.099759712016956,0.1299589360533442
21.485608,11.310267926870836,0.12984148944288285
21.489708,11.497490721821148,0.1297191540327238
21.4938,11.661328789643486,0.12962919897133662
21.4979,11.804695230762755,0.1295397377947615
21.501992,11.929716653628791,0.1294208079773104
21.506092,12.038076767091674,0.12926517621307174
21.510144,12.127637545026046,0.12907492379395524
21.514196,12.201655680232149,0.12883757744656618
21.518292,12.26203633135994,0.12853352181355224
21.522392,12.309233815684697,0.12817658724304304
21.526444,12.342362334006937,0.1278006932770087
21.530476,12.37017260527691,0.12735621831938077
21.534516,12.395379115470718,0.12687615988701725
21.538596,12.417882557363955,0.12639258730677275
21.54268,12.439610924957648,0.12593957519209198
21.546764,12.469314937202045,0.12546679622433174
21.550851999999995,12.506440969597474,0.12499383732119061
21.55494,12.551985546243348,0.12448668104489714
21.558972,12.600343916089724,0.12398750297701916
21.56306,12.652745470711421,0.12347819668534868
21.567148,12.703241866683156,0.12298654751061683
21.571228,12.756872812879665,0.12246663119083498
21.575308,12.811843875550931,0.12192689811052847
21.579392,12.866471345846856,0.12137601800571028
21.583476,12.924011916567688,0.12080650454896055
21.58756,12.98289260376327,0.12022187689788244
21.591644,13.03572564030917,0.119691966754481
21.595724,13.082400301305457,0.1192211678932645
21.599804,13.126494036576645,0.1187642037839542
21.603888,13.165548062973096,0.11835240700179994
21.607968,13.200337454794361,0.1179591118709696
21.612,13.224925286290688,0.11763338843526207
21.616092,13.245802107711501,0.11730754773943339
21.62018,13.260841310606972,0.11700227824766332
21.624272,13.277884979376804,0.11665734775414742
21.62836,13.292004130046196,0.11631086130792076
21.632384,13.303874529690294,0.11596490792654456
21.636472,13.313950495584367,0.11563044550960978
21.640556,13.324247911278308,0.1152901536290327
21.64464,13.333980284797043,0.11494480330646205
21.648728,13.345617816965738,0.11458776907538681
21.652812,13.352547814959502,0.11426139306378777
21.656892,13.35913422057793,0.1139221477126924
21.660972,13.364934134221285,0.11358447633360041
21.665056,13.364453529739553,0.11327824058698394
21.66914,13.360273332857838,0.11299368412397384
21.673228,13.359338411100838,0.11267734527155497
21.677316,13.361870214268414,0.11232239540421138
21.6814,13.365409959210934,0.11195976461139806
21.685496,13.374432312627931,0.11154369242243958
21.689588,13.388272925119788,0.11109618743370557
21.693684,13.407263971386316,0.11060507338617322
21.697712,13.425800700377572,0.11010431524733537
21.701804,13.44432601169329,0.10957871495818304
21.705892,13.452981937383882,0.10909935327585658
21.709984,13.458037577898894,0.10861147012257252
21.714072,13.458595716363313,0.10811835172791145
21.718168,13.452972643927053,0.1076250025445376
21.72226,13.443749286315212,0.10712334027064419
21.726364,13.429696251952974,0.10662689495926347
21.730348,13.409019107090316,0.10614334892773367
21.73444,13.39012497830215,0.10562609172448713
21.73854,13.368871373588751,0.1051088380626362
21.742568,13.344693250774917,0.10458426800894426
21.74666,13.32308463601065,0.10402534507151333
21.75076,13.299903037296227,0.10346552513254338
21.7548,13.281761147456537,0.10286955812712752
21.758892,13.262943490541707,0.10226988211176738
21.762988,13.245465950101629,0.10165267385703905
21.767092,13.223956642561761,0.10106426596262527
21.771196,13.200542176371934,0.1004870885932288
21.775284,13.173538842682063,0.09992258097194379
21.77938,13.148894984917423,0.09935731063508459
21.783444,13.125049036803391,0.09881512106233269
21.787476,13.110851024514622,0.09824071432377254
21.79156,13.104739381776488,0.09766041722930172
21.795652,13.10984865881377,0.09705142412672345
21.79974,13.121360596551606,0.09643970773451571
21.80374,13.13568632748994,0.09583984191944403
21.807788,13.157754835603578,0.09522233949032938
21.811868,13.186668904017507,0.09458938735212989
21.815952,13.215926564806772,0.09397251791763936
21.81998,13.248108743696475,0.09336487406140181
21.82406,13.287922974861548,0.09274624343005687
21.828144,13.328978015276967,0.09214161770584273
21.832228,13.376424298717406,0.09151558484706715
21.836312,13.418720148383175,0.09092947423119463
21.8404,13.46370764867398,0.09033823021098084
21.844428,13.505449873840073,0.08977478715796572
21.848516,13.55178890828116,0.0891965686694736
21.852604,13.599135884497198,0.08861543909302494
21.856684,13.652541929038446,0.08802397033263379
21.860768,13.707963857129586,0.08742563716490212
21.864852,13.768536218995395,0.08679812967447531
21.868932,13.827646321810986,0.0861723697922012
21.873016,13.882602514951323,0.08555487849529188
21.8771,13.927800047366464,0.08496596473510866
21.881184,13.970638103856375,0.08437734956802054
21.885272,14.013021843071012,0.08378094518555063
21.889352,14.052148889485407,0.08318880655176039
21.893376,14.090035126649452,0.08258866567029209
21.897464,14.130269422063197,0.08197146171435805
21.901492,14.16948435802646,0.08133870825389104
21.905532,14.201743008789501,0.08072029760138515
21.909564,14.233768792077138,0.08008786372715757
21.9136,14.257043856414525,0.07947134836174974
21.91764,14.280196778176446,0.07883540987965475
21.92168,14.296171964938274,0.07821575468341166
21.925764,14.312135734024567,0.07757243767676436
21.929804,14.321586117510373,0.07692665411554526
21.933836,14.325874649545977,0.07628563800117591
21.937876,14.32264185420615,0.0756454485462528
21.941964,14.309761123041065,0.0750177976222976
21.945988,14.28644596407564,0.07440082423629088
21.950012,14.25247492751001,0.07379846774088278
21.95404,14.210871838669012,0.07319503519552754
21.958072,14.16791721567773,0.07257786546257483
21.962152,14.121140857711,0.071946227992592
21.966232,14.064716563919008,0.07132067218643862
21.970264,13.998422884501887,0.07070684080877955
21.974344,13.926967353634563,0.07009104991736304
21.978424,13.843848003392084,0.06948877630237191
21.982508,13.754780309724332,0.06888015687539585
21.986588,13.658867055756287,0.06826498294440725
21.990624,13.55577606678815,0.06765349741054841
21.994708,13.450325601894779,0.06702656017459635
21.998792,13.335570793551486,0.06641314637547847
22.002876,13.220361667932922,0.06577810045782276
22.00696,13.100666457939298,0.06513882838601862
22.011048,12.974358555120789,0.06450581223758518
22.015132,12.843786017727087,0.06386017563035813
22.019224,12.712648438158181,0.06319319144803921
22.023316,12.579494975039381,0.06252212130692526
22.027404,12.443206961695804,0.06185412801772194
22.03144,12.308713382102251,0.06117026496228141
22.035528,12.172879686033946,0.06048680553332412
22.039564,12.033911439740864,0.05980692506925005
22.043648,11.89248441029815,0.059136186262514864
22.047636,11.755322015430627,0.05845351541118586
22.051668,11.621637763163216,0.057756014426476696
22.05576,11.481684410446254,0.05707737158649321
22.059848,11.344766300729665,0.05639914740673662
22.063936,11.205843725138715,0.05574388767800954
22.068028,11.068727000973324,0.055101452727476866
22.072012,10.930835202508389,0.054471085753923676
22.076096,10.791946879944039,0.053859745209271184
22.08014,10.656204525279996,0.05324614384884504
22.084168,10.517449762966645,0.05266276380162536
22.08826,10.376469084979068,0.05211352345480203
22.092304,10.242001792591973,0.05157082511481075
22.096352,10.108332409855487,0.051048806121941424
22.100376,9.970531952794811,0.05056685637659329
22.104464,9.834537347159696,0.05010498898898605
22.108488,9.702364476500028,0.04965457444348786
22.112584,9.569195081740947,0.04923027092563884
22.116588,9.43794226330736,0.048823836830714985
22.120568,9.30770880432425,0.04843633065511481
22.12462,9.176700271041598,0.04806850118787333
22.128668,9.040098404384539,0.04773536095526426
22.1327,8.897792479453136,0.04744225695907344
22.13674,8.761324173047074,0.04715724608001322
22.140788,8.620381199941487,0.04690172515003572
22.144832,8.481686977861198,0.04665732901580297
22.14888,8.343447073056181,0.046424348912271055
22.15296,8.204653543751487,0.04620700590986661
22.15706,8.067998040572157,0.046007835615280726
22.16114,7.9317968546680975,0.04581931108845012
22.165176,7.797168652714193,0.04563440295993401
22.16926,7.662429725860354,0.04544778521657866
22.173348,7.519627264806941,0.04529828325203058
22.177344,7.37257158685387,0.04517587070834994
22.181416,7.225970226176073,0.04507359634515957
22.185496,7.077463706848317,0.044970388865969005
22.189576,6.924814695520839,0.04489280499273845
22.193668,6.771833509493558,0.04483027568841051
22.197756,6.6186308736664055,0.04477571267340198
22.201844,6.465096063139448,0.044737447725443795
22.205928,6.313244961462582,0.04470002232765904
22.210016,6.165879944160773,0.04466202109657491
22.214108,6.025016894783916,0.04461005065304912
22.218192,5.880232803207209,0.0445741582822845
22.22228,5.741053462680441,0.04452344923063199
22.226312,5.598961021728768,0.04448389325293569
22.23034,5.4558606390021485,0.044447072265388306
22.234372,5.308617764275807,0.04445195832947461
22.238456,5.161374889549466,0.044455518570672405
22.242544,5.012791898348374,0.04449132389671358
22.246572,4.864208907147281,0.04452093504264541
22.250612,4.721009217196261,0.04454716507707494
22.25464,4.585430161845074,0.044544290302306326
22.258672,4.46005266681882,0.04452001023015252
22.262764,4.336691055342461,0.0444792742143796
22.266852,4.220617903766131,0.04442351579866045
22.270892,4.11227611168957,0.044317288278491344
22.274924,4.007744636912927,0.04418865031133434
22.279016,3.905007595886306,0.04405571685256138
22.283108,3.802492004659556,0.04389319198846782
22.287196,3.69684186320803,0.043769024949443305
22.291284,3.5941048221814107,0.04361315825139713
22.295372,3.494956648654837,0.043451664197522596
22.299464,3.3995080675282465,0.04327589013404459
22.303552,3.30305154462671,0.043098735290959124
22.307644,3.2133184394499947,0.042864417775681195
22.311728,3.1253797680233024,0.042618031297913965
22.315824,3.0461803978713267,0.04229472886745592
22.319924,2.9649651441694576,0.04198258893114174
22.324016,2.8885681495424516,0.04162319884388904
22.328112,2.8137441388656006,0.041278310488358276
22.332208,2.7332046522388738,0.04094999378350075
22.336292,2.649862790087176,0.04060358744297458
22.340328,2.562932060435431,0.04021956374761955
22.34442,2.480487415158745,0.0398296182729577
22.348512,2.3932245108071952,0.039452635379673834
22.3526,2.3039457229057527,0.03906004533954024
22.356632,2.212872501254286,0.038606319308138536
22.360728,2.1217992796028193,0.038109806650349846
22.364772,2.0333069836764532,0.03759233225892898
22.368856,1.9516488303748445,0.03695440116975363
22.372936,1.8667454019485263,0.036371952666175184
22.376964,1.7751185557973856,0.03579845562348314
22.38106,1.682483767871298,0.03375507164922529
22.38516,1.592540630570246,0.031724936963901725
22.389248,1.4983442763695376,0.029747987044207943
22.39328,1.4076260647689418,0.027788044462677887
22.39732,1.3183701122185645,0.025871569377747785
22.401408,1.235726852493075,0.02394715289240166
22.405444,1.1509569843177567,0.022052319780921727
22.409476,1.0661871161424386,0.02015804792847616
22.413576,0.9899350994419663,0.018260663967596156
22.417676,0.9218687595165355,0.016395978366748835
22.421724,0.8562726204162703,0.014581627566195422
22.425808,0.7897792644409933,0.012779154415388171
22.429892,0.7269855008656986,0.010989530033514544
22.433944,0.6649782292654809,0.009255260504006615
22.43804,0.6062276504655059,0.0076000771585786825
22.442092,0.5528603729156017,0.00599482270980474
22.446176,0.5039791797407566,0.004434960961062623
22.450208,0.4565602456161305,0.0029680327453430588
22.454312,0.41496751234131485,0.001480126850845152
22.458396,0.3817819056414103,0.0
22.462444,0.35588475884153514,0.0
22.466484,0.32987688714172514,0.0
22.470532,0.30678211586682036,0.0
22.47462,0.2876083867917674,0.0
22.478712,0.26686167376656056,0.0
22.482804,0.24499629406647225,0.0
22.48684,0.2289571152161943,0.0
22.490932,0.21852268741585706,0.0
22.495024,0.20966124356567367,0.0
22.499064,0.19710020731550815,0.0
22.503152,0.186555054615236,0.0
22.50724,0.18452775338980976,0.0
22.511332,0.18127106058956707,0.0
22.515419999999995,0.1795873517394783,0.0
22.519512,0.18014097623915268,0.0
22.523604,0.17990810876375007,0.0
22.527692,0.17597564888836534,0.0
22.531784,0.1703594801628918,0.0
22.535868,0.1655298034124952,0.0
22.539956,0.15991363468702166,0.0
22.544048,0.1527244820113942,0.0
22.548132,0.15315596393560085,0.0
22.552216,0.1561683715849081,0.0
22.556296,0.1552597370343634,0.0
22.560384,0.15682130330898447,0.0
22.564468,0.1605094780334338,0.0
22.568552,0.1637547531581436,0.0
22.572632,0.16577063670803702,0.0
22.576716,0.16307898608300156,0.0
22.580796,0.16207104430805486,0.0
22.584872,0.16274681138319694,0.0
22.588956,0.15177017675871815,0.0
22.593028,0.14583325100897288,0.0
22.597116,0.14213365860899072,0.0
22.601204,0.14000705015916243,0.0
22.605292,0.13586455815944082,0.0
22.60938,0.13833475898460654,0.0
22.613468,0.14439382730981956,0.0
22.61756,0.1497771285598905,0.0
22.62166,0.15415248803501475,0.0
22.625744,0.15819567281033436,0.0
22.629836,0.15551543986083174,0.0
22.633924,0.15596975713610406,0.0
22.638012,0.15911572503641191,0.0
22.642104,0.16506406846169006,0.0
22.646132,0.17269612073705695,0.0
22.650212,0.17976313083721668,0.0
22.654236,0.18716231563718097,0.0
22.658272,0.1964666590871038,0.0
22.66236,0.20599245233689642,0.0
22.666452,0.2118186531867068,0.0
22.670528,0.2245897215612093,0.0
22.674616,0.23343974773585977,0.0
22.678656,0.24005244056074712,0.0
22.682756,0.24475997473567598,0.0
22.686804,0.2541750430855337,0.0
22.690856,0.26067701101048624,0.0
22.694892,0.2635901114353914,0.0
22.69898,0.26325793673558684,0.0
22.70308,0.2639337038107289,0.0
22.70712,0.26382297891079404,0.0
22.711152,0.26752257131077617,0.0
22.715136,0.2685305130857229,0.0
22.719232,0.26606031226055715,0.0
22.723164,0.26000124393534413,0.0
