Time,Force,Position
24.943496,0.42025414165158237,0.0
24.947592,0.41723031632674235,0.0
24.95168,0.41330927412689045,0.0
24.95578,0.4074830732770801,0.0
24.95978,0.3986330471024296,0.0
24.963812,0.3858619787279272,0.0
24.967904,0.3663674926286026,0.0
24.971992,0.3472051812290825,0.0
24.976084,0.329161536504444,0.0
24.980176,0.3166119179298113,0.0
24.98416,0.3028329077803622,0.0
24.988248,0.2916348233560136,0.0
24.992336,0.27595065455660595,0.0
24.996424,0.2668791785820857,0.0
25.000416,0.25108428488274326,0.0
25.0044,0.23932115828318756,0.0
25.008488,0.2332735076335074,0.0
25.01248,0.23237629075849556,0.0
25.016568,0.22990608993332978,0.0
25.020568,0.22653867223315222,0.0
25.024664,0.22765733890803377,0.0
25.028748,0.23068116423287388,0.0
25.032832,0.23482365623259552,0.0
25.036916,0.24076058198234085,0.0
25.040948,0.249942782856796,0.0
25.044984,0.2599114757063281,0.0
25.049072,0.27559564450573565,0.0
25.05316,0.2912798133051433,0.0
25.057248,0.3022564479296221,0.0
25.06128,0.30841482347923715,0.0
25.065368,0.317818474153562,0.0
25.06946,0.3215066488780113,0.0
25.073548,0.32721070715235395,0.0
25.077636,0.3255155806267324,0.0
25.08172,0.3296466549509212,0.0
25.085808,0.32705431155028775,0.0
25.0899,0.3204302010498675,0.0
25.093992,0.3134739158496427,0.0
25.098088,0.30248586354963103,0.0
25.102184,0.2923950281246313,0.0
25.106272,0.28521729312453675,0.0
25.11036,0.2770316163494954,0.0
25.114456,0.2638062306997207,0.0
25.118552,0.2580907547498451,0.0
25.122644,0.2529403209751767,0.0
25.126736,0.25193237920023,0.0
25.130828,0.24823278680024785,0.0
25.134924,0.24543041127527754,0.0
25.139016,0.24722484502530123,0.0
25.143112,0.2510351623252182,0.0
25.1472,0.2510351623252182,0.0
25.151296,0.2539482627501234,0.0
25.155396,0.25451330492533064,0.0
25.159488,0.2613588652256206,0.0
25.163584,0.26730720865089874,0.0
25.16762,0.27897102802605245,0.0
25.171708,0.2890618634510522,0.0
25.175796,0.29365867272604623,0.0
25.179832,0.29814475710110533,0.0
25.18392,0.3073383756510933,0.0
25.187956,0.3118244600261524,0.0
25.192052,0.3142946608513181,0.0
25.196148,0.32348827940130603,0.0
25.200232,0.3214723958514127,0.0
25.20432,0.3186700203264424,0.0
25.208296,0.3118358777016853,0.0
25.212392,0.30096996797714143,0.0
25.216476,0.2890961164776508,0.0
25.220556,0.2731904978783734,0.0
25.224648,0.25930076282898945,0.0
25.228688,0.24731618642956402,0.0
25.232736,0.23824471045504375,0.0
25.236764,0.23410221845532211,0.0
25.240808,0.2281652927055768,0.0
25.244852,0.22222836695583154,0.0
25.2489,0.2134890656811159,0.0
25.253004,0.21024379055640607,0.0
25.257108,0.20980089095666654,0.0
25.261148,0.2151841922067375,0.0
25.265152,0.21754366813196832,0.0
25.26914,0.2188952022822525,0.0
25.27318,0.2233812866573116,0.0
25.277284,0.22517572040733522,0.0
25.28138,0.23369357188218112,0.0
25.28538,0.24310864023203885,0.0
25.28938,0.2535316503568432,0.0
25.29336,0.26877291955651145,0.0
25.29744,0.2839034638562447,0.0
25.301528,0.30328722505563444,0.0
25.305528,0.3187499440551724,0.0
25.309456,0.33298327147989387,0.0
25.313484,0.3454221651545916,0.0
25.317528,0.35516940820425397,0.0
25.321624,0.3646952014540466,0.0
25.32572,0.3716514866542714,0.0
25.329748,0.3791842317052363,0.0
25.333732,0.3917909386575333,0.0
25.337716,0.41128887661225155,0.0
25.34176,0.4431949070704628,0.0066219726324736996
25.345796,0.49323592365757524,0.013747213367747634
25.349828,0.5688111111735534,0.02085168522497202
25.353828,0.6637506763932493,0.028003673945699227
25.357912,0.7747979265164202,0.03531711148839332
25.36194,0.902850078418078,0.04264506555752409
25.366024,1.0479071320982225,0.050042829500404534
25.370008,1.2098583626569195,0.05753625732151457
25.37404,1.387352235943884,0.06507968908048156
25.378072,1.581618143533933,0.07264101369191384
25.382156,1.787627794227865,0.08036195168111251
25.386188,2.01737718210064,0.08805759337990408
25.390228,2.2754631164272503,0.09562899833378512
25.394256,2.5609883803326845,0.103072610814305
25.398344,2.8678939054917314,0.11048930705040097
25.402436,3.1933658987038855,0.1178914171349629
25.406524,3.5371714924937447,0.12530342152630405
25.410616,3.902998861585761,0.13263821638345183
25.414656,4.274675266878654,0.13995598439590226
25.418744,4.654281646120118,0.14715537050024283
25.422784,5.023385091508049,0.14766840962830746
25.426816,5.372436974441587,0.14766160295712705
25.430908,5.698302744695958,0.14765084049357258
25.434948,6.005590629221689,0.14756613145237854
25.43904,6.2975573208190205,0.14730991009236494
25.443076,6.574534994187759,0.14697512339361657
25.447164,6.833942723602801,0.14655239429837463
25.451252,7.078472159689188,0.14600254151895595
25.455284,7.312166487222234,0.14533366905280057
25.459368,7.533574864827255,0.1446063000399537
25.463452,7.7473819913281154,0.1436188175833072
25.467536,7.936762195899458,0.1426404589711806
25.471624,8.0928540346911,0.14180006810636628
25.475656,8.214095941428422,0.14112866112247158
25.479736,8.310590169211952,0.14050360054249952
25.483816,8.388285061466972,0.13986913073667892
25.487892,8.452342469643684,0.1391731633170777
25.49198,8.493679500092032,0.13853112572390452
25.496008,8.519042405887905,0.1379097631393385
25.500092,8.527224630807554,0.1374164798106717
25.50418,8.53046645407687,0.13696074727970498
25.50822,8.533708277346186,0.13650391706503048
25.512308,8.531566799365432,0.1361032876198518
25.5163,8.525160686809489,0.1357389696769723
25.520332,8.523905008028212,0.13529254304121952
25.524408,8.51861756214715,0.1349101652177649
25.528492,8.515235274916046,0.13450381579680074
25.53258,8.50949351175971,0.1341079814699547
25.536608,8.497692680278162,0.13376616538775796
25.540652,8.480951447146282,0.1334559101438758
25.544748,8.458273288264657,0.1332282031400782
25.548836,8.43762243060846,0.13300758435751006
25.55294,8.422587741677734,0.1327581369032941
25.557036,8.416082321897388,0.13244077889099254
25.561132,8.417984028691953,0.13202541370449877
25.56522,8.416972635061613,0.13164782635361996
25.569268,8.414388257481118,0.13127799594578407
25.573316,8.413266138950842,0.13090797003524246
25.577404,8.416740829695563,0.13048848112203487
25.581492,8.423128620865185,0.1300302394335998
25.585568,8.430081454210015,0.1295814240891486
25.589608,8.437820779529924,0.12912941524004623
25.593648,8.452062072774785,0.12860323965116408
25.597728,8.469327191344485,0.12803266513755127
25.60178,8.474264141139424,0.12761024446489433
25.605816,8.475944398134118,0.12720287177492598
25.609796,8.474822279603842,0.1268281225709706
25.613788,8.473478711273698,0.1264648119062772
25.617836,8.471016476268671,0.12612109306242558
25.62192,8.470348675013671,0.1257604787795415
25.625968,8.47147530750869,0.12538397246371155
25.630052,8.475293590628747,0.12498304646208222
25.63414,8.481471349674035,0.12457563172613448
25.638232,8.485633225169428,0.12419699328786506
25.642308,8.480158582515093,0.12393668477623807
25.646388,8.481861674860852,0.12361123572115627
25.650468,8.48189247603206,0.12333543410372354
25.654548,8.482488319378469,0.12306948518624647
25.658628,8.478830945825228,0.12287084250075421
25.66266,8.475627889547253,0.12268758528629624
25.666736,8.472092658569476,0.12252172527395658
25.67082,8.470584728817128,0.12236689678619266
25.674848,8.468744624364971,0.12222972246929506
25.678936,8.465342953638196,0.12213479291128013
25.683024,8.47012695968646,0.1219627232911817
25.687108,8.480072817184928,0.1217546345057102
25.6912,8.49159165863355,0.12154276655582873
25.695232,8.505802150707206,0.12130841816068165
25.699264,8.52169635163095,0.12106382638158983
25.703348,8.537479827654758,0.12082650024580929
25.70744,8.551247420128675,0.12061739105401341
25.711428,8.565912229477604,0.12040311473021821
25.71546,8.579114779776313,0.12018813981493752
25.719492,8.59422248872498,0.11995285147250168
25.72358,8.616840107373546,0.11964008081157601
25.72766,8.631272049247071,0.11940131070160852
25.7317,8.646146890720338,0.11914010570565041
25.735728,8.658330081568568,0.11890112240451073
25.739808,8.673647822641572,0.11861692456684078
25.743836,8.687171129964554,0.11834788674474955
25.747872,8.699010728437445,0.11808741996856911
25.7519,8.707593634110095,0.11783982935826497
25.755932,8.716065814882809,0.11759900577065198
25.760016,8.724870170355327,0.11734077369551031
25.764096,8.733220208552574,0.11706884588241426
25.768184,8.74089447967468,0.11679432827146022
25.772208,8.745877100171747,0.11654135365821514
25.776244,8.748843837118923,0.11631480957154683
25.780276,8.753826457615993,0.11606355206569538
25.784372,8.756006702588092,0.11583913347924733
25.788464,8.755606021835089,0.11562992080192076
25.79256,8.752513690457054,0.11544265981775498
25.796592,8.749089184379212,0.1152721163850207
25.800684,8.744988911226228,0.11509758776419757
25.804776,8.73629182879825,0.11496333547545848
25.808864,8.734318164095095,0.1147583620434555
25.812948,8.734249658041897,0.11453470729394967
25.817036,8.739110135963497,0.11425558140482181
25.821072,8.74228690503501,0.11398488543363679
25.825156,8.745795848806326,0.11369737472523657
25.829244,8.754344501452378,0.11334984810100424
25.833284,8.764798312748388,0.11298314656061215
25.83732,8.773789864994178,0.11261404147507525
25.841404,8.783900083914851,0.11222778213241993
25.84544,8.790199985535605,0.11187866151461018
25.849532,8.793132469456182,0.11154457859577856
25.853616,8.799420953401404,0.11115831728705892
25.857652,8.8062630618463,0.11074536832574
25.86168,8.807832593941061,0.110365259874405
25.865712,8.811860909185452,0.10993921758741747
25.869792,8.817118616004661,0.10948850721490161
25.873828,8.818898180223758,0.10905665185039945
25.87786,8.819436935192506,0.1086096390426098
25.881892,8.819189198186178,0.10816357051883475
25.885964,8.819384360779589,0.1076940504642945
25.89004,8.813188280347983,0.10727432954273343
25.894068,8.801608898666302,0.10689166950503186
25.898064,8.78453549083462,0.10655164375638063
25.902048,8.767683532802806,0.10619951801519399
25.906136,8.751839516545937,0.10583496112758652
25.910176,8.73128796611414,0.10551139200248284
25.914216,8.71106859038215,0.10517065787400627
25.91826,8.68872260620033,0.10485692982977529
25.92224,8.67007621441849,0.10451378786022585
25.926332,8.658153240361475,0.10410778603239541
25.93042,8.649708408904573,0.10368317418091517
25.934504,8.639136968997843,0.10328620629452015
25.93854,8.62834407929124,0.10289985648966979
25.942568,8.623155940634579,0.10246820831968549
25.946596,8.615730468628156,0.10206865179397527
25.950632,8.611783139221842,0.1016524106541138
25.954716,8.611424677315577,0.10121269378980048
25.958696,8.612528474459532,0.10077772516575637
25.962724,8.612624329828538,0.10035281034298818
25.966756,8.61317450247282,0.0999431522181539
25.970848,8.618321484392093,0.09950014180381375
25.974936,8.629859709336385,0.09901427379587115
25.979032,8.645884018655734,0.09850208251319457
25.983064,8.664267803900316,0.09799223120318225
25.987104,8.68332735622004,0.09748992371865232
25.9912,8.706983717814756,0.09695861870503336
25.995184,8.731205121584681,0.09644076720532847
25.999272,8.759236842654525,0.09589174799611233
26.003364,8.779315754424728,0.09542179770532692
26.007456,8.792671248470109,0.09501038657410463
26.011552,8.800532716365483,0.0946330997131793
26.015648,8.808394184260859,0.09425571368683604
26.019732,8.81423976860634,0.09389853590818442
26.023816,8.818855961377004,0.09356399139019507
26.027856,8.82537731279763,0.09321426778290458
26.031888,8.831112172243175,0.09286594877343857
26.035972,8.8376335236638,0.0925191232839272
26.04002,8.845162816859371,0.09216339381449538
26.044116,8.858296861104884,0.09177156524111584
26.048148,8.872660296925213,0.09136000485068962
26.05218,8.885007849195647,0.09096889748539154
26.056208,8.892647867291155,0.09061171268189705
26.060284,8.898382726736703,0.09026983576977343
26.064368,8.90433903598212,0.08991979910229116
26.068452,8.907603694602502,0.08958262314723905
26.072484,8.904255660397995,0.08929043492736208
26.076516,8.89731875869344,0.08901460675259086
26.080544,8.89217629073891,0.08873146147229204
26.084624,8.892294981458985,0.0883912562207211
26.0887,8.896899756554117,0.08803045982046381
26.092792,8.911484642174319,0.08762078863310215
26.09682,8.927753236644605,0.08720907104657002
26.100852,8.94783214841481,0.08677207608679921
26.10494,8.966005901535054,0.08634892552455314
26.109016,8.984068929755363,0.08593191182348048
26.113104,9.000902566400859,0.08553546697536209
26.117144,9.014933827521384,0.08515589297584723
26.121176,9.027059929991948,0.08478986482042139
26.125216,9.032351889837756,0.08447650065729727
26.129308,9.037422399883694,0.08417368758796218
26.133344,9.04630322722955,0.08384740177687669
26.137328,9.057875705200443,0.08351035714233597
26.141364,9.067875199221179,0.08317065497347077
26.1454,9.070364783542015,0.08287393305127545
26.149492,9.07576746828776,0.08255662985664443
26.15358,9.08498047033342,0.08221412150906954
26.157664,9.101027615003837,0.08182355429593875
26.161692,9.110794241549172,0.08145789861834112
26.16578,9.119552926319557,0.0811020897288985
26.169864,9.124833468489832,0.08075539777356333
26.173944,9.121252566809924,0.08043805677866413
26.177976,9.11587723137999,0.08012734462964329
26.182008,9.10881818709997,0.07981877264919028
26.18604,9.103099259294703,0.07948715715885003
26.19012,9.09838827326438,0.07914791085304998
26.1942,9.091207086408891,0.07880732879780745
26.19828,9.088168391553126,0.07843011824073899
26.20236,9.08624836337224,0.07803999811712507
26.206444,9.089257319166153,0.0776151990991404
26.210524,9.093163491835076,0.0771882656329011
26.214608,9.091354188554124,0.07679399225034274
26.218688,9.086963959548072,0.0764034380436024
26.222772,9.08235228074215,0.0760213229940133
26.226856,9.085250511636126,0.07560034474686421
26.230936,9.085235642105197,0.07519772181622698
26.235032,9.087347381024099,0.07477634955646642
26.239116,9.081727760443231,0.07440149820572045
26.243204,9.081823615812237,0.07399565275945659
26.247292,9.081919471181243,0.0735903050543409
26.251376,9.083920485200208,0.07317463005379615
26.255456,9.093209959119205,0.07273460963374848
26.259548,9.103728824613015,0.07227814413957041
26.263632,9.11234253145687,0.07183143483054097
26.26772,9.119948296525774,0.07139255778601211
26.271808,9.12497313586958,0.07095635634691769
26.275896,9.133808292513299,0.07050120520680152
26.279988,9.137603740282291,0.07008181436646566
26.28408,9.142407129826227,0.06965663800837975
26.288172,9.14261371009517,0.06924736050279573
26.292272,9.14046081443888,0.06883026954491338
26.296368,9.139648035257347,0.06839027039059298
26.30046,9.14185908140065,0.06792989875098902
26.304492,9.14899911151875,0.0674415922255787
26.308576,9.153447491011818,0.06696063391461586
26.312664,9.162935579379619,0.06644793728926672
26.316748,9.171305001072538,0.06594933173333331
26.32078,9.18538989871533,0.06542573440364446
26.324868,9.194545812383327,0.06493048763470922
26.328952,9.204931117626138,0.06442143855226191
26.33304,9.21441920599394,0.06391466412912161
26.337132,9.219310485086744,0.06342317320278185
26.34122,9.225996197929577,0.06293058869419119
26.345312,9.236492228072324,0.06242380217908825
26.349404,9.248782691965094,0.06191525397758731
26.3535,9.264772748257846,0.06139788859433018
26.357532,9.280652079650665,0.06088764264565964
26.361564,9.302579061693164,0.06034372916732525
26.365652,9.323498101960716,0.05980801039742982
26.369748,9.347219517753238,0.0592639652935338
26.373776,9.374529801045806,0.05871738752849501
26.377824,9.407223385588447,0.05816755806593201
26.381852,9.438798303456204,0.05763095709256196
26.38588,9.469365279549017,0.057105242923011564
26.38996,9.501837414291787,0.05657543842989647
26.39404,9.530499231734641,0.056062016945942796
26.39812,9.558374557202416,0.05554764320368276
26.402208,9.585020491095376,0.05505036895097558
26.406296,9.618389842713157,0.05453267724583385
26.410376,9.649300411181306,0.05404461434658652
26.414464,9.682116138299415,0.05355303274096231
26.418556,9.713923923642575,0.0530668245353019
26.42264,9.741024174810807,0.05259373986273909
26.426724,9.763416891804113,0.052133324964606355
26.430812,9.78009413284754,0.05168829672391251
26.434892,9.791055897941092,0.051259385165752236
26.438964,9.795626420009626,0.05083670163412241
26.443044,9.797173116753322,0.050430182569369694
26.44712,9.794012279322088,0.05003255005276395
26.4512,9.788049066365883,0.0496393267486716
26.455288,9.77715686943488,0.04926453834553077
26.459368,9.760770646353869,0.04889600016856612
26.463452,9.737550280648106,0.04854794644917132
26.467532,9.704804121692547,0.0482208991876584
26.471608,9.667239703662124,0.04790562402501396
26.475692,9.62553279363198,0.047609883080867325
26.479776,9.574975857427184,0.04734237234533055
26.483864,9.519035619972318,0.047072871781344915
26.48796,9.451553705717766,0.046831945794122615
26.492056,9.376783331563185,0.046592247726367705
26.496144,9.29036055570898,0.04638483925428444
26.500236,9.198000854105034,0.04619682984843674
26.504264,9.10183083520117,0.04601317516192854
26.508356,9.000842557222443,0.04583856943454001
26.512444,8.901759437893675,0.04565536222270609
26.516536,8.800660435015013,0.0454773062163546
26.520576,8.700015749411621,0.045314281129589795
26.524604,8.589955995458373,0.04516357876391726
26.528644,8.476872416180285,0.04502276127769119
26.532728,8.35975706980241,0.04489653782023
26.536816,8.238155639049475,0.0447642867597408
26.5408,8.106696240346944,0.044666312801724284
26.544832,7.974339624769402,0.044565692434776163
26.548868,7.841540109592119,0.04448566977527752
26.552852,7.702692943765156,0.04443473615503226
26.556876,7.559924735738342,0.0443988555582052
26.560916,7.418164469486474,0.0443569784981159
26.564952,7.273380377909765,0.04432681085464721
26.568996,7.126580402783164,0.04430850241172884
26.573036,6.980456194731705,0.044301200104048526
26.577068,6.839039520855174,0.044284318163335834
26.581104,6.701543889178495,0.04424739463730123
26.585088,6.562597416127131,0.04424195885565832
26.58912,6.423540218175831,0.04424042890180377
26.593128,6.276862385624696,0.04425884799306976
26.597072,6.125366293998698,0.044296955786345335
26.601056,5.972075768622678,0.04433382019471453
26.605036,5.821144719171889,0.04439511847754632
26.609116,5.672008103471121,0.044457123584018904
26.613196,5.521974270895343,0.04451857768679456
26.617232,5.370489596944878,0.04462163011552943
26.621272,5.223036690094198,0.04469893974886977
26.625348,5.078275433868557,0.044777718792990605
26.629324,4.935075743917535,0.044804636046123794
26.633324,4.795121329091224,0.04478884385488177
26.6373,4.655388364064782,0.04475602862005079
26.641392,4.517560557688299,0.04470841164846256
26.64548,4.379732751311817,0.04465575110278594
26.649564,4.244818045360237,0.04458509451262834
26.653556,4.110911281183606,0.0445017168640956
26.6576,3.9762180250318977,0.04439649383349883
26.6617,3.8349120760553013,0.04430644783629712
26.665796,3.693151809803433,0.04416404503955389
26.669888,3.551391543551566,0.04400816031998261
26.673988,3.4142280865746923,0.043834714391049905
26.67808,3.284795989097587,0.043582683614282976
26.682176,3.155363891620482,0.043310457200041105
26.686272,3.024137360393353,0.04303336764191246
26.690368,2.8930215540661592,0.04271074248483295
26.694468,2.763700181488989,0.04236265322949043
26.69856,2.6367268671615167,0.041893526001572375
26.70266,2.5111050869843288,0.041483723942086485
26.706756,2.384586089932128,0.041032323026462994
26.710792,2.2575134683802545,0.04062858021406343
26.714832,2.133808264528558,0.04022513308252723
26.718932,2.01458914505192,0.03978779391394708
26.723024,1.894029909100531,0.03942109606898507
26.72712,1.7752651068991658,0.03725365440948498
26.731208,1.6565003046978006,0.03509407619190611
26.7353,1.5414350948964175,0.032943054056803776
26.739336,1.428950810820135,0.030816249020884395
26.743424,1.3245414786189589,0.028691130854980415
26.747508,1.2270884316180075,0.02659871009262476
26.751604,1.136813119617151,0.024523147132412465
26.7557,1.0472135746914364,0.022461726778711742
26.759796,0.9581790719409288,0.020466425226336765
26.763892,0.8727334366904688,0.018494270020792847
