Time,Force,Position
22.136176,0.18842051825743963,0.0
22.140212,0.1822621427078246,0.0
22.144236,0.17498510048332802,0.0
22.148264,0.16602434940874264,0.0
22.152296,0.1608739156340743,0.0
22.156384,0.15292110633443562,0.0
22.160412,0.14934365650992118,0.0
22.164504,0.1484578573104422,0.0
22.16854,0.1380462648611706,0.0
22.172636,0.12875333908678066,0.0
22.176724,0.11564493503147326,0.0
22.18076,0.10422023982625465,0.0
22.184748,0.09279554462103605,0.0
22.18884,0.08338673296571085,0.0
22.192932,0.07319659031630904,0.0
22.197024,0.06412511434178882,0.0
22.201116,0.06065838941720923,0.0
22.205152,0.062120648467428256,0.0
22.209244,0.06336145771777754,0.0
22.213332,0.0667288754179551,0.0
22.217412,0.0717800019682214,0.0
22.221492,0.07884701206838113,0.0
22.225532,0.08781918081849936,0.0
22.229564,0.09768856644362942,0.0
22.23366,0.10475557654378911,0.0
22.237748,0.11070391996906725,0.0
22.241832,0.11597649631920334,0.0
22.245916,0.12046258069426247,0.0
22.250004,0.1326800245690905,0.0
22.254092,0.1466919021939422,0.0
22.258176,0.1659815171499303,0.0
22.262204,0.18921500965683605,0.0
22.266288,0.2193283154906303,0.0
22.270372,0.2580165611769347,0.0
22.274452,0.31191011391070206,0.006679479103908489
22.278536,0.38504590177271925,0.013483641556058272
22.28262,0.47327001508773203,0.020337597913679187
22.28666,0.5750094699055864,0.0272293892456023
22.290688,0.6903749911262175,0.03422396376733375
22.294772,0.8208288377998437,0.041286601433946996
22.298852,0.9665924597263355,0.04837577514381464
22.302936,1.1258714231556688,0.05553110880732082
22.307016,1.2969820192377548,0.06278978642416001
22.31104,1.4814972319227475,0.07014209412104998
22.315124,1.6853654046359252,0.07748540603640913
22.319208,1.9072464209025366,0.08489650791223019
22.323296,2.1482589473974634,0.09227001572376384
22.327392,2.4033518575704385,0.09968269797840668
22.33142,2.6689362839214166,0.10715360846628762
22.335508,2.949043993550182,0.11462838423274876
22.339596,3.242766351906191,0.12205010226972733
22.343636,3.5444757725884393,0.12947524940741226
22.347668,3.849419050719865,0.13683308640003156
22.351752,4.152743674199005,0.14410114924269385
22.35584,4.440514237274345,0.14465704710816063
22.359924,4.705896597321126,0.14510936592774992
22.364016,4.952601764414865,0.14551722832964353
22.368048,5.184672923330879,0.14586132543819383
22.372144,5.401987931493705,0.14606452619137902
22.376188,5.601855138278304,0.14619475368955434
22.38028,5.776653909084841,0.14641657834651892
22.384356,5.939621047238626,0.14653222961224183
22.388396,6.092440261589747,0.14651287973057128
22.392484,6.234767959762867,0.1463458007154708
22.396576,6.356501888657452,0.14618791491478514
22.400668,6.461551672797822,0.14589067009434692
22.404764,6.541853777984404,0.14565377472162655
22.408844,6.608407674192741,0.1453339154768845
22.412936,6.664580779123011,0.1448950143836091
22.41702,6.706341325675427,0.14443221867848932
22.421112,6.728538880075322,0.14405988434939132
22.425148,6.741042827947825,0.143628657472065
22.429184,6.739844237544213,0.14331462002284223
22.433264,6.7316893619403775,0.1430903567235765
22.43734,6.725107470286694,0.14285553451093222
22.44142,6.7239088798830835,0.14254446642738478
22.4455,6.721923797504395,0.14223734206346797
22.449484,6.712428805425808,0.14205444933951375
22.453516,6.7039531727977,0.141899762524819
22.457596,6.697504841395018,0.14175280298364842
22.461672,6.706641371567342,0.14136592708140747
22.465752,6.711402542264542,0.14103574711006306
22.46978,6.716606612561481,0.1406785334362005
22.47382,6.718221815358372,0.14037234985980607
22.477908,6.721299277205483,0.14006288769141226
22.481996,6.722261548278298,0.13984899528878636
22.486076,6.726037612551616,0.13963660433166594
22.490152,6.728473560350184,0.13946800280345809
22.494236,6.727885682823911,0.1393602148905454
22.49822,6.72539264664768,0.1392846820559013
22.502304,6.725591261096484,0.139171745574718
22.506388,6.722655325320512,0.13912656386923872
22.51042,6.723529706844458,0.13901619876439647
22.514476,6.723728321293263,0.13890280868220137
22.518508,6.719784443742345,0.138877577110909
22.522504,6.709903640441682,0.138965951216911
22.526596,6.7026037628661195,0.1390244400427844
22.53068,6.7052725781400895,0.13888807896715824
22.534768,6.706368409463904,0.13876162514782941
22.538804,6.703986098187607,0.1386773197876707
22.542832,6.690505009711364,0.13876545739407553
22.54686,6.678818354985144,0.13882904681802907
22.550944,6.664107874934084,0.1389513271385612
22.554984,6.652764812583202,0.13903865510051397
22.55898,6.64288400928254,0.13912429141769347
22.56306,6.6355841317069775,0.1391811769196275
22.56714,6.6356834389313795,0.1391249129017556
22.571216,6.634774804380837,0.13908833476640717
22.57524,6.633755444930356,0.13905937587804598
22.579276,6.636435677879859,0.13897447673801297
22.58336,6.640123852604309,0.13887015526723706
22.587448,6.646835852653597,0.13870758597772218
22.591524,6.6580339370779456,0.13848813710464522
22.595608,6.671702222327459,0.13824921273637783
22.599696,6.691761750601993,0.137921063263703
22.603732,6.72033913035137,0.13745907253692252
22.607824,6.750710943850771,0.1369790356631222
22.611912,6.777505307525658,0.13659910960289545
22.616,6.806315554750438,0.13618451402149157
22.620092,6.841738494800107,0.13567046682599926
22.62418,6.884449894749804,0.13505917087512906
22.628264,6.930860887099484,0.13440338445271413
22.632352,6.976596112374021,0.13374382195851608
22.636436,7.01616154442341,0.13315435460209998
22.640528,7.05875080179764,0.1325175016356898
22.644612,7.100775016996662,0.13187202893403735
22.648696,7.1365187140706015,0.13131160400696765
22.652784,7.174610469394239,0.13069532370903916
22.656876,7.213255849217551,0.13004482688553404
22.66096,7.250328245090708,0.1294088801970595
22.665044,7.2875113658638,0.12876996487716566
22.669128,7.3246944866368935,0.1281391560040061
22.673164,7.359628856384692,0.1275236528357157
22.677256,7.393211691982204,0.12690476818806093
22.681356,7.4236485596794095,0.126304373024136
22.685448,7.447694184351597,0.12578383625611872
22.689484,7.468483116223541,0.12528475114642715
22.69352,7.4891499055200175,0.12474975745672302
22.697604,7.506449277116316,0.12424077649722239
22.701692,7.520270506112504,0.12376685747000084
22.705776,7.531842984083394,0.1232987748193081
22.70986,7.538032160804214,0.12288706935400592
22.713948,7.546015771275057,0.1224578029463029
22.718028,7.5605013496708535,0.12195229666057637
22.722112,7.569825076616449,0.12148989886741664
22.726196,7.579259528461979,0.12102171293413778
22.730284,7.588804705207444,0.12054640436459202
22.734368,7.5972312152780255,0.12009449927156397
22.738456,7.604539058673728,0.11966456627115789
22.742544,7.609831018519536,0.11926555715701999
22.746624,7.613439269515255,0.11887787975312354
22.750652,7.615253086760951,0.11850884132187282
22.754684,7.612813687106989,0.11821295712674573
22.758768,7.609144895878212,0.11794470202793227
22.76286,7.606262596624512,0.11767481897507286
22.766944,7.607079889770793,0.11736518557689779
22.771032,7.608572949992217,0.11706001396223308
22.77512,7.608836618638825,0.11678239418566112
22.779148,7.609776054360575,0.11650861963259129
22.783228,7.611723431857271,0.11622089978091328
22.787312,7.60986049205405,0.11597843052462398
22.791392,7.608108277150764,0.11572855124627741
22.795476,7.604561628497455,0.11549509058389083
22.7995,7.602133646519027,0.11524264673995963
22.80354,7.603183807140711,0.11496504323041368
22.807628,7.605131184637408,0.11468023188442576
22.811712,7.608762270984192,0.11438643077022442
22.815796,7.615085007956012,0.11407092651231845
22.819832,7.627012495977773,0.1136996727898804
22.823924,7.639161433799405,0.11331542159277778
22.82802,7.653104805371059,0.11291698394939598
22.832116,7.665818785367895,0.11254472909350598
22.836204,7.680548648914627,0.11214403249701434
22.8403,7.698080887986328,0.11171565122891221
22.844396,7.715280952358224,0.11130787379229241
22.848484,7.727662757655258,0.11095599719417838
22.852576,7.742736213577326,0.110584181474555
22.856672,7.760279870324562,0.11020362271253488
22.86076,7.782531061246725,0.10977748157953106
22.864796,7.8016477019441135,0.10939788512484781
22.868828,7.826934135866649,0.1089757954175855
22.872912,7.858501087914269,0.10850769858725477
22.876952,7.891862473711911,0.10802669312082017
22.88104,7.917492500009783,0.10763397564536606
22.885132,7.938414992132728,0.10728874037333068
22.889224,7.957543050505648,0.1069586461085164
22.893256,7.975663167103622,0.10664263253651261
22.897344,7.986605548701501,0.10638145013422841
22.901432,7.991943179249439,0.10617523966047147
22.90552,7.997059359997507,0.1059808083374199
22.909612,7.9972465567707784,0.10584391174584322
22.9137,7.999671086893814,0.10566939089587174
22.917788,8.001874167216977,0.10550703554539625
22.92188,8.00149632181504,0.10535915012975496
22.925976,7.999656217362887,0.10520661026805157
22.930012,8.002634371985595,0.10500254268747258
22.934092,7.999110558683351,0.10485702664180434
22.938176,7.994124486330887,0.10470696837185309
22.942268,7.9824149962536035,0.10462688180261974
22.946356,7.9755237652511815,0.1044959929046911
22.950384,7.965940883623724,0.10438469429336737
22.95446,7.944251283021373,0.10438084946274771
22.958544,7.920877973568934,0.10438308818336986
22.962624,7.902212198291423,0.10434138307923281
22.966704,7.887246015413895,0.10426770846457172
22.970788,7.87295559961151,0.10419918227518048
22.974868,7.858997358508929,0.10411226170985932
22.978952,7.850533143556353,0.10398046619794302
22.983032,7.8429661454787905,0.10384201057724374
22.98712,7.838312247826132,0.10367249572141768
22.991204,7.840713942598099,0.10341664371781524
22.995292,7.8400918120452285,0.10319759235901427
22.999376,7.838007422442139,0.10297279807405475
23.00346,7.837606741689137,0.10274151488961779
23.007556,7.837206060936136,0.10250988817220916
23.01164,7.832995062883217,0.10231521996417497
23.015728,7.835507482555121,0.10205299204913765
23.019752,7.838130627126959,0.10178519082868222
23.023832,7.839856554823786,0.10152134967123483
23.027912,7.837096398145553,0.10128908752182733
23.032012,7.830747373967273,0.10108113161785198
23.036096,7.835829301688744,0.10076155825788773
23.040176,7.842816388060174,0.10042422083042901
23.044212,7.847222548706503,0.10009935414097938
23.048248,7.85073149247782,0.09978130956993193
23.05228,7.854351161149072,0.09945748000533504
23.056372,7.855733496470561,0.09916931638834015
23.06046,7.854202731367144,0.09891117892330617
23.064552,7.849869590738759,0.0986764778855361
23.06864,7.841947582610325,0.09846583735183904
23.072672,7.831788241132128,0.09829136508610488
23.076712,7.821739624553867,0.09811023841237743
23.080804,7.813596166625563,0.0979106775962329
23.084888,7.805895608297,0.09768728476416151
23.088924,7.795392674443463,0.09748628155534049
23.093016,7.786229857064681,0.0972545980117079
23.097048,7.773588897085786,0.09703993652751831
23.101032,7.757248344706908,0.09685313425513935
23.105028,7.751552252252703,0.09656206645306935
23.108976,7.747872043348393,0.0962472297827034
23.113004,7.745310501118964,0.09591317245670618
23.117032,7.739946583364565,0.09560362755564936
23.121012,7.732677506960208,0.09531091820937797
23.125064,7.728210806080821,0.09499569807308401
23.129092,7.725981438551196,0.09464698783756059
23.133192,7.725092187496324,0.09427015251642001
23.13728,7.727669661366032,0.09383645494625807
23.141368,7.73719200276043,0.09333402693710514
23.145348,7.751754053029564,0.0927772884022162
23.14938,7.769339928623536,0.09218885148746751
23.15342,7.7863607620423005,0.09159021585271646
23.157516,7.80931852121081,0.09093663436486818
23.161612,7.832165555479383,0.09029064473901167
23.165704,7.850980822648172,0.08968737834326898
23.1698,7.876519507541781,0.08902853613204809
23.173852,7.905757784835373,0.08835001473938724
23.177884,7.936679770979053,0.08767070601223945
23.181932,7.977914042347603,0.08692448888243588
23.185968,8.010851912041177,0.0862393757736623
23.189996,8.045584215484775,0.08555072807819826
23.19408,8.088723645503283,0.08481579464062289
23.198056,8.131973800421726,0.08408090672606107
23.202092,8.178247780665009,0.08332171934536912
23.206084,8.225640427583174,0.08255482343742286
23.210116,8.270341423876303,0.08180573702595471
23.214148,8.315939637044446,0.08106062986750641
23.218176,8.358514024887747,0.08034637552562975
23.222164,8.39357850303115,0.07968338570432713
23.226196,8.425840605649581,0.07904071105628992
23.230236,8.460118591817906,0.07838788441754317
23.23422,8.494396577986235,0.07773808341930685
23.238252,8.52609363842946,0.07710133570925895
23.242288,8.560249482022318,0.07643184571945114
23.24632,8.600452976264858,0.07571538163847805
23.250348,8.63986997853232,0.07500559147660492
23.254424,8.676706055074678,0.07430626934174941
23.258464,8.712190597466758,0.07359585391992503
23.262496,8.735789870683812,0.07293581237468645
23.266524,8.759389143900865,0.07227496743835758
23.270548,8.779399549617874,0.0716269321250782
23.274628,8.788532627934803,0.07101856240510776
23.278708,8.795306230326503,0.0704035265621236
23.282796,8.79860169011809,0.06979456856104892
23.28688,8.799316224184576,0.06918943729274034
23.290908,8.801825192001084,0.0685807839194587
23.294948,8.797045699917565,0.06799320504180367
23.298984,8.79517930825895,0.06738909472227309
23.303016,8.79644746682511,0.06675768157804837
23.307056,8.796031916541182,0.06612373561331607
23.3111,8.790798107182392,0.06551627334692055
23.315132,8.78410203877338,0.06489713387871321
23.319164,8.775168637014605,0.06430197006116259
23.3232,8.76040903440602,0.06373638078112177
23.327232,8.739036738972548,0.06319679534010765
23.33126,8.713964851139094,0.06266796128016792
23.335296,8.686877079755748,0.062150200354257515
23.339332,8.657551975022637,0.06165215196995402
23.34336,8.633499446639663,0.06114637099088183
23.347392,8.609446918256689,0.060637919101314004
23.35142,8.584497172998702,0.06012769228531654
23.355456,8.565827945865797,0.05960552112229532
23.359488,8.548399527983245,0.05910402818560134
23.363528,8.534338527800866,0.058606985561651316
23.367564,8.519158860943607,0.05811931831220086
23.371596,8.502971252311404,0.05763792928871786
23.375636,8.493064161804282,0.0571461415790756
23.379668,8.481362637547136,0.05665650163456121
23.383708,8.467202330140356,0.05619730421925088
23.38774,8.456630890233626,0.05573320955017646
23.391772,8.444940783652013,0.05527747620066284
23.395804,8.436396644970705,0.054837974936156164
23.399784,8.427852506289401,0.054397627231106874
23.40382,8.420549176858446,0.05397771457639142
23.407848,8.419415640652637,0.053557248973340396
23.411876,8.416044771097067,0.05315573115521354
23.415956,8.414136160591715,0.05276712701516449
23.419996,8.414808475811464,0.05238060919478159
23.424084,8.416378007906223,0.051994345318392365
23.428068,8.423330841251055,0.05160623693109926
23.4321,8.435666975845956,0.05121606138826548
23.436036,8.441168967816102,0.05085332228716584
23.440036,8.445773742911236,0.05049109966171843
23.444036,8.443655100281546,0.050150623399738074
23.448084,8.442777266902207,0.049833498679815104
23.452028,8.437867666423081,0.04953635798027629
23.456068,8.431617949469203,0.04925961727791289
23.460044,8.422798724465757,0.04901686446597509
23.464076,8.414876716337321,0.04877299832987819
23.468156,8.403598708184244,0.0485591800690663
23.472252,8.394901625756265,0.04834884610115087
23.47634,8.380378342478476,0.048158914347928086
23.480388,8.36372845075086,0.04798311677516094
23.484416,8.35111032612303,0.047786574813374845
23.488412,8.329863625120419,0.0476152333407421
23.4925,8.311984341817988,0.047452548973276436
23.496488,8.290405466115573,0.04729428005668939
23.500524,8.265692040188382,0.047155680494266425
23.504508,8.238065513836286,0.04702634333661835
23.508544,8.203494119959501,0.04692688909050252
23.512576,8.161080641683009,0.04685667887670229
23.516656,8.12405046465659,0.04678570720622217
23.52074,8.082988520530384,0.04673411026579632
23.524772,8.045404719004289,0.046687132516783
23.52882,8.005239991753092,0.04663452227549587
23.532856,7.967766915126932,0.04658122864824292
23.53694,7.928610129650684,0.046521800406665724
23.541024,7.889674793974304,0.0464515227892373
23.5451,7.849731516522979,0.046385392190161905
23.549132,7.807883080421695,0.04632415192907312
23.55316,7.760994935445678,0.046288962876889474
23.557196,7.7139960655697255,0.04625908630800263
23.561284,7.665878529018891,0.04623966996480271
23.565372,7.613950675168141,0.046228611668366414
23.569464,7.566730355492319,0.04620705031620916
23.57354,7.5140160096664905,0.046190530471442615
23.577588,7.461080214040793,0.04618486269675534
23.581616,7.408587318014835,0.04615603271156079
23.585704,7.351165438014078,0.046148764459400644
23.589792,7.290265415413211,0.04613560755528871
23.593872,7.232278493237246,0.04611108585212394
23.597908,7.1659951693863055,0.04609685878903655
23.601948,7.102624945960272,0.04607103558927299
23.60598,7.035665855034189,0.046044451351412
23.610072,6.965007171708125,0.04602228437967624
23.614164,6.886838578682162,0.0460175859712995
23.618252,6.802733059906452,0.0460437018016271
23.622288,6.715714440705837,0.046082253163783116
23.62632,6.623988287330295,0.04613336513242652
23.630408,6.530578425104664,0.046179280001722
23.634496,6.437611462478771,0.04620130116785576
23.638588,6.34318224080266,0.04620222755038972
23.642684,6.2452748765264365,0.04619672327564408
23.646772,6.137952443900355,0.04621764628147165
23.650856,6.022112159799429,0.04626921151300228
23.654944,5.907501267273317,0.04629821031515821
23.659032,5.791317390797053,0.04631239553255373
23.663116,5.6708802974211325,0.046371616933456976
23.6672,5.549656712070133,0.04642929114065645
23.671284,5.426417243169242,0.04650804205691361
23.675364,5.29757302321841,0.046604585260680426
23.679452,5.168618078367643,0.046718878541273524
23.68348,5.036074266016829,0.04683064920144579
23.68752,4.8980364275160095,0.04695781558232697
23.691608,4.758093430365229,0.047101603203765455
23.695632,4.622071475414303,0.04722315499169612
23.699712,4.485595203188104,0.04731554522615953
23.703744,4.346538005236804,0.04740478837463658
23.707772,4.208599473960386,0.047475378548646974
23.711752,4.069763725808955,0.047548784205570974
23.71584,3.927228385257543,0.04763358976321597
23.71988,3.784360870006327,0.047753596305107525
23.723964,3.6442957302800805,0.04786041888910036
23.728052,3.5098353416037753,0.04795563183712551
23.732152,3.379406720027257,0.04801051896242795
23.736136,3.247859431775856,0.04808571549775918
23.740172,3.117098635499533,0.04817285290870821
23.744268,2.984986305072925,0.048215698069536066
23.748368,2.8539926413211987,0.048227778972938624
23.752464,2.7280386864442057,0.048144700848513064
23.756464,2.605784323967195,0.04804778473263674
23.7605,2.486664511714959,0.04786871397702237
23.764584,2.3619399484127825,0.04771133944683019
23.768636,2.2427094112606127,0.04753132032586575
23.772724,2.127289191408359,0.04728842020011505
23.77676,2.0118689715561056,0.046999874161746676
23.78074,1.9036264867039465,0.04667487353273524
23.784796,1.7990835942517702,0.046273882133640254
23.788832,1.6925248182497,0.04386536679790186
23.79286,1.5896656346476121,0.04145434669555975
23.796948,1.4911818105206485,0.0390397477869102
23.801032,1.394713869943578,0.036605826022459674
23.80506,1.298024479566638,0.03418619412711141
23.80904,1.2041374647146685,0.031763448827913106
23.813016,1.1121556085126574,0.029356278170436883
23.817008,1.0248812864855754,0.02694632302491588
23.821052,0.9395121231084513,0.024533815210460424
23.82514,0.8612099698314872,0.022138800091209426
23.829188,0.7919907102045763,0.01976507933133465
23.83328,0.7250202016029614,0.017466389126530018
23.837316,0.6562552592513228,0.015170249306497264
23.841352,0.5918656763748085,0.012933428272167431
23.845436,0.5392506377733827,0.010684128308261057
23.849524,0.4931375670969094,0.008442916004907625
23.85362,0.45128913099562545,0.006249178691931703
23.857648,0.4128081125945191,0.004111353184694766
23.861732,0.3732084275185311,0.0020193956047726246
23.86582,0.3388813187926793,0.0
23.8699,0.3137478286168154,0.0
23.873984,0.291305989065987,0.0
