Time,Force,Position
29.826896,0.18170980581112928,0.0
29.830948000000003,0.17912888008602867,0.0
29.83506,0.17295908686088077,0.0
29.839156,0.16678929363573286,0.0
29.843208,0.16162744218553166,0.0
29.847312,0.15915724136036594,0.0
29.851364,0.15646559073533048,0.0
29.855412,0.145366813535384,0.0
29.859452,0.13707041186040786,0.0
29.863508,0.12597163466046138,0.0
29.867492,0.11204516943127753,0.0
29.87154,0.10217578380614749,0.0
29.875580000000003,0.09230639818101743,0.0
29.879608,0.0833342294308992,0.0
29.883636,0.07422602327657914,0.0
29.88768,0.06489636732238932,0.0
29.891732,0.05747187001815799,0.0
29.89578,0.052088568768087054,0.0
29.899872,0.04556128833886757,0.0
29.903956,0.04082844165967174,0.0
29.907988,0.03620631988041078,0.0
29.912028000000003,0.03169492300108469,0.0
29.916112,0.029985901646728933,0.0
29.920192000000004,0.02637172164241466,0.0
29.924288,0.021749599863153692,0.0
29.928372,0.015222319433934211,0.0
29.932468000000004,0.008805763904649603,0.0
29.93652,0.006986017650358979,0.0
29.940608,0.004158329621121662,0.0
29.944596,0.003346525141777732,0.0
29.9487,0.003346525141777732,0.0
29.952796000000003,0.0023132708625640606,0.0
29.956892,0.0012800165833503894,0.0
29.960984,0.00013603740420184792,0.0
29.96508,0.00013603740420184792,0.0
29.969112,0.00013603740420184792,0.0
29.973204,0.00013603740420184792,0.0
29.977296,0.0,0.0
29.981332,0.0021519209540952363,0.0
29.985376,0.005311783683137167,0.0
29.989356,0.008360921512244227,0.0
29.993396,0.013204493091374931,0.0
29.997496,0.01692939799562407,0.0
30.001536,0.020654302899873214,0.0
30.005568,0.026173641554146004,0.0
30.009596,0.034606080633324,0.0
30.013628,0.042030577937555304,0.0
30.017608,0.048668583266709656,0.0
30.02164,0.05519586369592913,0.0
30.025684,0.06553346142506565,0.0
30.029724,0.07878415957910738,0.0
30.033764,0.08811381553329721,0.0
30.037808,0.09923790523751067,0.0
30.041912,0.10946477806671231,0.0
30.046008,0.12249402642088429,0.0
30.050048,0.13653121655000297,0.0
30.054056,0.15247356532908016,0.0
30.058108,0.1657242634831219,0.0
30.062152,0.17480715713317502,0.0
30.066188,0.18277138410834654,0.0
30.070188,0.193870161308293,0.0
30.07424,0.2032852296581507,0.0
30.078272,0.21504835625770644,0.0
30.082368,0.227708699732274,0.0
30.086412,0.23767739258180604,0.0
30.090456,0.24754677820693619,0.0
30.094456,0.2613600413829838,0.0
30.098436000000003,0.2802472664603635,0.0
30.102436,0.306678654264241,0.0
30.106484,0.3362902629950248,0.005751124674214481
30.110564,0.37144156857794586,0.012138784849148784
30.114548000000003,0.42076114738778486,0.018836605644105203
30.118596,0.47977433272501563,0.025817948595717143
30.122628,0.5486032671651059,0.033341782992164
30.126668,0.6288209346582094,0.04100334159241576
30.130772,0.7228975360294919,0.048770403563631604
30.134876,0.8307223463790188,0.0565991381082544
30.13898,0.9580222593321981,0.064518916814572
30.143084,1.1046865499890952,0.07252914037707867
30.147188000000003,1.268477884999947,0.08065798614294765
30.15124,1.4505263487151678,0.08877769483505417
30.155292,1.6526263748847811,0.09693880286211601
30.159324,1.8761294976590717,0.1050910509465538
30.163324,2.122043658812985,0.11323670334009855
30.167372,2.395973609396463,0.12128647308498185
30.171404,2.6881492710087773,0.12935317403730312
30.175504,2.999112850474069,0.13738612777061374
30.179588,3.331766030541711,0.1452880073004139
30.183576,3.678133166560998,0.1531186790409125
30.187628,4.036076232406573,0.1551644922384452
30.191668000000004,4.403002884677799,0.1565281176154286
30.195712,4.775434980774563,0.1575557644640342
30.1998,5.151566669271309,0.15826886392932818
30.203884,5.535529024492226,0.1583659762947044
30.207960000000003,5.916666168837108,0.15831599554696957
30.212,6.293515843255734,0.15815586069147416
30.216028,6.66360784692294,0.15794333889366552
30.220112,7.024460561338024,0.15764656379995462
30.224096,7.3778570025754835,0.15722163246456727
30.228184,7.726477403584814,0.1565988953088164
30.23222,8.059776611665749,0.15596994594471
30.236252,8.379991960168045,0.1552662604944574
30.240288000000003,8.684198930991272,0.15452809258104772
30.244376,8.972053931760087,0.15373999957525447
30.248464,9.235936327874656,0.15303417813578363
30.252552,9.483921071210089,0.15227265312618024
30.256644,9.715454537266709,0.15150220700859454
30.26068,9.921686699869868,0.15086423148376665
30.264768,10.109352394419917,0.15027873355265908
30.268856000000003,10.281929763516969,0.14970074531008543
30.272944,10.440548891511437,0.14914250304592674
30.277036,10.585885545478467,0.14859646264516338
30.281072,10.718615492493202,0.14806348226727556
30.285104,10.837066441381083,0.14759063394351804
30.28918,10.948072534766869,0.14708452258629745
30.29326,11.051523047750623,0.14654817848568572
30.29734,11.149212414082369,0.14596367564803753
30.301424,11.243500109687341,0.14532262273833677
30.305504000000003,11.32844920881579,0.1446977710082573
30.309584,11.400592986543138,0.14414613500380338
30.313664,11.464417527244446,0.14361776506867638
30.317744,11.523622423319694,0.1430830407564619
30.321832,11.577764775169141,0.1425590973574128
30.325864,11.62079693214311,0.14211306001421525
30.329888,11.661347470616382,0.1416547962503387
30.333920000000003,11.694708856414024,0.14123001890860884
30.337996,11.723794189960945,0.1408091385693453
30.34208,11.750176455207297,0.1403814154955425
30.346116,11.773966377053018,0.1399447138813174
30.350144,11.793369521748081,0.13951326012686216
30.354236000000004,11.809172381267562,0.13908426750961655
30.358328000000004,11.823390839161355,0.1386344746111891
30.362420000000004,11.834009011879571,0.13818584302067563
30.36642,11.842256290997023,0.13771851472924318
30.370452,11.845452443564206,0.13728120178834052
30.374436,11.844716136256006,0.13685750070279795
30.378436,11.841620353022575,0.13644260101390238
30.382484,11.834259935213955,0.1360539233020718
30.38648,11.823310649905286,0.13569120579519833
30.390524000000003,11.810899105546401,0.13532809181739022
30.394568000000003,11.802630053187237,0.13491607910868034
30.398564,11.79066140842809,0.13453509713581635
30.40256,11.776001113043906,0.13417366249059834
30.406604,11.767167018509532,0.1337543065255465
30.410684,11.756538490225138,0.13334768998621152
30.41472,11.74759367079083,0.1329311834679257
30.418696,11.734284909556933,0.13257024687858887
30.422748,11.724675740723017,0.1321781595283802
30.426844,11.713837180314286,0.13180483537242912
30.43088,11.703563662080763,0.13143719971179985
30.434932,11.69116353539741,0.1310946251758608
30.439036,11.677423292239304,0.13077543812015913
30.443088,11.663350874381393,0.13046831534148176
30.447192,11.645811731598902,0.13020992436152226
30.45124,11.62603525546665,0.12998101886489385
30.455272,11.607499588584746,0.12976018102133552
30.459368,11.584821429703121,0.12958639608879036
30.463368,11.56091387924668,0.1294313933846497
30.467364,11.541381688265362,0.12924775372162944
30.471456,11.527908565609259,0.12902733937968827
30.4755,11.509174284278552,0.12886895421836927
30.479592,11.490329278047911,0.12871435692698444
30.483636,11.467009605117743,0.12862052603603696
30.487688,11.439325990387983,0.12858296407878875
30.491784,11.41198596803356,0.12856060961488558
30.49584,11.386218929629292,0.12853332398281625
30.499924000000004,11.365159425399952,0.12846474012168876
30.504016000000004,11.343657021570873,0.12841283657386993
30.50806,11.32350615189208,0.12836541303798268
30.512104,11.301904440838598,0.1283462496430743
30.516140000000004,11.285575306135252,0.12829268222447068
30.520236,11.26902472163204,0.12824765826186285
30.524268000000003,11.256849496603948,0.12817491179859355
30.528372,11.250168297725864,0.12805964064175343
30.532472,11.250886283647747,0.12788509861271427
30.536564,11.249588386019731,0.12773174183026284
30.5406,11.255689673191682,0.1275194186312876
30.544696,11.266731362013964,0.12728767256875081
30.548792,11.277551601036375,0.12706551869238078
30.55284,11.282656364108915,0.12689417403921407
30.556936,11.296168253756361,0.12665493015439092
30.560988,11.313047561103986,0.12640034139728754
30.565076,11.342476487026245,0.12603251320401337
30.569168,11.380755439123153,0.1255823657968852
30.573200000000003,11.424074100094796,0.12508364283115786
30.577252,11.46649554419143,0.124592758952967
30.581292,11.510711422038082,0.12409406934206159
30.585344000000003,11.552014199459828,0.12362185352305372
30.589424,11.595554310231343,0.12312321380749407
30.593476,11.642339696127562,0.1225861510251585
30.597564,11.687552098073633,0.12205654741280926
30.601604,11.735677600444605,0.12150312329143499
30.605692,11.781222177090477,0.12096616214233441
30.60978,11.827209653336089,0.12041709242562369
30.613868,11.869043219906446,0.1198876025666954
30.6179,11.91703516202642,0.11929889787676491
30.621928,11.959754527796253,0.11874220263972879
30.626016000000003,11.996746999940683,0.11820451832153855
30.630096,12.03115854636001,0.11767928392277666
30.634176,12.071728468328955,0.11709561345439301
30.63826,12.108033755722706,0.11653528889409885
30.642348,12.142090292091163,0.11597640991641205
30.64644,12.16885836855959,0.1154681424928661
30.650516,12.188337985127987,0.11500831179744513
30.654604000000003,12.20232357554638,0.11458466657217456
30.658692,12.215744123789566,0.11415440520733276
30.662788000000003,12.22490003745756,0.11374215937859157
30.666884,12.235506792500242,0.11330441769591434
30.670912,12.245437780467785,0.11286560537542664
30.674944,12.254693001360181,0.11242493553796898
30.679028,12.260470079652467,0.11199963775296225
30.683104000000004,12.263322639844315,0.11157050794701012
30.687188000000003,12.264934390785811,0.11113107745905812
30.691268,12.26183860755238,0.11072329167481165
30.695352000000003,12.256616215869123,0.11033589898536925
30.699388000000003,12.245113306060778,0.10998151428705007
30.703480000000003,12.2358477296022,0.10960168826627954
30.70756,12.230946094943212,0.10917571470081217
30.711644000000003,12.229621910108738,0.10870482833903494
30.715732,12.221341440074042,0.10826251778957408
30.71982,12.209693552339166,0.10782915723140278
30.72382,12.197480622429083,0.10738767496351523
30.727852,12.185932041918612,0.10692221126996522
30.7319,12.17740728673298,0.10643184562558224
30.735956,12.168317489372138,0.10593265039857332
30.740048,12.160457083586115,0.10541739331881532
30.74414,12.150912968950001,0.10490493294563788
30.748188000000003,12.141701029013694,0.10438030929332748
30.752276,12.130694655327364,0.10386431623287147
30.756376,12.117783122991074,0.10335999474283619
30.760424,12.107673966179753,0.10283845581930476
30.764476,12.10160799414375,0.10231263644250421
30.768508,12.09700428115797,0.10179004670383862
30.772608,12.095424393497028,0.10124309235101647
30.776704,12.098773489810885,0.10066085328568922
30.780736,12.102466178500077,0.10009251219193332
30.784764,12.10392153383951,0.09954759714410287
30.788808,12.103704598004386,0.0990349145205974
30.792892,12.104728471419612,0.0985360639177331
30.796992,12.109574079810285,0.09804085782611757
30.80104,12.117565656101267,0.09754512150012175
30.805088,12.128703200292557,0.09705076593798191
30.809184,12.140073611959252,0.09657653498101465
30.81328,12.145396372976265,0.09614667553564442
30.817256,12.155770260543546,0.09570723225562552
30.821292000000003,12.165701248511086,0.09528402959103455
30.82532,12.18169130480384,0.09484405105768709
30.829412,12.199819387221954,0.0944140287613221
30.833468,12.21492364431523,0.09400511359628612
30.837504,12.233616768908549,0.09358335100793459
30.841536,12.251977718802067,0.09317399537809913
30.84546,12.265520409620718,0.09279413602115068
30.849548,12.278841650639501,0.09242256927288327
30.853532,12.291719992058544,0.09206692774053486
30.857612,12.304266158777784,0.09172459696021316
30.861700000000003,12.322638526346836,0.09134923875163152
30.865788,12.343591819640983,0.09096845401476801
30.869836000000003,12.366228821785223,0.0905865634310769
30.873868,12.385952723504555,0.09022347340957376
30.877896000000003,12.405787350123823,0.08985814015062077
30.88198,12.427637860292986,0.08948088345123621
30.88606,12.449599095362084,0.08910233832178481
30.890148,12.471338880631313,0.08873186705482675
30.894228,12.501485792475448,0.08832430869092445
30.898256,12.528941053694552,0.08792784968769365
30.90234,12.559087965538689,0.08752490594492866
30.90642,12.586653951657725,0.08712928933566563
30.910448,12.613765620501491,0.08672450895676373
30.914528,12.645584823520185,0.08629872457726505
30.918564,12.679309185188838,0.08586778217547544
30.922548000000003,12.714262938432306,0.08542530823010194
30.92658,12.753359183675496,0.08495592875487909
30.930668,12.791890386743482,0.08447979008596583
30.934756000000004,12.831318806686475,0.08400263196879225
30.938792000000003,12.86816630090437,0.08353175633061125
30.942736,12.901092752922409,0.08308470902507485
30.946832,12.93424065474032,0.0826326989998484
30.95092,12.963013197083107,0.08219036878924257
30.955008000000003,12.991109972350753,0.0817443102318372
30.959096,13.018309530743386,0.08130217979273975
30.963188,13.04382538028593,0.08086350169954527
30.96728,13.063736478778534,0.08044627704170566
30.971308,13.084090476870877,0.08001610268986584
30.975396,13.099958390588162,0.07959947582896487
30.97948,13.11503981233037,0.07918221113712402
30.983568,13.1267538163724,0.07876852863963944
30.987652,13.136451936864534,0.07836616297187776
30.991684000000003,13.144023448906843,0.07797917519671067
30.995712,13.152713627624033,0.0775848226574504
30.999792000000003,13.152885954866377,0.07722327953057934
31.003872,13.152947557208787,0.07686602219897261
31.007952,13.147969450676463,0.07653596216328093
31.011936,13.146469486744252,0.07620190271483684
31.01602,13.145412422411777,0.07585514751509159
31.020104,13.144355358079308,0.07550824044729511
31.024188,13.142622526671692,0.07515657474924532
31.028224,13.137190102864098,0.07481565432763444
31.032212,13.135567996356416,0.07446026749649104
31.036308,13.13484310672375,0.07410310253048001
31.040392,13.13344245001594,0.07374116937378808
31.044416,13.130812401733314,0.07339109930627798
31.048512,13.13188194585067,0.07302981161346636
31.052552,13.1308248815182,0.07268194441208599
31.056584,13.131672975835688,0.07232762564043856
31.060620000000004,13.13330756212825,0.0719750392671088
31.064676,13.132815539970986,0.07163523705763267
31.06866,13.135568792938432,0.07127392799827648
31.072692,13.137203379230993,0.07092048099333188
31.07674,13.136711357073729,0.07058114671432374
31.080828,13.143053477541223,0.07021365759377828
31.084924,13.145585280708795,0.06985906063538438
31.08902,13.150354417226136,0.06948742810054842
31.093108,13.149518802693535,0.06913207219294466
31.097192000000003,13.14666730461104,0.06878672635909779
31.101236000000004,13.1453887904787,0.06844526017078227
31.105316,13.145118218121304,0.06809914713754642
31.109348,13.148657963063826,0.06774061416558592
31.113348,13.15007109955652,0.06739518345440586
31.117376000000004,13.151484236049212,0.06705014359773283
31.121460000000003,13.154581081391997,0.06670612835251165
31.125488,13.161598968934632,0.06634794238279966
31.129520000000003,13.17343511555213,0.0659754984183321
31.133608,13.190986738119502,0.06558703805293238
31.137696,13.206411752237049,0.06521154960665008
31.14178,13.221947491254532,0.06483358741784115
31.145864,13.23938838892197,0.06444957376802574
31.149892,13.2561649371898,0.0640863267618109
31.153928,13.277083977457352,0.06370326169772719
31.158024,13.298003017724902,0.06332101749204046
31.162056000000003,13.315787507767679,0.06295607030048378
31.166148000000003,13.337271590210435,0.06258381538534678
31.17018,13.360107206803479,0.062223090696953906
31.174164,13.386642415796505,0.061855317984508884
31.178256,13.413742666964737,0.0614967017279344
31.18234,13.439159209282883,0.06113771395752677
31.186428000000003,13.464354301801157,0.06078617409978308
31.190520000000003,13.489892986694766,0.06045111449975053
31.194552,13.51744755513827,0.060108774642751946
31.19864,13.544669948881971,0.0597767582720453
31.202732,13.5716708928258,0.05945243450683548
31.20682,13.593853577694766,0.05914297293225379
31.210908,13.610210061713923,0.05885268053123481
31.215,13.619843128008256,0.05858118644805506
31.219092,13.630262686277664,0.05831216620262004
31.223180000000003,13.638112736497508,0.0580663795916996
31.227268,13.650005971492671,0.05783003733708383
31.23136,13.662574973562975,0.05759983854352263
31.235452,13.671123626209027,0.057409354448453326
31.239548000000003,13.682375347155645,0.057241309355890495
31.243636,13.696330136402835,0.057095322189518787
31.247664,13.712987993950591,0.05697179387765852
31.251744,13.732348919798914,0.0568703786656081
31.255776,13.756207347697831,0.05678986478474291
31.25986,13.782547394097445,0.0567369674435452
31.26394,13.813728534922989,0.056718625044876986
31.268020000000003,13.848632103499583,0.05674120227316268
31.272056000000003,13.885009348801924,0.056794277355896136
31.276084,13.923990355180432,0.05689430626114347
31.280064,13.967591006185005,0.0570331621112266
31.284148,14.014471185340884,0.05722282441057301
31.288232,14.068219760148118,0.05746004537158391
31.292256,14.128726005706772,0.057746895975361194
31.296348,14.199689514416828,0.05807661713177714
31.300332,14.277521418778242,0.05845124251189008
31.304424,14.369166586315703,0.058846096949109486
31.308512,14.468012324204324,0.05927386304938889
31.312548000000003,14.575742341294193,0.05973528474117538
31.316636,14.696277679785165,0.060216832807966095
