Time,Force,Position
25.353904,0.0013504384367519996,0.0
25.357932,0.0013504384367519996,0.0
25.361968,0.0013504384367519996,0.0
25.366016,0.0013504384367519996,0.0
25.37006,0.0013504384367519996,0.0
25.37406,0.00022661078087008815,0.0
25.378148,0.00022661078087008815,0.0
25.3822,0.0,0.0
25.386192,0.0,0.0
25.390272,0.0,0.0
25.394196,0.0,0.0
25.398292,0.0,0.0
25.402288,0.0,0.0
25.406388,0.0,0.0
25.410436,0.0,0.0
25.414532,0.0,0.0
25.418576,0.0030632393324389866,0.0
25.422632,0.011410472690546895,0.0
25.426736,0.021796424949613896,0.0
25.430836,0.036015529859663636,0.0
25.434936,0.05597294607065464,0.0
25.439028,0.0802178322079007,0.0
25.443128,0.11312554774652611,0.0
25.44722,0.1524587593367677,0.0
25.45132,0.201584884678803,0.008613640008059744
25.45542,0.2594959819976854,0.017199239085113373
25.459464,0.33045668586860416,0.025448758789879178
25.463496,0.41424554649168965,0.0335305726182369
25.467596,0.512214098017226,0.04149570029098185
25.471644,0.6226786315951244,0.049439265702050456
25.475696,0.7488958400256274,0.057270655122444156
25.479792,0.8916522152838122,0.06499944396733455
25.483888,1.0515127995448859,0.0726667470099393
25.48792,1.2281454181090439,0.08032921161149639
25.492008,1.4223365629513631,0.08797676288747186
25.4961,1.6317267581466126,0.09564197646077136
25.500188,1.8520233727875373,0.10337934927021716
25.50422,2.0872861703059895,0.11103995235071376
25.508264,2.339531034251863,0.11868355312773878
25.512264,2.6074178481504062,0.12633305713176385
25.516304,2.886693395101963,0.13406359495064218
25.520348,3.1830617333808764,0.14175569443345484
25.52434,3.4903530697619973,0.14944214168957515
25.528424,3.8141607376197344,0.15704040247282536
25.532448,4.146963409578657,0.15598738792186767
25.536536,4.488085318563622,0.15494499004267956
25.540532,4.829894412299262,0.15425493881280822
25.544568,5.172268548210107,0.1537279395502071
25.5486,5.513291149970671,0.15330591755604459
25.552692,5.855997460581323,0.152897088223778
25.55678,6.197573686841562,0.15257012388658522
25.560872,6.5317393106263015,0.15238059592150588
25.564968,6.858372189360076,0.15226445288762808
25.568952,7.178025947542561,0.15215399209598326
25.57304,7.493270093223326,0.15200083134857698
25.577124,7.803883176602494,0.1517965893676539
25.581212,8.111648213754561,0.1514634871208534
25.585304,8.404225618229233,0.15120157982829324
25.58934,8.683398406100997,0.1509271125275977
25.593376,8.947360725944296,0.15061509191656267
25.597464,9.196887652058678,0.15019759291992618
25.601548,9.427947417344352,0.14978490389351776
25.605632,9.641547963576269,0.14934783347220823
25.609712,9.830412248529928,0.14901486368389455
25.613788,9.999591398755598,0.14872752516473992
25.61778,10.154468715503349,0.14842901650598145
25.621812,10.298300891573422,0.14809058912805062
25.625896,10.433225953091181,0.14771790085859987
25.629984,10.561824825781727,0.14729437889797994
25.63408,10.675457515594744,0.14688221802924525
25.638108,10.775697006480385,0.14647920653125254
25.642184,10.870839700113631,0.14599354722670135
25.646216,10.954837945844798,0.14550175116925507
25.650296,11.028588960548898,0.14499845815712106
25.65438,11.090420453051378,0.14453189555383164
25.658468,11.141118915327313,0.14409258951823806
25.66256,11.180352172676896,0.1436948023161953
25.666608,11.213060626750465,0.14330372451853285
25.670588,11.240595811698299,0.1429241676759274
25.674672,11.265206478545691,0.1425509876752542
25.67876,11.289584277917683,0.1421609849482256
25.682792,11.30980816761442,0.14179657832295015
25.686876,11.324870205860957,0.1414685005145713
25.690912,11.342391027257127,0.1410975560968953
25.694944,11.362370631802929,0.1406846349141432
25.69898,11.377520559598336,0.14029472054394707
25.703076,11.389745969293303,0.13990864911385092
25.707164,11.394117876913032,0.1395809183612111
25.711208,11.387723182032623,0.1393426155425858
25.715204,11.382668603626962,0.13907858934837436
25.71918,11.375033099496202,0.13883193775668312
25.723264,11.360219860365348,0.13864377420369792
25.727348,11.35055705500916,0.1383917896336276
25.731432,11.33999703277796,0.13814654135610535
25.73552,11.32595886794665,0.13792539828846348
25.739608,11.311023486240328,0.13771105334026165
25.743696,11.298669030259108,0.1374793202116107
25.74778,11.289006224902916,0.1372257224805608
25.751808,11.279454144446666,0.1369674803991625
25.755804,11.269004847115404,0.13671639527592164
25.7599,11.255753174259167,0.13649092199636675
25.763948,11.242280051603064,0.1362738279652271
25.768,11.233182288422086,0.13602537095773048
25.772036,11.222965858566225,0.13579269494817936
25.776128,11.208606936710643,0.1356102833527393
25.78016,11.196718215680225,0.1354152860601869
25.784252,11.187188970575038,0.13521271491843992
25.788304,11.181580767669704,0.13496815509798035
25.792308,11.180569374039363,0.13468319364736123
25.796364,11.18124168925911,0.13438948890065275
25.800396,11.184384205304026,0.13408392730718768
25.804496,11.19369651457409,0.13373442974653288
25.808584,11.198534157144625,0.13344959241550078
25.812668,11.209652317840243,0.1331182721316954
25.816652,11.224027171336104,0.13277287649417516
25.820748,11.243785326082035,0.13238816158996086
25.82484,11.260408930603193,0.13204236997372776
25.828864,11.274119434699445,0.13172570125670405
25.832948,11.290189414720928,0.1314039319996706
25.837044,11.30682443691762,0.1310896343311391
25.84104,11.327724093689499,0.13075308008986994
25.845132,11.351093951286543,0.13040570847510902
25.849184,11.376934009708753,0.13005038932995133
25.853288,11.40502281915626,0.12969413307597272
25.85734,11.44051081340373,0.12927904540427695
25.861364,11.476453124926476,0.12887621775731942
25.865448,11.508695844049237,0.12850421140018728
25.869492,11.541171430647399,0.12815304609256498
25.873572,11.572417625670747,0.1278213207866446
25.877656,11.604118137969367,0.12750335315318528
25.88174,11.636715867142998,0.12718097842563333
25.885816,11.670210813191643,0.12685629383339517
25.889908,11.705610917890246,0.12651515765559013
25.89396,11.73720070528893,0.12621049367651663
25.898048,11.769909159362495,0.1258930724513417
25.902028,11.7977993543612,0.12561997011681272
25.90608,11.82972131645969,0.1253073631393424
25.910168,11.87027185493296,0.12492369627260226
25.914252,11.906225584131237,0.1245746426391012
25.918344,11.939598387604413,0.12423906091669318
25.922436,11.970168815552618,0.1239278885701241
25.926524,11.99984202662581,0.12362316045687163
25.930616,12.02603709509889,0.12333937793150036
25.934652,12.049872687646738,0.12306103127434849
25.938752,12.067317037169573,0.12282797604371393
25.942844,12.088903878692127,0.12255400007510696
25.946932,12.112063704164836,0.12227658516791266
25.950984,12.134990662162142,0.12198094531993385
25.95508,12.162170837059106,0.1216398929939921
25.95918,12.186315768955694,0.12130194215908151
25.963272,12.207990500027119,0.1209733669435438
25.967368,12.22428192984847,0.1206787795773357
25.971408,12.24123770906943,0.12036120685406398
25.9755,12.255723287465228,0.12005194022214982
25.979588,12.264825564610952,0.11977485026695797
25.983672,12.274592191156286,0.11947337405386614
25.987704,12.281888616876454,0.11918120466635017
25.991744,12.277975540496744,0.11896924618076544
25.995836,12.278315681016686,0.11871234837386574
25.999932,12.281790371761407,0.11842377794844004
26.004028,12.281897644805948,0.11814786351880523
26.008116,12.283677209025043,0.11783925423435176
26.012144,12.28578894794395,0.11751899222604331
26.016176,12.290138020212611,0.11717293509119282
26.02026,12.295827208956029,0.11680537926060303
26.024344,12.293330720924402,0.11648824715239614
26.02842,12.290822815217243,0.11614435359004267
26.032504,12.286631200659997,0.11580632772853097
26.036548,12.277167009752613,0.11549449504991176
26.040576,12.269042935319982,0.11516167992080345
26.04462,12.260575268512014,0.11481344237252919
26.048712,12.251874734228643,0.11444530119387294
26.05274,12.237790898695202,0.11410571165289848
26.056736,12.224039237861563,0.11375327252058938
26.060824,12.214430069027648,0.11336044717528614
26.064884,12.20672605884369,0.11295402454638298
26.06892,12.196330398034698,0.11256141131204046
26.072952,12.188282795475402,0.11213717399417991
26.07694,12.175638383641115,0.111740865930843
26.081044,12.161531712756604,0.11134208794833336
26.085148,12.149662375221858,0.11091682733183574
26.08924,12.139698196337072,0.11047935707028611
26.093332,12.127828858802326,0.11005463353370308
26.097316,12.11595952126758,0.10963044814944381
26.101352,12.10610606728273,0.10918934956454006
26.105328,12.098157771947836,0.1087335644085072
26.109412,12.091671735663164,0.10828075523123554
26.113408,12.087766625103589,0.10781835324471556
26.117456,12.089134090894152,0.10733363433028978
26.121504,12.088939990410093,0.10687698713616235
26.125476,12.089875974276449,0.1064348421626077
26.129556,12.094522968218321,0.10599841096339672
26.133604,12.107023464235427,0.1055312133383257
26.137588,12.120986219302754,0.10506723636430992
26.141624,12.135514016545287,0.10461217421453871
26.145656,12.15004181378782,0.10415909744194889
26.149592,12.166142594980512,0.10370473586223239
26.15368,12.186508010748385,0.10323804673880209
26.15772,12.211248785991389,0.10275533166884301
26.161756,12.23723037048474,0.10228530048545348
26.165788,12.26165038870347,0.1018424530504131
26.169872,12.281817190022542,0.10144097205678157
26.173952,12.301762541541745,0.10104654821688033
26.17798,12.317676125961164,0.10068378990776695
26.182012,12.330344435255867,0.1003527472052415
26.186052,12.345593670275676,0.10001406158175205
26.19008,12.36016713822034,0.09967285134120712
26.19416,12.374851331064939,0.0993292517159264
26.198244,12.384938714634545,0.09900965595095408
26.202328,12.39625548977897,0.0986751395999895
26.206356,12.406785772948314,0.09834077246926573
26.210396,12.4151780299923,0.09799950424440096
26.214424,12.419870694636302,0.09767835839068399
26.218508,12.42557130105525,0.09735042722265681
26.2226,12.431382632374136,0.0970197642324314
26.226688,12.434059413468244,0.09671505663780408
26.230728,12.439538570087324,0.09639649613526198
26.234764,12.445349901406205,0.0960683420305741
26.2388,12.447572365225042,0.09575450814763155
26.242892,12.44811112019379,0.09544415273938082
26.24698,12.453800308937206,0.09509512975334962
26.251072,12.456122079980442,0.09475111391275515
26.255116,12.463594284798354,0.0943687755917563
26.2591,12.4740903149411,0.09396488107533305
26.263132,12.487610170408686,0.09354016147068628
26.26722,12.498770549951045,0.09311481171592845
26.271256,12.509820204593469,0.0926940628427688
26.275344,12.518178208610852,0.09228354535411983
26.279376,12.527544154403186,0.09186584618013115
26.283404,12.53421844957048,0.09145755412499947
26.287484,12.541224919437582,0.09103821572291484
26.291572,12.548907156379824,0.09062345496670991
26.295652,12.55512713427185,0.09020393961083042
26.299736,12.556185260713672,0.0897950987243098
26.303776,12.554441011630525,0.08939929488807477
26.307804,12.553250387047054,0.08898431077894035
26.31188,12.54858161986347,0.0885781358127875
26.315968,12.540102535379969,0.08819153832510788
26.320052,12.534425826421437,0.08779225635773491
26.324036,12.526843958812947,0.08740160694646996
26.327952,12.513657340154515,0.08703588134104896
26.33194,12.50596474764609,0.08664814524715284
26.336036,12.491548737412844,0.0862949088093313
26.340132,12.475338293429575,0.08594675410209959
26.344224,12.45823063257129,0.08560140482102957
26.34832,12.444933289012925,0.08523751779470584
26.352304,12.4297307868046,0.08488216309337754
26.356288,12.416322718346297,0.08452082342123057
26.36038,12.404487633838151,0.08416132023345048
26.364464,12.394336258180092,0.08379917690741048
26.368552,12.385757866472186,0.08343906166355497
26.372644,12.37538504101426,0.08308372781628935
26.37662,12.36647447460655,0.08273363513091057
26.380612,12.363622976524054,0.08237227252543397
26.38464,12.365479012616486,0.08199166407777915
26.388724,12.36969452463415,0.08161462837006161
26.392808,12.37660168727685,0.08123049414108309
26.396888,12.382390183244665,0.0808550963070129
26.400972,12.385487028587448,0.0804872608507731
26.405004,12.389481090805242,0.08011599140061558
26.409036,12.391237819673275,0.07976217879383464
26.413128,12.390081448116401,0.07942287473413813
26.417216,12.396434986259424,0.07905427660621786
26.421308,12.406488116802429,0.07867347484990649
26.425388,12.41575475537036,0.07829188900984183
26.429476,12.418973743288609,0.07794555428026063
26.433568,12.423200672981805,0.07759306244228105
26.437656,12.428324819550014,0.07723916108113323
26.441744,12.433670415918094,0.07687910559609949
26.445832,12.441818387811143,0.07650988415835866
26.44988,12.453100909928967,0.07612243653652506
26.453912,12.467407257371631,0.07571880013401458
26.457964,12.47924340398913,0.0753139993521349
26.462056,12.490403783531484,0.07490589752712197
26.466144,12.495848687123965,0.07452082262274985
26.470196,12.500507098741371,0.07413498905690047
26.474236,12.500457976183847,0.0737653065061039
26.478332,12.502314012276278,0.07338756699139756
26.482428,12.5058537572188,0.07300948472907132
26.48652,12.515441152811006,0.07260062612157595
26.490552,12.53477579145287,0.07215001766404552
26.494592,12.557134255419571,0.07168429069438936
26.498684,12.570974867911433,0.07124908742504685
26.502772,12.58179165507845,0.07083060854663058
26.506804,12.591379050670653,0.07042403413185493
26.510896,12.60768986398768,0.06999223277629991
26.514992,12.62478716927978,0.06956283998511593
26.519016,12.641884474571883,0.06913511789218908
26.5231,12.659313954563789,0.06869898579859209
26.527132,12.672035900380765,0.06827794323461839
26.531216,12.677026486697972,0.06788698067246854
26.535304,12.680111914365224,0.06750307296551242
26.539344,12.687007659332389,0.06710665048099458
26.543372,12.691776795849727,0.06672384409051711
26.547412,12.698672540816894,0.06632743906128175
26.551496,12.706465502659071,0.06593060868839527
26.555496,12.717393014726028,0.06551537111768176
26.559524,12.732130844092898,0.06508954186687568
26.563608,12.748098065034583,0.06465359509598373
26.567652,12.75992279397655,0.06424186034654426
26.571744,12.76233245456866,0.06385632281868452
26.57584,12.762836956510808,0.06347694858616153
26.579928,12.769843426377909,0.06308250481660062
26.584024,12.77908722959478,0.06267310194651216
26.58812,12.792362799911428,0.062246757716593555
26.592212,12.80373321157812,0.06182797015077371
26.596248,12.816333014819632,0.06139938948967342
26.600336,12.829043542961077,0.06096902082371319
26.604432,12.83873024577768,0.060552076144027286
26.608528,12.854353874344032,0.060114042192855245
26.612612,12.874906486885179,0.0596584144410213
26.6167,12.89792930025149,0.05920819835580715
26.620732,12.920841388717866,0.05876334937738089
26.62478,12.947895969183968,0.05830094968931461
26.628872,12.972934666100176,0.05784654295193483
26.632968,12.996289654166292,0.05739167416871374
26.637,13.01942319243254,0.05694400588216046
26.641036,13.03874641339887,0.05650729206728793
26.645072,13.054037867265418,0.056086494395499314
26.649108,13.064621786957032,0.05567442551116902
26.653136,13.083391383423686,0.05525405138352459
26.657164,13.101718080290603,0.0548466865331837
26.6612,13.117696718907823,0.054457747390465445
26.665228,13.131781616550617,0.05409914077621459
26.669252,13.144869990093994,0.053770874843481
26.67328,13.15696183953796,0.053472069578526425
26.677316,13.168179307457978,0.05322449582303911
26.681344,13.179530335628996,0.05302432845563898
26.685384,13.196176775501218,0.05287433921032202
26.68942,13.21027654267494,0.052797655562255984
26.693448,13.225418504650204,0.05279155099846499
26.697488,13.241037619251806,0.0528464850771161
26.70152,13.25949336240498,0.05296962251328097
26.705552,13.276188924834727,0.05316648715027941
26.709584,13.300760824690775,0.05341220229070961
26.713616,13.325477702473359,0.053727418056276434
26.717648,13.355944309232415,0.05410075182990882
26.721676,13.38969044414278,0.05452806466339908
26.725708,13.431423641379384,0.05499934543317883
26.72974,13.48125462584216,0.05551223366559541
26.733764,13.53088699585613,0.056075831682757246
26.737748,13.584573968320957,0.056670519456819946
26.741772,13.638726675736585,0.05729939804195714
26.745824,13.690985642177793,0.057956405012702744
26.74986,13.738659217019535,0.05864347889599337
26.753896,13.783984733611582,0.059346988986823175
26.757896,13.82594283250345,0.06004677216807518
26.761884,13.861952587970041,0.06074284129262144
26.765916,13.88897875701098,0.06142247775686461
26.769948,13.910488064550847,0.06206297618607895
26.77398,13.923899584864543,0.06266377395295247
26.778008,13.93201569347704,0.06321817537795986
26.782044,13.929453089138258,0.06373320331997002
26.785984,13.919357739748515,0.06421889332390221
26.789968,13.898030052907822,0.06468166505815502
