Time,Force,Position
27.028248,12.6357766792057,0.055809407171731884
27.032336,12.728753997397773,0.05648913218518269
27.03642,12.826916002391112,0.05721501966353951
27.040508,12.921966292510747,0.057999881552540704
27.04454,13.019166026431272,0.05881586958210998
27.048624,13.115934278427591,0.059663295868596415
27.052708,13.21820797424945,0.060518923331703514
27.056792,13.313093902946877,0.0614055927783109
27.060876,13.406528990269619,0.06230166629588438
27.06496,13.49671880246765,0.0632078785857331
27.069043999999995,13.586232847590539,0.06410023605281712
27.073128,13.671150083438434,0.06499408422990038
27.0772,13.751237642535932,0.06586915003426141
27.081284,13.828167816057588,0.06670570432687002
27.085372,13.893987794703767,0.06753529226046506
27.089455999999995,13.954290911848876,0.06832161839107118
27.093544,14.008955024917443,0.0690452230122476
27.097632,14.050580949109506,0.06972450235455434
27.101683999999995,14.081971059950034,0.07035401353248497
27.105768,14.105584140588665,0.07091248276045228
27.109744,14.119293582575567,0.0714131651535086
27.113776,14.126577528510854,0.07185556122621849
27.117864,14.128111745469663,0.072243700505004
27.121948,14.12569066720202,0.07257663916004449
27.125976,14.113377367958186,0.07287967104174767
27.130076,14.097673815663107,0.07313567245698474
27.134176,14.074769693016865,0.07335683577746467
27.138276,14.04926180929446,0.07353377668066906
27.142384,14.018015614271112,0.07368357686937627
27.146428,13.977442240446777,0.07381397482798858
27.150528,13.926877338421841,0.07394392248626273
27.15458,13.872712151221325,0.07405840372643875
27.158684,13.807215319345463,0.0741883942424387
27.162736,13.735991593844195,0.07431655405671933
27.166836,13.665875117342269,0.07441361897002793
27.170867999999995,13.589699572515133,0.0745189667984609
27.174968,13.510721652163031,0.07463389012702296
27.17906,13.432419498886064,0.07475601676415718
27.183092,13.353330853634024,0.07487867659115213
27.187184,13.27200487503222,0.07501939642195364
27.191223999999995,13.18967095465547,0.07516629654456189
27.19532,13.10632909250377,0.07531991103016261
27.199416,13.01839042107708,0.07548780629428337
27.203448,12.929554532775377,0.07565897287965234
27.207536,12.84060791957374,0.07583697182155026
27.211587999999995,12.749866872622079,0.07601963954098347
27.215676,12.652513132845527,0.07623017589542685
27.219768,12.55393000149416,0.07645594109708785
27.223804,12.45265521951776,0.07669114618767722
27.227896,12.356087971716287,0.07691150223831016
27.231924,12.262323099439785,0.07712557961633021
27.236004,12.164969359663235,0.07735249154122964
27.240088,12.074449762511444,0.07754917581171389
27.244168,11.98583532400961,0.07774042712960715
27.248248,11.891394684657966,0.07796324539210311
27.252327999999995,11.798969928856218,0.07817801982253363
27.256412,11.702956305554421,0.07840674773570931
27.260492,11.60929074050232,0.07861401553057291
27.264575999999995,11.518538275875125,0.07880803499742747
27.268616,11.425094160622896,0.07901416404607378
27.272704,11.333444479120688,0.07921679966917716
27.276796,11.240897580743468,0.07942538695533133
27.280888,11.146445523716292,0.07964828751811019
27.284972,11.047396657414122,0.079893678611214
27.289,10.94879069071169,0.08012718433181715
27.293028,10.847493073384221,0.08037231537699496
27.297111999999995,10.74563041388155,0.08061620626153054
27.301196,10.63983529450349,0.08085933792665362
27.30528,10.531237799600461,0.08112413455037323
27.309364,10.418264945222308,0.08140347981756299
27.313451999999995,10.299565197218747,0.08168868766171872
27.317488,10.180854031539653,0.08194689617093069
27.321572,10.055186580660331,0.08222586032656257
27.325664,9.924468003230746,0.08251710774876925
27.329756,9.795421716975717,0.08277941252858165
27.333844,9.66110285437055,0.08306712874682938
27.337936,9.529021325115146,0.08333619861878255
27.341971999999995,9.389872785759584,0.083635003737387
27.346072,9.242649294528913,0.0839753591460842
27.350168,9.094971486022974,0.08431180594550851
27.354199999999995,8.940226667416875,0.08468391327633931
27.358236,8.780209272460638,0.08509208923664797
27.362268,8.622650660654033,0.08546973893554076
27.366364,8.468448048872071,0.08581286956746724
27.37046,8.308640686040173,0.0862106465938747
27.374496,8.147149614358181,0.08662705636780765
27.37848,7.986555759551201,0.08706042398101385
27.38252,7.830337264219346,0.08748851314728805
27.386608,7.67926920266216,0.08786978146453496
27.390692,7.527082474430093,0.0882880843730233
27.39478,7.378938930973344,0.08872363007720092
27.398808,7.2311389798919326,0.08919798297646998
27.402895999999995,7.083793346085795,0.08972037732764937
27.406924,6.938807188204888,0.09026978280171541
27.411008,6.790243580499465,0.09092109772277886
27.415047999999995,6.648071215819061,0.09154567564565388
27.41904,6.506574618213799,0.09219267624289414
27.423124,6.36957552265913,0.0928948079540774
27.427148,6.240552071755164,0.0936328505699189
27.431124,6.118164149027151,0.09443462009151904
27.435104,6.005779172175269,0.0952911877387142
27.439152,5.906986008699565,0.09616666368498435
27.443184,5.815626283050424,0.09714264440261622
27.44728,5.7284547201031355,0.09829582500452368
27.45126,5.660380414357565,0.0994464106054543
27.4553,5.605810032439304,0.10071104358083464
27.459284,5.571245542273303,0.10198827173162545
27.463376,5.550860743009753,0.10335061988923143
27.467464,5.544667052324188,0.10484264827658456
27.471547999999995,5.559277163041494,0.10637692858497025
27.475576,5.595588292036683,0.1079229789066823
27.479564,5.65348971440982,0.10948604496122565
27.483595999999995,5.735218763510668,0.1110160029681666
27.48768,5.836289354964167,0.11255194823285854
27.491764,5.960622530970172,0.11402876683483205
27.495848,6.102170640878998,0.11553996110485179
27.499876,6.26205235136553,0.11705907731233493
27.50396,6.442382853204065,0.11849210075455438
27.508043999999995,6.640348353194098,0.11982740979465203
27.512124,6.849214015935274,0.12109891731369511
27.516207999999995,7.06403943977726,0.1223238994577588
27.52024,7.2851567994198625,0.12348961857786114
27.524328,7.51042806873772,0.12458271380502386
27.528416,7.74656524778012,0.12546803375476015
27.532508,7.980552983021629,0.12627666726167644
27.536552,8.21203626441137,0.12692488223728268
27.540644,8.43204292319923,0.127522415150975
27.54474,8.644383276685126,0.12801804044304346
27.548772,8.850164573868406,0.12835742585082155
27.552864,9.042762704248647,0.12858605568910864
27.556916,9.213991991050808,0.12879293675366724
27.561,9.367441301774942,0.12895103708624311
27.565083999999995,9.505691562146144,0.12905157092986563
27.569128,9.632785956939735,0.1290763360599607
27.573224,9.747827269280702,0.12903811649065716
27.57732,9.847558806368804,0.1289518884594048
27.581412,9.929067467779134,0.12885246323797908
27.585508,9.995499221412002,0.12873863497588892
27.589604,10.046754760043008,0.12864917283015864
27.593699999999995,10.089114601797228,0.12852889758047858
27.597796,10.128183497724606,0.1283240034923694
27.601892,10.160261855425162,0.12807206668174026
27.605988,10.184009558424144,0.12779791693716996
27.61008,10.197532865747124,0.12755619791246636
27.614176,10.20498568706936,0.12732390594624257
27.618272,10.211086974241312,0.1270875208781012
27.622368,10.219647044562896,0.12680918181056441
27.62646,10.226290538558986,0.12651864793436524
27.630552,10.227772181104879,0.12626056167680408
27.634647999999995,10.231048257400793,0.1259892110212575
27.638736,10.241502068696803,0.12566265691462808
27.642831999999995,10.25644196436787,0.1253024578016394
27.646928,10.268468759614032,0.12497192352151616
27.650911999999995,10.27612019538507,0.12467051819996232
27.655,10.282420097005826,0.12436445091159022
27.659095999999995,10.290514432376606,0.12404488160757725
27.66318,10.303205577022378,0.123685729412958
27.667272,10.312983621243246,0.12335583365199213
27.671356,10.322418073088775,0.1230085049439609
27.675443999999995,10.33050099078402,0.12265569614669299
27.679535999999995,10.336002982754167,0.12231964315464045
27.683516,10.33701889034925,0.12201668268092478
27.6876,10.340947898369242,0.12168455410023582
27.691679999999995,10.345541255788842,0.12132410700385668
27.695768,10.352593396358074,0.12092346256854034
27.699848,10.356499569027001,0.12052978966939046
27.703935999999995,10.356927599095814,0.12015795174229729
27.708016,10.354663978539591,0.11980443263021452
27.712043999999995,10.352511082883304,0.11944522320085357
27.716135999999995,10.348563753476993,0.11909884299802473
27.720227999999995,10.341249006370505,0.11876805748959136
27.72426,10.32776446603887,0.11847527898782445
27.728296,10.318200967907085,0.11814288206651893
27.732376,10.31277996177502,0.1177615676403766
27.736404,10.306461738767945,0.11738625718206738
27.740444,10.299246298885858,0.11701683092746569
27.744472,10.296849118078635,0.11660486659933787
27.748528,10.299602371046081,0.11613498679965452
27.752624,10.300450465363568,0.11568057592034883
27.75666,10.302306501456002,0.1152157402016087
27.760688,10.302146653998543,0.11477171613951892
27.764679999999995,10.303559790491233,0.11432416787618829
27.768712,10.30306776833397,0.11389350619342911
27.772708,10.302354296376835,0.11347275143563644
27.77674,10.294806681794945,0.11311519797251539
27.780784,10.290061442738024,0.11273556385148294
27.784868,10.285094753881232,0.11236485018782415
27.78896,10.284049107224293,0.1119569747611329
27.793004,10.28760026984235,0.11151712061554196
27.797032,10.290254215585394,0.1110822945077306
27.801132,10.294591870178527,0.11064086252208233
27.805224,10.30521004289674,0.11015998862891332
27.80928,10.316725432489966,0.10967625891531085
27.813375999999995,10.324995546958482,0.1092327121306827
27.817467999999995,10.333154936527064,0.10879388386995052
27.821511999999995,10.341646500795449,0.10834120336539367
27.82554,10.340722996713977,0.10796107645515451
27.829571999999995,10.341261751682724,0.1075867367533468
27.83352,10.344602882176442,0.10719164238239534
27.83752,10.351532880170211,0.10677825406462259
27.841612,10.36328113723884,0.10632698701854466
27.845696,10.379847653382331,0.10583936806839905
27.849788,10.396414169525826,0.10535174205932729
27.853819999999995,10.413767177644393,0.10486530913747918
27.85786,10.437289978988114,0.10434798077701969
27.861956,10.45947266385708,0.10385542949047924
27.865991999999995,10.484457724251016,0.10334534885290785
27.870083999999995,10.51000782682016,0.10284734461304079
27.874172,10.532423379164529,0.1023842735729617
27.878208,10.561119449633981,0.10189146454843531
27.88224,10.592396445828532,0.10139241794147337
27.886327999999995,10.624681383798032,0.10088919391758838
27.890416,10.652934554667745,0.10042293702694383
27.8945,10.685108767737308,0.09992721692644321
27.898584,10.718855964757028,0.09943285465468155
27.902672,10.753057479052018,0.09895290191070433
27.9067,10.795555395021983,0.09842587406734067
27.91078,10.831551343066998,0.09794028180289273
27.91486,10.870349666636981,0.09744135650506702
27.91894,10.90365396405696,0.0969753389728264
27.92302,10.933369393976893,0.09652903079525903
27.9271,10.960503898171725,0.09609508518765007
27.93118,10.98965428591645,0.09564612107555033
27.935264,11.016113023036137,0.09520989342928737
27.939352,11.042338892680423,0.09475503456594932
27.94344,11.071920762349354,0.09426617690996293
27.947524,11.099143156093055,0.09377846816456305
27.951612,11.125689782761611,0.09328915222549593
27.9557,11.153687250804857,0.09277711390978863
27.959784,11.172601825198047,0.09230748660218505
27.963868,11.188370431690933,0.09183808881616902
27.967944,11.198645012033808,0.09139544826842519
27.972031999999995,11.212275592401332,0.090917859535636
27.976104,11.226016897668789,0.09043914057079841
27.980184,11.242216986085877,0.08993200922001088
27.984264,11.262448841602751,0.0893981126613121
27.988348,11.277518845669427,0.08887844695815456
27.99242,11.293818241310916,0.08834200075760536
27.996496,11.307425986327374,0.08781802224971054
28.000576,11.32002578956888,0.08729993632490433
28.004656,11.333412084785468,0.08678328744306661
28.00874,11.342988062702135,0.08628764675999527
28.012827999999995,11.352674765518739,0.08578990648200997
28.016919999999995,11.366503960335063,0.08526097335179213
28.021011999999995,11.382016864001478,0.08473333231651245
28.025103999999995,11.393719450367975,0.08422774802005409
28.029188,11.409121629134452,0.08370889317054606
28.03328,11.42362659102592,0.08319455302463577
28.037364,11.436226394267429,0.08269100220533214
28.041452,11.459249207633741,0.08213930306038535
28.045535999999995,11.483734280050273,0.08159557463721831
28.049627999999995,11.51303761154167,0.081028070570607
28.053716,11.539317117708226,0.0804816161936086
28.057804,11.561897031474802,0.07995122975295646
28.061892,11.57854001949163,0.07945707085849586
28.06598,11.590807648033334,0.07897425993654676
28.070076,11.603751043650183,0.07849652404801594
28.074172,11.621180523642089,0.07800818533090538
28.078264,11.636704844984035,0.0775287635735532
28.08236,11.657047425400846,0.0770267570050971
28.086455999999995,11.67682496364245,0.07651667525041768
28.090552,11.699404877409025,0.07599583545725928
28.094644,11.720976849400651,0.07548310896856923
28.09874,11.737398387617612,0.07500526446325112
28.102836,11.74821517478463,0.07454922941408494
28.106932,11.75903196195165,0.07409339447227185
28.111028,11.765927706918818,0.07365900465642819
28.115064,11.770131801260948,0.07323052414065827
28.119115999999995,11.774225170703147,0.0728057389468461
28.123212,11.767784805120604,0.07242638380392918
28.127308,11.757755572038015,0.07205446863953698
28.13134,11.741789413205678,0.07171242970848406
28.135376,11.728514904998379,0.07136425191830505
28.139412,11.715805438966285,0.07102462962450036
28.1435,11.702088031159244,0.07068890865993327
28.14758,11.686809057077586,0.07037685943470945
28.151616,11.670632866120913,0.0700657970076031
28.155704,11.64694676546434,0.06977995611211454
28.15974,11.624157881682784,0.06949126581874453
28.163832,11.596440013926424,0.0692258400238874
28.16788,11.56704985499551,0.06898752810869628
28.171964,11.537438246264728,0.06875602652667072
28.17606,11.505700029084116,0.06853827766343551
28.180143999999995,11.476874912328409,0.06830692086670083
28.184244,11.446820403997885,0.06808712658299299
28.18832,11.41463928721753,0.06788081120951733
28.192416,11.377418461562447,0.06770061153785459
28.196504,11.342557111832596,0.0675257309838219
28.200596,11.305679878552846,0.06736058867175466
28.204684,11.27160502079807,0.0671854381705603
28.208736,11.237087263443552,0.06702457905339447
28.21282,11.204253214939126,0.06686337565193703
28.216912,11.16660090735983,0.06672086585422007
28.220952,11.12636767405544,0.06657810197452588
28.225,11.08792887450107,0.0664310593728829
28.229088,11.050608741621582,0.06627370309290044
28.233187999999995,11.013853650917303,0.06612549765713373
28.237276,10.982703311262963,0.06595901310735035
28.241308,10.948529146283786,0.06580778486938181
28.245387999999995,10.914465706204542,0.06565139380951394
28.249468,10.878829282175143,0.06548919106813583
28.253512,10.838485323970817,0.06534139751667681
28.257592,10.798141365766487,0.06519253694626127
28.261679999999995,10.753987090262243,0.06505625699520627
28.265764,10.711737973407953,0.06491193130378375
28.269852,10.668591639678654,0.06476777784459511
28.273948,10.629698522849012,0.06459200059599193
28.278044,10.590129638944228,0.06440843004633659
28.282139999999995,10.553584580364284,0.06420693446205607
28.286236,10.51625302980926,0.06400108949393243
28.290332,10.480372320628925,0.06377198498141361
28.294428,10.446839669698285,0.06351845421178814
28.298524,10.415544352117413,0.06324400326246694
28.30262,10.389067293611403,0.06294911835396214
28.306716,10.365614060430232,0.06263726587118566
28.3108,10.337564017974067,0.06233376818396581
28.314896,10.308273166267552,0.06201057084214238
28.318988,10.273488288411034,0.06169707351815504
28.323076,10.240830019004344,0.061366629839158214
28.327168,10.209068966472664,0.06103298065092388
28.331256,10.181339681040772,0.0606761523323846
28.335348,10.15685567073359,0.060292413296071025
28.339432,10.131917343151137,0.05989090997087804
28.343519999999994,10.10798695734363,0.05948139042144037
28.347611999999994,10.085618137810744,0.059043937820309
28.3517,10.067059635577776,0.058592115831796424
28.355788,10.048279683544939,0.05814690316781454
28.359876,10.024902922237105,0.057707861546394325
28.363964,9.99973172717925,0.05726932960026816
28.36806,9.974339082321524,0.056836586994195325
28.372156,9.949732929438873,0.056405452412963145
28.376248,9.920984284556503,0.05599696100958873
28.380344,9.892911406749276,0.05559436034880024
28.384376,9.860696036942326,0.0552147654384361
28.388407999999995,9.822875916085435,0.054845857051351636
28.392492,9.789763329403472,0.05446165964301962
28.396584,9.756318568021705,0.05408725620166724
28.400676,9.725676182164909,0.05370336884617449
28.404772,9.693128637658154,0.05332219494269323
28.408867999999995,9.659794601176323,0.05293465941555269
28.412959999999995,9.621531580719692,0.05256451972325382
28.417048,9.581031226913298,0.05220961662020971
28.421136,9.540198698407101,0.051864392178927125
28.425228,9.497350286351006,0.05152554139257818
28.429264,9.449805757795522,0.051229619969862084
28.43336,9.39834018704018,0.05094624675444875
28.437456,9.34788255805979,0.050655404639067356
28.441496,9.300792346779575,0.050368808712421345
28.445536,9.249559643499639,0.05010254992538352
28.449568,9.199334881994647,0.049828724071162664
28.453603999999995,9.1472049618397,0.04955697633426821
28.457632,9.095185766584684,0.04927749169928242
28.461663999999995,9.039356254029755,0.04900502851591159
28.465704,8.98453468324977,0.04872522580031547
28.469736,8.933080530169965,0.04845092714377608
28.473764,8.880507710415277,0.048183343082216126
28.477848,8.82580828221076,0.04792661686390242
28.481936,8.769879462431428,0.04768091108483062
28.48602,8.714515684827301,0.04744619687244951
28.490108,8.659716949398382,0.047222549012511425
28.494191999999995,8.607388414794633,0.04700570588316273
28.498276,8.556522139241096,0.04680107361026916
28.50236,8.504315747212813,0.04661308452897799
28.506444,8.456816889359457,0.04641314105104879
28.51048,8.411333915055993,0.04620187908163915
28.514575999999995,8.36663743272761,0.045993273124975254
28.518667999999995,8.316679791724617,0.045816364150735825
28.522756,8.263809050296725,0.045647127576389265
28.526848,8.212511292818984,0.04548622381105245
28.530876,8.156849593541653,0.0453585383698851
28.534908,8.100634269764647,0.04525443455102072
28.538944,8.049691522337778,0.04515440221226658
28.542984,8.001329700636008,0.04505822663079662
28.547024,7.9507305455844755,0.04498102049021999
28.55106,7.900020665633008,0.0449078307000342
28.555095999999995,7.847184177231713,0.044848259363670144
28.559128,7.799398815380686,0.04480567927584065
28.56316,7.751281278829851,0.04477819638232315
28.567191999999995,7.705633943104183,0.04476180056912979
28.571176,7.659543707778775,0.044766492820752665
28.575212,7.617828831928493,0.04477729430252612
28.5792,7.576900448053286,0.044793918415791355
28.583227999999995,7.540458148553139,0.04481166738687199
28.587264,7.504248716528393,0.044861043321599375
28.591252,7.468715051578791,0.044921586173386374
28.595292,7.433746428804395,0.044999068356923244
28.599332,7.405279773954952,0.04506816096210296
28.603368,7.3830936372305915,0.045139009465903754
28.607351999999995,7.36561503468116,0.045200305398777924
28.611392,7.355757066731563,0.045241949913140886
28.615428,7.347804257431924,0.045278780026071455
28.619452,7.334025247282476,0.04533649992748776
28.623536,7.321819221083181,0.04540583259316147
28.627624,7.3162258877087725,0.04546006798381396
28.631708,7.309513887659484,0.04552538423830555
28.635792,7.306280030210307,0.045597519173444415
28.639879999999994,7.304386289235881,0.04564735989966352
28.643964,7.307310807336319,0.04568165176008908
28.648052,7.310346050336692,0.04571035803936086
28.652092,7.317413060436851,0.0457176536978464
28.656171999999994,7.317413060436851,0.0457176536978464
