Time,Force,Position
26.694312,17.899644131752265,0.07977859135532357
26.6984,17.81582511697423,0.07986360266657963
26.70248,17.735816419496114,0.07993752921254102
26.706568,17.658720822442902,0.08000245843896012
26.710548,17.58217884988936,0.08005563013661339
26.714632,17.501482967660564,0.08011030068357822
26.718716,17.41338790063181,0.08018444964381533
26.722804,17.323830574552833,0.08025483886440819
26.726887999999995,17.237407798698626,0.08031028485116448
26.730972,17.155348964644016,0.08034153317148578
26.735068,17.076313955914245,0.08036057347770499
26.739104,16.998397613859353,0.0803729095088068
26.743188,16.918797562954378,0.08038596935523544
26.747271999999995,16.832019777049307,0.08041337006073318
26.75136,16.74624993291918,0.08043678162702002
26.755452,16.66081226348886,0.08045247136764704
26.759544,16.576493260733425,0.08046168563978984
26.763632,16.493292924652867,0.08046340235229117
26.767724,16.405495779297315,0.08047759062194386
26.771816,16.310077999341928,0.08051866314995301
26.775852,16.21376300251153,0.08056303225603513
26.77994,16.11151107993139,0.08063336875873464
26.784032,16.000962755676273,0.08072808711560808
26.788112,15.8839124634962,0.08084468253071597
26.792204,15.766419271716387,0.08097444703412347
26.796296,15.648704630136706,0.08111271549797093
26.800384,15.534911030756877,0.08123663115576457
26.804476,15.419888039802233,0.0813732494263785
26.808568,15.301165456447606,0.08152188157728442
26.8126,15.178521830893125,0.08168917651140417
26.816683999999995,15.05318655471361,0.0818648271767399
26.820716,14.921570760409015,0.08205820822030882
26.8248,14.787263315479382,0.08225984177621443
26.828904,14.655647521174782,0.08245794472853737
26.832988,14.51551387539534,0.08269442737977042
26.837068,14.367870319915996,0.08296388428509385
26.841148,14.215629955161658,0.08325353498051606
26.845232,14.053974522057462,0.0835859141642377
26.849308,13.890856829903049,0.08392038446609491
26.853384,13.72918997912332,0.08424428245717014
26.857456,13.566171594193307,0.08456540560636043
26.86154,13.398102082713033,0.08490226638509998
26.865624,13.229578253957483,0.08523806084120777
26.869676,13.058916399076573,0.08557660517281386
26.873708,12.882749100370122,0.08591770762480032
26.877748,12.702538616888353,0.08626893322825784
26.881832,12.516047615281499,0.08664940253071142
26.885876,12.321924561399278,0.08705571931998762
26.88996,12.121520989391977,0.08749729262650387
26.893996,11.914947624159526,0.08797473305835449
26.898092,11.70680127497692,0.08846203233992037
26.902076,11.497314809319564,0.08899086432056193
26.906132,11.282235010287803,0.08960461061317723
26.910164,11.064142803606732,0.09029452030424055
26.9142,10.85582067532639,0.09100767174684848
26.918236,10.65515343467248,0.09180090275834017
26.922272,10.466294991320257,0.09265463099574787
26.926368,10.293399254944976,0.09356460803572522
26.9304,10.129975675297217,0.09460174000291775
26.934448,9.980621061651972,0.09572534906907844
26.938504,9.83961993805937,0.09698371715879173
26.942532,9.715600880894184,0.09830986311208559
26.946612,9.604532123056636,0.09973901912071372
26.950656,9.514034299146555,0.10119990169759842
26.954736,9.440075642064157,0.10273189516127049
26.958812,9.385679977134284,0.1042979656713263
26.962796,9.349950087481918,0.10590260617203173
26.96688,9.339166491232147,0.10750292905484991
26.970956,9.348056612034833,0.10912616327178887
26.975,9.379533550314878,0.1107409351148983
26.979084,9.426984613247399,0.11239305730158837
26.98316,9.494319425356714,0.11401170720284885
26.987244,9.58174801876716,0.11555343535837242
26.991324,9.685670108303153,0.11700100564426583
26.9954,9.800690975039096,0.11835298417214649
26.9995,9.927574275599,0.11954169409599728
27.003596,10.051288772907526,0.12065735752453675
27.00768,10.171933774189082,0.12166315399087003
27.011759999999995,10.295102612818072,0.12248096594454307
27.015792,10.411601670244512,0.12318290586622374
27.019876,10.529273030868103,0.1236923737632496
27.023964,10.644871419564137,0.12405567925104459
27.028044,10.76220715363253,0.12423970245070445
27.03214,10.87063577314861,0.12435011699392022
27.036232,10.97497553718724,0.12434260797067316
27.040268,11.068613752923527,0.12427620018963871
27.044356,11.15525001275746,0.12412403130128975
27.048444,11.231406174088924,0.123912112113835
27.052532,11.297979453792934,0.12363100795490076
27.056624,11.354748402069616,0.12329453569031965
27.06066,11.40372890246886,0.12288165730607185
27.064752,11.447169706015973,0.12239780045101083
27.06884,11.483287796636453,0.12188269379531533
27.072924,11.509402941380806,0.12138310807737505
27.077012,11.526645224599442,0.12091349153692724
27.0811,11.53546896356763,0.12048446018948532
27.085184,11.54753797766053,0.12001723840616482
27.089276,11.560504208628444,0.11954541287271861
27.093371999999995,11.571233106246595,0.11910397013475187
27.097468,11.583534987814895,0.1186599264549673
27.10156,11.594386028008513,0.1182443952269065
27.105656,11.603331909552175,0.11784604319377824
27.109748,11.606894489845763,0.11748210311710737
27.113844,11.612694403489114,0.11709131597123631
27.117932,11.6160241163073,0.11670865197799406
27.122028,11.623496321125208,0.11628389311982636
27.126124,11.63432452596776,0.1158205207244417
27.130212,11.645374180610181,0.11535000720223419
27.134308,11.664265919652305,0.11481601141359267
27.138404,11.685284267144258,0.11426104402676888
27.142496,11.707310556411159,0.11369805750210972
27.146532,11.724740036403066,0.11316623837775405
27.150568,11.74261241599471,0.11261939082306673
27.1546,11.76294357873599,0.11203834953667242
27.158688,11.782931149101929,0.11144129311278954
27.162776,11.806053269692647,0.11081540118289337
27.166808,11.8296182898831,0.11017720880390607
27.17084,11.85261826789835,0.10953373503232328
27.174868,11.874942478838456,0.10888769395268073
27.178908,11.897488139578432,0.10823522150311325
27.182932,11.91835009146832,0.10758835089598293
27.18696,11.938204101583258,0.10695123942701829
27.19104,11.959520370748418,0.10631757879966533
27.195072,11.977591364788868,0.10571872988107113
27.19916,11.998132559654483,0.10511554045970704
27.203248,12.017665812745152,0.10452342271584082
27.207276,12.032491531660892,0.10396370082400765
27.211368,12.04451487505166,0.10342100541511302
27.215456,12.051609234467634,0.10291905330446194
27.219548,12.060719477433498,0.10240383248007046
27.223632,12.071845603949255,0.10187471861155492
27.227724,12.084987614014906,0.10133005038419475
27.231764,12.098805391155697,0.1007908867496764
27.235796,12.11240171849662,0.10026077329541243
27.239832,12.129697638237527,0.09971257074753075
27.243884,12.142286023803505,0.09919238947907247
27.247976,12.150277600094489,0.09869601452112879
27.252068,12.159166393260483,0.09819725010514536
27.256156,12.17007106997637,0.09768442131653848
27.260192,12.18288090534222,0.09716248097047325
27.264172,12.197485174458087,0.096633466336672
27.26826,12.212089443573959,0.09610470890652695
27.272344,12.228709596239721,0.09556321674701904
27.276428,12.253171833305188,0.09497422984943156
27.28046,12.275839636620631,0.09439371956451591
27.284484,12.298175265236273,0.09382603976003948
27.288568,12.321075936027121,0.09326633137935439
27.292652,12.346446807643131,0.09270399968475827
27.296688,12.371817679259143,0.0921434554238268
27.300776,12.393046058875434,0.0916175557362911
27.304864,12.411139888266948,0.09111821731269047
27.308944,12.430806701608619,0.09062209962996234
27.313032,12.450805689650092,0.09011728106652979
27.31706,12.469120968841478,0.08961551460182476
27.321132,12.482396539158131,0.08914817822298117
27.325164,12.499371701874765,0.08866530237728637
27.329244,12.52262738271648,0.08816309546797009
27.33328,12.544985846683183,0.08766583967624061
27.337268,12.569249469299848,0.08716264380703131
27.341356,12.5926158750415,0.08666534876999014
27.345452,12.620014047882934,0.08614596538958154
27.349544,12.650436046049212,0.08560991373697625
27.353576,12.68107949401536,0.08507062811712823
27.357612,12.701189206956768,0.08458384249193243
27.361696,12.726117178973038,0.08407620281776573
27.36578,12.751155875889243,0.08356627971164889
27.369868,12.776305297705385,0.08305326588503852
27.373952,12.803581327971356,0.08252704680365802
27.378048,12.828054982712356,0.08201201686870253
27.382136,12.850623478803398,0.08150477014640174
27.386224,12.87150826604435,0.08099844342588744
27.390316,12.886899027135298,0.08051040044777759
27.394404,12.900163179776413,0.0800388636389205
27.398492,12.917126924817513,0.07955568514894307
27.402588,12.939462553433154,0.07903398396521484
27.40668,12.959893023398832,0.07852166313584306
27.410776,12.973145758364415,0.07802851480452035
27.414871999999995,12.98740643510495,0.07753126680973904
27.418904,12.997746069645629,0.07705483850808084
27.422992,13.004164661986458,0.07659734288285149
27.42708,13.001843953052571,0.0761795231090764
27.431172,12.999191069418881,0.0757735418382858
27.435264,12.988696101385486,0.07540325356417879
27.4393,12.984027334201901,0.07500651222658274
27.443388,12.972413699493623,0.07464436349251209
27.447464,12.962926673235174,0.07426869498544998
27.451552,12.954336863851736,0.07389099788510287
27.455644,12.942833954043392,0.07352594993648197
27.459728,12.935706403710174,0.0731550268998508
27.463816,12.930594736926851,0.07277289144674617
27.467904,12.930977096293535,0.07237705689004797
27.472,12.937861423585169,0.07196245735677848
27.476028,12.946429459726893,0.07154838688745736
27.480108,12.950965728768828,0.07115517533486866
27.484192,12.950130114236226,0.0707973973652743
27.488272,12.948286557928677,0.0704441756317036
27.4923,12.949134652246164,0.07008529055925403
27.496336,12.94415654571384,0.06974874545796356
27.500364,12.936941105831753,0.06942803003279623
27.504444,12.928717724174719,0.06911083235541388
27.508524,12.926996310442638,0.0687754828057047
27.5126,12.918772928785605,0.06845712897733752
27.516632,12.913462647553475,0.06812552058112711
27.520672,12.904120599221564,0.06781322583784603
27.52476,12.89421350871444,0.06749073826719439
27.528784,12.879155984432648,0.06719579953890542
27.532876,12.859501650875863,0.06691036307733406
27.536972,12.83491833334428,0.06664431879844576
27.541012,12.803833047887744,0.06639423609629803
27.5451,12.773423529506351,0.06614884464924413
27.549188,12.736179868500201,0.06592950408304786
27.553276,12.690418356019205,0.0657348907303037
27.557308,12.63894136758833,0.06555753039812254
27.561304,12.59116397155744,0.06537033503819407
27.5654,12.545967501251653,0.06518181251567803
27.569432,12.502344014896018,0.06499653245872221
27.573468,12.456151020490815,0.06483683303885629
27.5775,12.409515126485873,0.06468986188397569
27.581536,12.362092740505853,0.06453971590218993
27.585528,12.316243338475985,0.06439288995194482
27.589564,12.261765360071339,0.06427400348131229
27.593596,12.2078524238419,0.06416340144060716
27.597624,12.160220005737541,0.06404256386661544
27.601652,12.113041904908457,0.06393386025583583
27.605652,12.066096671554774,0.0638441524892385
27.609691999999995,12.019827205276233,0.06375968507464962
27.613748,11.97749019887308,0.06368605201192998
27.617732,11.945465477694796,0.06358370964010417
27.621764,11.916808174216689,0.06348298430845911
27.625808,11.886245712088622,0.06338763357242512
27.629844,11.859272117460602,0.06328695100066672
27.633876,11.841381416482637,0.06317014990238014
27.637912,11.828984741654676,0.06304214061283948
27.641884,11.809643199302021,0.06294360506151987
27.645916,11.78817504849954,0.06285806823307974
27.649992,11.763572347472282,0.06279025558053947
27.654044,11.741772021969995,0.0627151245100929
27.65802,11.725465722617713,0.06262903029985209
27.662064,11.714099824915765,0.06255013304146614
27.66606,11.706322794713863,0.06246641727745331
27.670104,11.709533816811973,0.06236123252934504
27.674144,11.718128140160154,0.062248907765449814
27.67818,11.717872437333687,0.06217248163207512
27.682164,11.717727459407152,0.062092186027579904
27.686148,11.723187232530558,0.06199766206328149
27.69018,11.731338656279,0.06189964297962541
27.694216,11.738703588052363,0.06179908509871082
27.69824,11.735989102076262,0.06174652226289217
27.702324,11.738092875175022,0.061677514223584085
27.7064,11.742334674399144,0.06162325166809922
27.710492,11.74276615632335,0.06158064805158813
27.714576,11.736252770722862,0.061567777905911225
27.718604,11.723913184272565,0.06157619231384611
27.722688,11.716170407097264,0.061575401727213916
27.726776,11.711672905046672,0.061552831586177074
27.730864,11.709302011445908,0.06151690264894118
27.734952,11.707828334720157,0.06147986773203134
27.73904,11.707362599769354,0.06143813920387067
27.743132,11.7056560555682,0.061380404086951626
27.747216,11.701036410942141,0.0613332806866694
27.751308,11.69081201526614,0.061299943632805616
27.755332,11.67890391074005,0.06126504379611526
27.75936,11.673608499038846,0.06121174902267676
27.763456,11.671115462862614,0.06115156570424094
27.767532,11.6649228342864,0.06109928676734674
27.771608,11.657046496860097,0.06104541570802744
27.775687999999995,11.653988418508659,0.060975600790667564
27.779776,11.658096657481783,0.06086945658350623
27.783864,11.657165187580173,0.06078676678331166
27.787948,11.653198474678188,0.0606899103628238
27.79204,11.652931354176188,0.06058507573166038
27.796128,11.652209916398913,0.06046610368489249
27.800224,11.656306737696504,0.06033053114501502
27.804312,11.658830575043941,0.0601895154710244
27.808396,11.655749661341439,0.06006164117115905
27.812488,11.649755647214029,0.05994372357189575
27.816576,11.638378331836547,0.059831556532466544
27.82066,11.621839165008865,0.059717695620795645
27.824752,11.60350556443116,0.05960531019429008
27.828844,11.584828371478118,0.059474896619467685
27.832932,11.563680977699908,0.059339315681501595
27.837024,11.538944716421653,0.05920699403858965
27.841111999999995,11.509046603693196,0.05907246561738716
27.845203999999995,11.474662406589681,0.05894206010533923
27.849292,11.437918733560933,0.05880231522608904
27.853387999999995,11.398483409907149,0.05866451312989417
27.857484,11.3516489014534,0.058540799648966885
27.861571999999995,11.298201700174769,0.05843377689473629
27.865608,11.239814097245798,0.0583163101479398
27.869696,11.180418552541887,0.05820228135268133
27.873788,11.117766315037732,0.05807918246481472
27.877876,11.060153786408312,0.0579306583701593
27.881968,11.001865490703748,0.0577741463459002
27.886016,10.942114935948965,0.05760596477702768
27.890104,10.884269539844144,0.05743057437613038
27.894196,10.827985710013941,0.05722927632326335
27.898284,10.773041996658488,0.0570093555072505
27.90228,10.720789933928073,0.056784971627411994
27.906312,10.66450610409787,0.056577565043986915
27.910348,10.606095665817838,0.05638142696904539
27.914448,10.546566560862924,0.0561920981689407
27.918479999999995,10.489950556332918,0.0559907289577248
27.92258,10.435128985552934,0.05578593861135291
27.926628,10.383331240097789,0.05556495029462997
27.930672,10.333327928392668,0.05534023557559688
27.934708,10.284332558462495,0.05510880443895383
27.938744,10.23555863833219,0.05486686029830265
27.942832,10.188014109776702,0.05460947950314368
27.946884,10.1441691736212,0.05434225622326347
27.950928,10.10245084591552,0.05405902395492373
27.955008,10.062416227059934,0.05377638817065059
27.958984,10.013310132229824,0.05353451998656531
27.96308,9.959385778324853,0.053305984642422005
27.967127999999995,9.905915741695154,0.05309135829249049
27.971156,9.853232197040528,0.052878569737026454
27.975196,9.801900186536193,0.05267945688010791
27.979228,9.752927651957085,0.05248944439362041
27.983324,9.699136858303113,0.052312768863359185
27.98738,9.648480614873916,0.05211521526552918
27.991424,9.598721588319728,0.05191524480638202
27.99552,9.55187566219045,0.05170316520320375
27.999608,9.49942498501123,0.05149998957927783
28.003704,9.446077090956999,0.051295063734540944
28.007796,9.390491863553002,0.051106616897638214
28.011848,9.334574461449202,0.050929669113561914
28.015884,9.278657059345402,0.05075035772437227
28.019924,9.22139954076685,0.05058702971967675
28.023959999999995,9.166612223013466,0.050429485105736575
28.027944,9.11440583098518,0.05027339317233217
28.031972,9.060748597582208,0.05013839191306112
28.036007999999995,9.007988581054251,0.050001276906733644
28.040092,8.963967865801006,0.049833098262816455
28.044176,8.92544117669777,0.049657319321277205
28.048272,8.890835529794384,0.049465662185822115
28.052356,8.860040200190916,0.04926313304211415
28.056444,8.830031362562524,0.049064414721600016
28.060532,8.800022524934132,0.048864797192197454
28.06456,8.773491829905852,0.048667452936960266
28.06864,8.750217827677815,0.04848246201695106
28.072724,8.729635476074813,0.04829614448546938
28.076812,8.708720949772008,0.04812278667629578
28.080896,8.694984158469296,0.0479472320447383
28.084928,8.681923134241728,0.047779887238159735
28.088968,8.671664485539129,0.04760696916529656
28.093,8.66140583683653,0.04743327450752678
28.097096,8.649917796559114,0.04727252698542676
28.101192,8.640224190031724,0.047110343289430964
28.105224,8.629411916829449,0.04695723307689738
28.109256,8.616251585377476,0.04682789996019478
28.113288,8.604996412575465,0.04669307376946722
28.117332,8.589598747773731,0.04658175619720072
28.121372,8.570058590972277,0.04649436623348706
28.125416,8.548724000420798,0.046406358069630824
28.129448,8.520444542344624,0.04634689692919488
28.13348,8.483536507893673,0.04631092144292334
28.137572,8.444834039692696,0.046274337820209836
28.141656,8.404115687941825,0.046246928758358015
28.145688,8.366088986815992,0.04621966634801996
28.14972,8.322568259540152,0.04619663884131452
28.153752,8.276134431839406,0.04618277434921327
28.157844,8.229811329038597,0.04616352606918843
28.161936,8.178669967162923,0.046158594937989614
28.166028,8.127307155487378,0.04616374811704644
28.17012,8.07022886786196,0.046183321500163556
28.174212,8.012929130436671,0.046213206699700554
28.1783,7.957313101861471,0.046248960682052746
28.182388,7.903602231936229,0.04627948712475502
28.186416,7.848096928260964,0.04630999648126732
28.190448,7.7902321486604675,0.04632502317427514
28.19448,7.731470152184959,0.04633918918451916
28.198532,7.67853435655926,0.04633282766040127
28.202632,7.630416820008428,0.04631077069871616
28.206668,7.582975050532736,0.046298716356223873
28.21076,7.53934359835696,0.04627689375901257
28.214852,7.502103389206205,0.04625055174153074
28.218948,7.4629580214054885,0.04622891745107636
28.223044,7.426504304229809,0.04620755836617483
28.22714,7.383770068929045,0.04618516059015302
28.231236,7.345743367803211,0.04615161656410657
28.235328,7.307495216877507,0.04612948374145713
28.23938,7.269136341051869,0.04611252125287783
28.243432,7.2335798407512,0.04609047703713836
28.24752,7.195442414725431,0.04606240952850504
28.25162,7.163806956624614,0.046023613907880484
28.255716,7.130377064773774,0.045984754085534506
28.259748,7.098963056472828,0.045934476816351995
28.263804,7.066430381496999,0.04589546205620997
28.267904,7.036589357146207,0.04585653228481368
28.272,7.011234417170472,0.04581752124960673
28.276,6.986776694069752,0.04577808126188246
28.280088,6.959295145644189,0.04575556426377853
28.284175999999995,6.92520090439374,0.04574927221697255
28.288232,6.888193562718385,0.0457549424007635
28.292328,6.853091379692989,0.04575463823831503
28.296327999999995,6.814400329167546,0.0457536483489146
28.300356,6.774701336867156,0.04575883128121633
28.304388,6.729508318416761,0.045769588265848656
28.308464,6.688014892366347,0.045774406866701874
28.312504,6.642378974316212,0.04581017102653833
28.316604,6.596067289190935,0.04583434985615752
28.320636,6.54594528676574,0.045871915613758786
28.324668,6.493131633715509,0.045909327361361454
28.328696,6.447827890365179,0.04592710886011141
28.33278,6.397816612839919,0.045957087615585986
28.336864,6.3498212188645535,0.045974515990479095
28.340904,6.297118290714259,0.04600435320447037
28.344932,6.244636812363834,0.04602107652308951
28.348972,6.19136884203833,0.04603044729610076
28.353008,6.131488178887942,0.04605937981890691
28.357096,6.0676864735377,0.04610891528461765
