Time,Force,Position
27.89328,12.012624996034344,0.06682608401651335
27.897312,11.949487640083714,0.06694020663014082
27.901352,11.890271326332936,0.06703865715018763
27.905456,11.831620054757362,0.06714736077481567
27.909552,11.766134640557032,0.06728677437418379
27.913644,11.702443660106725,0.06742541576051654
27.917748,11.644246705806426,0.06755290287573672
27.92178,11.58851995233129,0.0676835621084025
27.925872,11.533801140631098,0.06780955834850932
27.929928,11.472469636106025,0.06796056750550454
27.933924,11.416853607530824,0.06809165173937821
27.938024,11.360229637180677,0.06822856790125444
27.94206,11.302819174855452,0.06836488377914766
27.946107999999995,11.242827786805128,0.06850360672534503
27.95016,11.185638774279774,0.06863410335758953
27.954208,11.130354920404379,0.06875939243004557
27.958256,11.079667875803977,0.06887383507059934
27.962292,11.028648656503771,0.06900059717726814
27.966372,10.973819119903649,0.0691435948429906
27.970456,10.918756715828122,0.06926553802770455
27.974532,10.863018544677455,0.06938303237946362
27.978615999999995,10.803580781126806,0.06951292477768033
27.9827,10.741340642051185,0.06965330208101672
27.986784,10.676408852350527,0.06980195937639891
27.990868,10.616406046624668,0.06992756089506737
27.994952,10.559316341323719,0.07004006582321871
27.99904,10.498527043622783,0.07016660323304547
28.00312,10.433927428621931,0.07031153487496797
28.007152,10.368319871846134,0.07046371852449367
28.01118,10.308538515920148,0.07058955108459523
28.015263999999995,10.245954784469191,0.07072636255823835
28.019348,10.17989291041812,0.07086905798309082
28.023432,10.115736195017009,0.0710044396847019
28.027516,10.053263188465985,0.07114163126207958
28.0316,9.988995748164939,0.0712836188893602
28.035684,9.92214738213879,0.07143054979995637
28.039767999999995,9.852042323312398,0.07157446069272606
28.043856,9.778459121885893,0.07172565386181455
28.047892,9.704089428484313,0.07187844742818957
28.051924,9.630174052358004,0.07204793590200667
28.055907999999995,9.557942385081784,0.0722196293878469
28.059996,9.483916284055542,0.07240031922656788
28.064088,9.408206474179208,0.07258451444240123
28.068172,9.333836780777627,0.07275055026869828
28.072264,9.258569870501036,0.07292086662969546
28.076352,9.17892760074932,0.0731005468441501
28.080444,9.100403997672483,0.07327230254117924
28.084528,9.022323294195388,0.07342835475122185
28.088615999999995,8.938748564568288,0.07361106631951206
28.092707999999995,8.85270363411602,0.07379313484146345
28.096692,8.762615518888433,0.0739718524921767
28.100732,8.671519461885898,0.07416437003816666
28.104764,8.572127003208388,0.07440097044111381
28.108856,8.466454026405795,0.07466714862924893
28.112944,8.352706097728095,0.07497104115255536
28.117036,8.236377243325297,0.07529041133280606
28.121068,8.114554362772493,0.07564715812681036
28.125152,7.991269223169471,0.07600409247596114
28.129231999999995,7.868205533366318,0.07635911661437282
28.133312,7.738861325438082,0.07675370090662241
28.137392,7.601552890534674,0.0771935848771736
28.141476,7.467379005856043,0.07760559510436008
28.145475999999995,7.3326400790022035,0.07801292348813534
28.149528,7.197003935273351,0.07843100250198652
28.153507999999995,7.055984490294427,0.0788913813946445
28.15758,6.911154728015588,0.07940469573659376
28.161663999999995,6.763854764911581,0.07993388784705832
28.165712,6.611847267632647,0.08052534998263808
28.169756,6.462077103703476,0.08110573848701408
28.173744,6.307599405599375,0.08175140835416903
28.177796,6.153576024770548,0.08244839511185681
28.181832,5.997758210191698,0.08319706400282732
28.185872,5.847988046262527,0.08389442921231602
28.189916,5.701020257858328,0.0846075473101401
28.193848,5.561230204454222,0.08530712443855142
28.197896,5.424131801675151,0.0860237744571022
28.201876,5.295551250370926,0.08666472853303996
28.20592,5.166638524366896,0.0873715826636193
28.209996,5.035931364612843,0.08812821665682871
28.214028,4.908137305283695,0.08889367473071796
28.21806,4.788307472929718,0.08964176435025159
28.222052,4.665121640551098,0.09051277387084568
28.226132,4.542512268023217,0.09153867827585582
28.230168,4.423060281071177,0.09269276639247376
28.234212,4.312148980945049,0.09393475609021872
28.238264,4.214264452019891,0.09518560242286676
28.242264,4.123702636021362,0.09663470640785335
28.246352,4.046744051074542,0.09819130452786175
28.250388,3.9845187815298475,0.09984232719502673
28.25448,3.942077953937545,0.1015461480171845
28.258524,3.918081451822883,0.1033259744137735
28.262556,3.914667301311222,0.10518688310750669
28.266644,3.931846920078095,0.10714793508187008
28.270736,3.9730870330480825,0.1090938678015438
28.274832,4.0303126883460765,0.1111290776743126
28.27892,4.109350086821888,0.11313289341461487
28.282972,4.201017027601063,0.11530155318488307
28.28706,4.3180845790581035,0.11737863148317706
28.291144,4.459212624718257,0.11941007084895097
28.295224,4.626527773031352,0.12134598239257495
28.299308,4.811390029947076,0.1232677893770445
28.30334,5.015704554115388,0.1251230459426655
28.307424,5.239459927860753,0.1268313940274545
28.311504,5.477826474432778,0.12841711499932715
28.315584,5.729109067305839,0.12984793179652424
28.319668,5.984556987529687,0.13123331703865274
28.323747999999995,6.25132513475335,0.13234379135713095
28.327828,6.52065137235105,0.13324499222970596
28.331812,6.787816748472323,0.13398735053868527
28.33584,7.047205094391694,0.13459991495113557
28.33992,7.294651082758379,0.1350705087203075
28.344004,7.532048454546802,0.13533510616949224
28.348084,7.7520973321814,0.13546867186066217
28.352163999999995,7.951441715637529,0.1355598317940988
28.356255999999995,8.141745424290342,0.1354717967138009
28.36034,8.316850082590225,0.13533794528202933
28.364424,8.483024790986727,0.1350260716083201
28.368508,8.629625089555176,0.13471877610295488
28.372588,8.757880369870387,0.13438252723989486
28.376628,8.86264019815769,0.13410670179330328
28.380711999999995,8.95298746806714,0.13378718863155553
28.3848,9.0337404386736,0.1333636177913546
28.388892,9.100867342877281,0.132898005713298
28.392968,9.1578463232783,0.13236424571735608
28.397056,9.205475289527262,0.13179950900533796
28.401148,9.245548675374193,0.13117960536354947
28.405235999999995,9.278077898494631,0.13055001062999547
28.409327999999995,9.305544577389266,0.12992545230237884
28.413412,9.323019728083302,0.12936130760316294
28.417504,9.336894593601759,0.1287957899379071
28.4216,9.351212358719957,0.12821001561718753
28.425692,9.364854356763011,0.1276254569719121
28.429792,9.377832005406459,0.12707222803067503
28.433888,9.396414405099845,0.12646352421271936
28.437928,9.410399995518235,0.1259008457031735
28.442024,9.421128893136384,0.12535256863637292
28.44612,9.42636376460453,0.12485446582087192
28.450208,9.432828027647492,0.12433246556543959
28.4543,9.443102607990367,0.12377163465880049
28.458392,9.456622463457954,0.12316017554437834
28.462475999999995,9.470585218525281,0.12252935575503875
28.466524,9.48006188921755,0.12193722111998792
28.470616,9.489870734609623,0.12133093745117916
28.474668,9.493066887176806,0.12078967953326017
28.478708,9.492895622043813,0.12026809916002736
28.482628,9.491716415135873,0.11975886742378966
28.486716,9.481122139878078,0.11933938216069453
28.490688,9.467049722020167,0.11894220734987898
28.494768,9.460597938762092,0.11846918249892079
28.498796,9.460083081253762,0.11793184327653129
28.502772,9.459346773945562,0.11740539973870387
28.506752,9.453570757762629,0.1169371145420839
28.510844,9.449699900229653,0.11644983651102585
28.514816,9.44348098444698,0.11600256617883672
28.518816,9.436032677089493,0.11557552033491733
28.5228,9.431054570557167,0.11513830506215837
28.526883999999995,9.432467707049861,0.11465063189044862
28.530975999999995,9.435453827492708,0.11416119433193232
28.534968,9.437321281260676,0.11369055537730277
28.538944,9.439864502103783,0.11322416909234281
28.542944,9.440846156672272,0.11279466478884827
28.546972,9.44418728716599,0.1123619985940153
28.551072,9.450785110459952,0.11192286513701301
28.555116,9.463663451878995,0.11144079837144374
28.559116,9.475090951923352,0.11098951971863248
28.563156,9.489210102592745,0.11052198530821675
28.567188,9.510728438062102,0.10999518265691986
28.571172,9.530906657056708,0.10949222421154554
28.575216,9.542345574776597,0.1090739740809545
28.579256,9.547515392046936,0.10873422592486853
28.583184,9.550558600867449,0.1084209637381921
28.587228,9.559882327813046,0.10806675155801718
28.591224,9.567865938283889,0.10773866662019493
28.595324,9.577422532704885,0.10741026169507478
28.599371999999995,9.59617274567587,0.10701708725005447
28.603408,9.616385217697076,0.10662949570081243
28.607496,9.632344472818621,0.10629582784537281
28.61154,9.648868770115378,0.10597347359254837
28.615568,9.665171617612264,0.10566268887816066
28.619568,9.68383394103438,0.10535235024279477
28.6236,9.708998232381447,0.10499779932099967
28.627676,9.736067682378478,0.10463091200444652
28.631704,9.757089481725824,0.10432578802360931
28.635748,9.776206122423211,0.10403748171579628
28.639779999999995,9.799698122595725,0.10372908817713937
28.643871999999995,9.821850006293488,0.10344691548284478
28.64796,9.844566932166456,0.10317647427264749
28.652052,9.877817593064163,0.10282616349545184
28.656136,9.923285697836699,0.10239115472324242
28.660228,9.968643077709302,0.1019598906883354
28.66432,10.020502425506855,0.10148796061427928
28.668408,10.073369715079355,0.10101327852338604
28.6725,10.131055263726719,0.10050441829488156
28.676592,10.187954320399006,0.09999937366714487
28.680679999999995,10.237343467371394,0.09955135317435834
28.684771999999995,10.284938180593759,0.0991147699310912
28.688863999999995,10.33768332759079,0.0986315936598193
28.69296,10.38885549063767,0.09815132217854033
28.697056,10.435320119509619,0.09770175304662776
28.701144,10.481219706206364,0.0972477617033388
28.705176,10.520949499677958,0.09682474438538925
28.709212,10.559106309199398,0.09640557641897925
28.713296,10.59994335167034,0.09594250534637808
28.717388,10.641899060816167,0.09546868119203034
28.72148,10.680033034986545,0.09499149488635436
28.725576,10.71950712563167,0.09449547549980292
28.729616,10.755048756401411,0.09399995549292242
28.733712,10.782293985496176,0.09355487014070715
28.737808,10.799559104065878,0.09316084584797159
28.741904,10.818496513810135,0.09273304992808627
28.745996,10.835295897429031,0.09229948005995205
28.750091999999995,10.846822704697791,0.09188591478215309
28.754188,10.855092819166307,0.09147678096543653
28.758284,10.86089273280966,0.09107031550418129
28.76238,10.866238329177737,0.09064993939925449
28.766411999999995,10.874829200670522,0.09019937537214125
28.770452,10.879831204663265,0.08976537953160668
28.774539999999995,10.884943933555942,0.08932776070733503
28.778628,10.89812019664819,0.08882981524768371
28.782716,10.909502025990415,0.08834055448399673
28.786744,10.918081479807672,0.08786426943475052
28.79078,10.925763716749914,0.08739270272935083
28.794812,10.93333522879222,0.08692629066366822
28.798896,10.94202540750941,0.08645050731209263
28.802924,10.953296511951699,0.08596994881519233
28.80696,10.95918431514392,0.08550835423916602
28.810987999999995,10.967985218761044,0.08502977962076472
28.81502,10.976331805102896,0.08453753237474362
28.819047999999995,10.98770221676959,0.08402338016765917
28.823084,10.997953961761398,0.08352115443824601
28.827112,11.004395389453295,0.08304022000440109
28.83116,11.011844758920132,0.08255181497147081
28.835192,11.020080620362052,0.08206603754686956
28.839284,11.028316481803971,0.0815793820699852
28.843376,11.03722811032103,0.0810976230024233
28.847472,11.04053498778815,0.08064180461265152
28.851568,11.04283392348032,0.0801930887105929
28.855664,11.04233048364752,0.07975603975746613
28.859748,11.036787334939989,0.07935430784271523
28.863831999999995,11.028441810707488,0.07896384213753728
28.86792,11.023685153975034,0.07856167235073543
28.872008,11.01848559764284,0.07817596341856708
28.876092,11.012167374635768,0.07780086033134602
28.88018,11.001928109428842,0.07744825411276329
28.884272,10.98945151087215,0.07711685244256336
28.888356,10.983366155340478,0.07676367421411465
28.89244,10.973814074884228,0.0764459747297735
28.896524,10.966289295653402,0.07614495735716592
28.900572,10.956416458172878,0.07586847404106453
28.904668,10.945424954017474,0.07560176688434858
28.908764,10.933769100462458,0.07535848983781587
28.912859999999995,10.922567564182716,0.07512872370512876
28.916956,10.908120752778263,0.07492586869458967
28.920988,10.897938575949,0.07471947208316342
28.925016,10.885519065769975,0.07453318898084851
28.929108,10.877474915066072,0.07433922610774081
28.933195999999995,10.866074764337526,0.07417566124043842
28.937272,10.859947189959115,0.07400246510786858
28.941356,10.855503324430794,0.07382882476968769
28.945443999999995,10.851513776177747,0.07366851884753459
28.949532,10.84909721187485,0.07351215832535746
28.953627999999995,10.842981055171975,0.0733682002804264
28.957724,10.838327157519316,0.07323198765661036
28.961811999999995,10.835024794016945,0.07310742306320579
28.96584,10.831722430514567,0.07298266665893119
28.969924,10.82315890833759,0.07289714419120341
28.974011999999995,10.817397761685582,0.07280100904818455
28.978096,10.809842181283553,0.0727090878202587
28.982175999999995,10.802286600881523,0.07261684505633798
28.98626,10.796304004429647,0.07252828959167519
28.99034,10.793345233302611,0.07242108196980251
28.994416,10.789599970200499,0.07231182483792986
28.998452,10.786973373773264,0.07219205851732573
29.00248,10.781655126720995,0.07207878624463802
29.00656,10.780368646768514,0.07194083099049847
29.010591999999995,10.775947616591257,0.07182536768987148
29.014676,10.777242062363877,0.07168527626173885
29.018708,10.774836915736516,0.07155764611706039
29.022744,10.767613510034291,0.07145198839226627
29.026776,10.765319088306864,0.07132013169141144
29.030812,10.760443740854335,0.07119029846243126
29.03484,10.75826004402684,0.0710539932583543
29.038875999999995,10.755400580124206,0.07091168519844877
29.042919999999995,10.752762566021442,0.07076128163612783
29.046956,10.751132493693623,0.07060478489734356
29.050992,10.753644913365529,0.07042031786104436
29.055024,10.755370841062357,0.07023402818074011
29.059059999999995,10.756088826984238,0.07005330700117397
29.063088,10.759498463531154,0.06986679955057994
29.06712,10.76492398362796,0.06966889055929337
29.071204,10.767436403299865,0.06948467498486696
29.075236,10.771632531821856,0.06930092112456393
29.079263999999995,10.774709993668967,0.06912676217078144
29.08324,10.772969196441213,0.06897339237473601
29.087276,10.769212515663567,0.0688318516380999
29.091364,10.76478006781078,0.06868368778931058
29.095452,10.758996085807706,0.06852315572728554
29.09954,10.754220045579581,0.06835663966950487
29.103624,10.75235710577636,0.06817595326392378
29.107716,10.745000139823132,0.06801001839829592
29.111804,10.740445549394876,0.06783486632497587
29.115891999999995,10.738017567416447,0.0676441408266144
29.119983999999995,10.733684426788063,0.06746062510562004
29.124072,10.727667577309587,0.06727617530442988
29.12816,10.72187217763098,0.06708361003840545
29.132256,10.710472026902433,0.06690873721787467
29.136351999999995,10.6973881673238,0.06673264937551261
29.140448,10.685422974420046,0.06654631631299257
29.144544,10.675473665066182,0.06634912203271454
29.148576,10.662832705087288,0.06615668776502578
29.152664,10.651421136683208,0.06595002788278805
29.156748,10.63642070077908,0.06574917172146848
29.16084,10.622649656449768,0.06553402420043064
29.164932,10.615712754745214,0.06528727578009033
29.168972,10.60978379481561,0.06503475976627933
29.173064,10.603965559785935,0.06477738281268607
29.17716,10.595799266506566,0.06454289628225629
29.181256,10.588530190102205,0.06430709104631868
29.185351999999995,10.58137183859778,0.06406683658490446
29.189448,10.576905137718391,0.06382167015650556
29.193487999999995,10.565604294214246,0.06360630436916898
29.197576,10.552398292060143,0.06339767067501552
29.201671999999995,10.540200231680984,0.06318294570213055
29.205763999999995,10.528002171301827,0.06296740403320815
29.20986,10.511661618922947,0.06277701074765547
29.213956,10.497115500294091,0.06258283727031418
29.218044,10.480332048315473,0.06240687762664924
29.22214,10.46365932123679,0.06222619439818475
29.226236,10.439476684458208,0.06206810999243834
29.230328,10.413388889029669,0.061916001693568284
29.234424,10.385174485151301,0.061778151765324925
29.23852,10.357746573248008,0.061642430665904635
29.242616,10.331780920394936,0.061516116295291905
29.246704,10.299878341792116,0.06141775513445938
29.2508,10.267189271214223,0.06131561093422589
29.254888,10.235065242811535,0.061224218362553595
29.258984,10.20405988108373,0.061122599918413276
29.263084,10.166441826531036,0.06104172599547226
29.26718,10.128602322178473,0.06096862358934565
29.271276,10.087849717401005,0.060906990664236
29.275372,10.052026096598336,0.060821908084356266
29.279464,10.015194534020718,0.060741480356277744
29.283564,9.978362971443104,0.060660118721625654
29.287656,9.941531408865487,0.060577758876117764
29.291751999999995,9.9094073804628,0.06048056905441802
29.295852,9.877172627160178,0.06038707298466867
29.299948,9.85065334980743,0.060273229894187354
29.30404,9.825707056404838,0.0601650186072632
29.30814,9.80255519675227,0.060053744608752374
29.312232,9.781308495749657,0.059935125840141046
29.316332,9.764769328921975,0.05980181912365763
29.320428,9.7511432625192,0.05965620287028003
29.324524,9.7331418366413,0.0595113499253629
29.32862,9.719958669838261,0.05934745325001445
29.332716,9.70644332833542,0.059196080136266954
29.336811999999995,9.692473669557305,0.05902788516103465
29.340903999999995,9.680076994729347,0.058866061978697266
29.345,9.675300954501221,0.05867770735083221
29.349096,9.67175430584791,0.05847510528803893
29.353131999999995,9.669104874069612,0.058270558148325456
29.357223999999995,9.666566167191249,0.05806173243224094
29.361256,9.665821894062908,0.05785057679522982
29.365344,9.661943070709794,0.057659010661837755
29.369432,9.66143166505686,0.057472285599727155
29.37352,9.658117883878953,0.05729274089742996
29.37752,9.657827928025887,0.05709706575860041
29.381547999999995,9.651822496222945,0.056919903185002285
29.38558,9.643125413794966,0.056745335500864295
29.38966,9.636333490016947,0.056563848049249986
29.393699999999995,9.629320116439057,0.05639079614609917
29.3978,9.61737775888637,0.056239685984626274
29.401827999999995,9.602633025808712,0.05609530342343293
29.405908,9.59226365220618,0.05595044695750127
29.409991999999995,9.581894278603645,0.05580565767556762
29.414076,9.57174635480098,0.055651684767812445
29.418156,9.56317141494847,0.055504457551955565
29.422184,9.550221115620838,0.055356356126241596
29.42626,9.531444615443391,0.0552302176579096
29.430296,9.51143872369113,0.05511763598879394
29.434376,9.496251091013733,0.05498780053945536
29.438464,9.478039633011495,0.05487278519643116
29.442504,9.458930958134246,0.0547580995994988
29.4466,9.444751267231796,0.054621736362116244
29.450592,9.426085491954284,0.05448864531325472
29.454676,9.411340758876626,0.05433921286907674
29.458712,9.395366634224152,0.05420355601345023
29.4628,9.38633737709637,0.0540365352818503
29.466892,9.377197395068652,0.05387326238322655
29.470984,9.372986397015733,0.053689691915655986
29.47502,9.370902007412642,0.05349179613060198
29.479108,9.370157734284303,0.05327474939016728
29.48314,9.370310678030975,0.05305662116342019
29.487227999999995,9.368104145852415,0.05282672275226533
29.491312,9.362087296373943,0.05260737079006753
29.495404,9.356635489070673,0.05240060370055472
29.499496,9.351183681767404,0.052193831234743526
29.503584,9.350217958839195,0.05198411749103954
29.507676,9.350260177685936,0.0517680727668305
29.511764,9.353104772057643,0.05154647344734574
29.515844,9.352139049129434,0.051336159007597505
29.519932,9.353864976826262,0.05112400214415694
29.52402,9.354693687648076,0.05091177435150821
29.528104,9.35361723981993,0.05070492923144124
29.532191999999995,9.356351109291705,0.050487343365537396
