Time,Force,Position
26.842648,13.168494753935509,0.06738657787052865
26.846736,13.095453759333147,0.06743392653319658
26.850816,13.026112357130769,0.06747247094315262
26.8549,12.95867611357835,0.06750533547440853
26.85898,12.886643060750938,0.06754920312849402
26.863008,12.818309600323506,0.06758447544101687
26.867092,12.75164843107063,0.06759499846565263
26.871128,12.687224595167516,0.0675893424245922
26.875216,12.616077341539581,0.06760813320902279
26.879304,12.541230495511662,0.06763675618219508
26.883396,12.466494374383679,0.06766234242778657
26.887424,12.389963819505672,0.06769211456893431
26.891456,12.305812630027832,0.06774882428868895
26.89554,12.220088456599838,0.06780275887576817
26.899624,12.134475008071778,0.0678531975135089
26.903708,12.04516196714374,0.06791404279625472
26.907788,11.951473566740573,0.06797952771917475
26.91186,11.853409806862283,0.06805008168359186
26.915892,11.74974129593405,0.06813957706871704
26.919936,11.646970001880835,0.06822621334004011
26.924032,11.550689258077036,0.06826539259437941
26.928128,11.457875239197817,0.06827329862875443
26.932224,11.360685860843471,0.06828503705621476
26.93632,11.263607207389065,0.06829249435811334
26.94036,11.169220204559688,0.06829619547434801
26.944392,11.070347117355258,0.06830864840404963
26.948476,10.970133913676076,0.06833827066253012
26.952564,10.86622111759691,0.06837913528620512
26.956656,10.761632554442595,0.0684171177970651
26.960744,10.657043991288285,0.06845720009181529
26.96484,10.552455428133978,0.06849777720659947
26.96888,10.45156645737965,0.06852812329825658
26.972976,10.35448780392524,0.06854455523764191
26.977072,10.256069033996079,0.06858299251866862
26.98116,10.152266962816848,0.06863424747546182
26.985256,10.048575616537551,0.06868276957560324
26.989348,9.945781487133262,0.06873020021982221
26.99344,9.843663124804118,0.06878692074190143
26.997536,9.747038788624982,0.06882925572990131
27.001628,9.648177119096077,0.06889422656666713
27.005724,9.542714174417823,0.06902313738853125
27.00982,9.436586880339958,0.06917960927063554
27.013912,9.328222252912331,0.0693638334274226
27.017944,9.21963617568483,0.06955875854730711
27.022032,9.11037433138219,0.06974904169974896
27.026072,9.002685471029706,0.06994968542259947
27.030172,8.89779898620219,0.07014085213600044
27.034208,8.797287860849798,0.07032841331319276
27.038296,8.705073137172384,0.07048621646419906
27.042292,8.619581831219794,0.0706068932509864
27.04632,8.533082583492254,0.07073748498600071
27.0504,8.444678177114758,0.07088033398077499
27.054476,8.359076146262232,0.07101072069897081
27.05856,8.281537649609279,0.07108078683829355
27.062644,8.207477295556437,0.07114884690268913
27.066736,8.133416941503599,0.07121858894845148
27.070788,8.05464905327583,0.07131605742952296
27.074828,7.978007773497888,0.07139377077046037
27.078912,7.897999076019769,0.0714725455867498
27.082992,7.816306669691561,0.07155511971494835
27.087076,7.737970263387997,0.07159991466675854
27.091156,7.656155714484324,0.07165425191712267
27.095184,7.575570557155465,0.07169302112764536
27.099268,7.489602098576535,0.07175462598754823
27.103348,7.400609814672765,0.07184902681857283
27.107432,7.31475208099377,0.07191028057377456
27.11152,7.225305479814728,0.0719865454747632
27.115608,7.133167228010651,0.0720761075328342
27.1197,7.034637733181555,0.07219579176259938
27.123728,6.923558619777827,0.07242152768833575
27.127712,6.808890638874052,0.07267472271723421
27.131804,6.6924282242202535,0.07294755189036221
27.135892,6.567558682991544,0.07328879649815469
27.13998,6.430250248088138,0.07374640861428446
27.144072,6.288234279009803,0.0742667947520298
27.148108,6.14352665930643,0.07482217238005606
27.1522,6.004645240452869,0.0753364390524969
27.156284,5.859261853674355,0.0759251252524728
27.160368,5.714554233970983,0.07654587699081787
27.16446,5.567498556017913,0.07726796044665696
27.168556,5.421462237515323,0.07806421823863241
27.172652,5.277907537513432,0.07898199658705973
27.176748,5.141099090587428,0.07998554801904467
27.18084,5.01249915578753,0.08111429506428243
27.184936,4.8967045423887345,0.08229561002157922
27.189024,4.782517165966691,0.08372611730559625
27.193116,4.673525894021447,0.08540208009795795
27.197208,4.5723116522781035,0.08728799136312479
27.201304,4.48011524998701,0.08941336167970997
27.2054,4.408932681223125,0.09161998589978242
27.209492,4.356870205012021,0.09395968934127846
27.213588,4.323263471954091,0.09645816068955973
27.217684,4.31013978327476,0.09914312558391712
27.221776,4.326814900099484,0.1018907349921522
27.225868,4.375083256178287,0.104623331983575
27.229964,4.453161835436678,0.1074045316977867
27.23406,4.555556611724651,0.11027954957309975
27.238156,4.6947064787169035,0.11305884214749887
27.242252,4.862536484538329,0.115822566984081
27.246348,5.060043153288341,0.11849209720930674
27.250444,5.280270199766717,0.12111848607300095
27.25454,5.525443539647685,0.1235886024745441
27.258632,5.784120803355964,0.12600682923622114
27.262728,6.060776657591079,0.12826468737328134
27.266828,6.350249250902827,0.130420068053403
27.27092,6.6567803825153335,0.1323131660797688
27.275016,6.983615327553307,0.1338824106159383
27.279116,7.322335541766303,0.13519492189922908
27.283216,7.672032390603778,0.13621440350398567
27.287312,8.02170640409019,0.13706061080500354
27.291344,8.370559672574922,0.13770435285446436
27.295432,8.71565626028201,0.13811397086226063
27.299516,9.059554257585486,0.1381957867974201
27.303604,9.388329676409368,0.13807690846312173
27.3076,9.694129014678419,0.13786387300878225
27.311692,9.974703521367344,0.13754694999075512
27.315784,10.231515455526363,0.1371351628019024
27.319872,10.457841399430649,0.13674410625228056
27.323904,10.657159495680318,0.13633118729129717
27.327988,10.836315304575662,0.1358564756375997
27.332068,10.994976651416872,0.1353318215945688
27.336048,11.131471245029394,0.1348067575697979
27.340136,11.25466052926341,0.13420263751577816
27.344172,11.356702419719214,0.13361118086068674
27.34826,11.434683815971907,0.13306182738790043
27.352288,11.493102220072076,0.1325505008377923
27.356372,11.528147314719806,0.13211570665974937
27.360456,11.54576744334038,0.1317155377719427
27.364544,11.550116515609043,0.13132848321167612
27.368572,11.545126991401187,0.1309391581213181
27.372608,11.530466696017008,0.1305604018912488
27.376696,11.50592559733216,0.13022775301604508
27.380728,11.469609954372226,0.12998557177067221
27.384824,11.427246660762613,0.12980753967708952
27.38886,11.38298962617857,0.12967405364543005
27.392948,11.343562268344927,0.12952138130223503
27.396984,11.308399545086473,0.12934320259361412
27.401032,11.27537484795338,0.1291665008943351
27.405016,11.24863066894537,0.12894289194939365
27.409108,11.218751939712584,0.12875505731870002
27.413196,11.18775454380492,0.12858124148756322
27.417288,11.160013840697495,0.1283938233641431
27.421376,11.131043746015255,0.12822485622259702
27.425464,11.110259328108057,0.12799343800086999
27.429556,11.099565745625856,0.1276826769652455
27.433648,11.09088804669355,0.12734915443078382
27.437728,11.08792582371112,0.1269635541014333
27.44182,11.094378669078546,0.1264988562067334
27.445856,11.098029138921007,0.12605681344989073
27.449888,11.104592709188369,0.1255885281888994
27.453972,11.111942771430808,0.1251188974930764
27.45806,11.123889642948242,0.12461460346601655
27.462144,11.141662715315485,0.12405728709242056
27.466176,11.16593775560768,0.12344957909385201
27.470204,11.193347346124654,0.12280587416338297
27.474292,11.218065286016587,0.12218155325651593
27.478376,11.23818641663353,0.12159163924660463
27.482408,11.258528997050343,0.12099198836569136
27.48644,11.27685569391726,0.120415970360423
27.490468,11.300000649859042,0.11979872202957233
27.494552,11.326734473300872,0.11915876927788074
27.498636,11.350776646117664,0.1185372079982381
27.502712,11.375716035809468,0.11791081191677158
27.506748,11.393145515801374,0.11734487558731233
27.51078,11.406653953593429,0.11681711691604064
27.514816,11.423861983785464,0.11626405954238304
27.518852,11.438943405527674,0.11573653321702256
27.522884,11.442483150470192,0.11530603258387308
27.526972,11.45061970468771,0.11484428038200784
27.531016,11.455732433580385,0.11441276758254185
27.535052,11.460845162473065,0.11398186655068433
27.539144,11.466068616265675,0.11354883910950324
27.543232,11.465355144308539,0.11316897797399303
27.54732,11.464530947451474,0.11279545205263229
27.551356,11.464947559844754,0.11243354501673802
27.555388,11.469628806813223,0.11205536866373622
27.559424,11.483171497631876,0.1116325510368655
27.5635,11.501986764800666,0.11118592361535144
27.567528,11.518453973719756,0.11076984038552007
27.571612,11.531454457714268,0.11039868829614335
27.575648,11.54423349190891,0.11003727413413807
27.579684,11.55959345182865,0.10966590377120537
27.583764,11.577534337473493,0.10928618097587586
27.587844,11.601866466143353,0.10886966799871009
27.591872,11.626874361888355,0.10845720196609533
27.5959,11.650652866058541,0.10806426792169556
27.599936,11.67298052885404,0.10769583397253124
27.603968,11.70281810134944,0.10727703432793788
27.608064,11.731537007169958,0.10687375915263804
27.61216,11.763058288515449,0.10645433589040289
27.616256,11.793460903186054,0.1060483460172997
27.620296,11.821626184506897,0.10566958536812343
27.62438,11.854720449802539,0.10525281903104305
27.628464,11.88310718092325,0.1048681003367768
27.632556,11.908126494343785,0.10449386402628456
27.636648,11.932359315789242,0.10412295279094062
27.640736,11.951995327959706,0.10378109015384407
27.64482,11.967034530855177,0.1034662331908705
27.648912,11.984200342200475,0.10313083803996712
27.653008,12.002706270020525,0.10277559266183554
27.657096,12.020204256065629,0.10242948282305982
27.661188,12.040504617635703,0.10206944983754938
27.665276,12.05912127035569,0.10171590228699821
27.669364,12.075832764425716,0.10137641958176426
27.673456,12.092544258495742,0.10103744517458628
27.677544,12.110152969440783,0.10069610148139141
27.68164,12.132801389260557,0.10031648437192395
27.685736,12.153655375330302,0.09994642833083706
27.689824,12.17260420275009,0.09958866118695148
27.693916,12.191663755069815,0.09922936470859482
27.698004,12.213747132714378,0.09884841966496302
27.702096,12.235265468183735,0.09846017305222472
27.706184,12.255443687178342,0.09809271012916143
27.710276,12.27651912304796,0.09772110895313936
27.714368,12.30129415131756,0.09733181207813993
27.718456,12.322258862287242,0.09696568040109503
27.722548,12.338737488881865,0.09661764006724
27.726636,12.357231999026382,0.09625558636262427
27.730728,12.375161466995692,0.09588644349971473
27.734824,12.395106818514895,0.09550435120089898
27.738916,12.417289503383863,0.09510181589825925
27.743008,12.433978162102823,0.09472551852124622
27.747044,12.446967228421801,0.09436690758864041
27.751132,12.456367427240734,0.09402203282810709
27.75522,12.467894234509492,0.093660237067404
27.759308,12.473029798753233,0.09332552978381045
27.7634,12.476703103946754,0.09298795147097162
27.76748,12.484186726440196,0.09263135901174244
27.771568,12.495812840933358,0.0922445233220343
27.775656,12.503628638126601,0.0918785737029463
27.77974,12.508642059794877,0.09152670053646718
27.783836,12.515560640113108,0.09116538773141912
27.787928,12.522024903156069,0.09079326973923006
27.792028,12.532520933298816,0.09039535759791345
27.796124,12.541333254591475,0.09000122604987555
27.800216,12.55137496745895,0.08959281207480124
27.804316,12.563211114076447,0.08917696515764778
27.808412,12.576841694443969,0.0887573054699404
27.812444,12.59473690938668,0.08833209178028455
27.816484,12.612299949629588,0.08791998158899933
27.820572,12.627847106322605,0.0875223994967972
27.824656,12.645299421665575,0.08711565920116915
27.82874,12.670261646708447,0.08667745793001906
27.832824,12.700717897901322,0.08622003249879327
27.836904,12.730276932219187,0.08576798431256306
27.840936,12.769361759786843,0.08527253640999245
27.845016,12.807217195779684,0.08479273052222387
27.849096,12.84025437269766,0.08433941731031319
27.85318,12.868251840740902,0.08391835942820683
27.85726,12.901854059834086,0.08347681181612979
27.861296,12.938258654452241,0.08302599295486734
27.865324,12.976568407720356,0.08257004309140391
27.869408,13.018577753388449,0.08210428206200375
27.873492,13.058571215506651,0.08165354606367332
27.877576,13.099351169599931,0.0812058264920396
27.881664,13.140806890768351,0.08076367629247765
27.885688,13.188764579861724,0.08030116862612822
27.889724,13.230109576130209,0.07986592122256847
27.8938,13.265960546248689,0.07944958428205288
27.897884,13.30034925731695,0.07902960979608019
27.901968,13.333619301710328,0.0786192327753694
27.906008,13.365881404328762,0.07821514918048429
27.91004,13.390633597247295,0.07784020749103876
27.914128,13.413591356415806,0.0774715762886637
27.918164,13.435319724009497,0.07711612319575203
27.922204,13.451111165853447,0.07679152117197888
27.926296,13.467689099672473,0.07646906120049178
27.930328,13.482472599741476,0.07615018323847178
27.93442,13.501963633985405,0.07581550929455903
27.93846,13.513834033629502,0.07551037851982065
27.942552,13.523688549723705,0.07521669678988156
27.946652,13.526598198293215,0.07495636871710845
27.950776,13.52267370423797,0.07472613679689302
27.954868,13.51583610975782,0.07450801685285537
27.958904,13.507879848602789,0.07429845428405951
27.962996,13.501939470997648,0.07407894512920757
27.96708,13.489497125467556,0.0738789276501533
27.971164,13.479635705662565,0.07367615918541666
27.9752,13.467758402307679,0.07348274944714549
27.979228,13.453422315803161,0.07331223494106782
27.983312,13.439086229298645,0.07314140407424677
27.987392,13.426544576544153,0.07296691082578585
27.991472,13.41568663263975,0.07279170181083353
27.995556,13.400121154560416,0.07263129805892958
27.999635999999995,13.380966808981034,0.07247728686720538
28.003672,13.359231537676553,0.0723244932083855
28.00776,13.33077284864725,0.07219643608910746
28.011848,13.303997868468036,0.07206764509926156
28.015876,13.267697095039027,0.07197207692333638
28.01996,13.235206638909938,0.07186245491271762
28.024,13.201597516105966,0.07176071193850138
28.02808,13.171909435501844,0.07164171571091615
28.032172,13.141324138022714,0.07152385082596416
28.03618,13.111525332518656,0.07140718180152003
28.040284,13.079034876389569,0.07129503834281647
28.044328,13.03859161096084,0.07121939039166811
28.04838,13.000839996157145,0.07113796359490067
28.052476,12.963309831153321,0.07104924600239708
28.056536,12.930487200324427,0.07094498312641527
28.060584,12.897775294395464,0.07083699192827177
28.06468,12.865174113366443,0.0707250234471267
28.068732,12.830557048787524,0.07062258896692081
28.072784,12.793924100658709,0.07052971746427852
28.076836,12.761777236904958,0.07042820794487872
28.080836,12.733219240651252,0.0703197024999598
28.084932,12.707917937197786,0.07021449706141575
28.088984,12.68855355949407,0.0700820846530791
28.093084,12.669189181790353,0.06994929318267357
28.09718,12.658453380461415,0.06978453885403384
28.101224,12.645812420482521,0.06962605240623633
28.105276,12.630479809878592,0.06947173461541871
28.109304,12.614028532599777,0.06932558530022412
28.113384,12.599482413970922,0.06917220265277334
28.117467999999995,12.584260528266928,0.06901304865675258
28.121512,12.571841018087902,0.06884533284455377
28.12554,12.568271534083527,0.06863916801008416
28.129624,12.559883791004285,0.06845065996371165
28.133716,12.553290481675072,0.06825907757297425
28.137744,12.543894796820886,0.06807529702072977
28.141824,12.536736445316462,0.06787442356668652
28.145904,12.526775718287071,0.06768073316698593
28.149988,12.5134475735575,0.06748513052938837
28.154032,12.505048412802726,0.06726812009829984
28.158112,12.492163167672897,0.06705786318789293
28.162196,12.481404530992894,0.06683449003984326
28.16628,12.472207460587512,0.06658903156812358
28.170364,12.46211317330712,0.06634473864167853
28.174452,12.450113727376767,0.0661059450549873
28.178484,12.436430572596327,0.06586654471395431
28.182564,12.422636692915951,0.06562988896864919
28.186648,12.411866638560415,0.0653779772700099
28.190736,12.40053154202967,0.06511638830364909
28.194824,12.394125429473728,0.0648346619727717
28.198912,12.389735200467678,0.06454318139397155
28.202952,12.382542595936659,0.06425836729543863
28.20704,12.369745240355696,0.063987809629022
28.211128,12.35817727634955,0.06370426968473195
28.21522,12.342123227968347,0.06342606880040394
28.219308,12.328085063137033,0.0631380195175216
28.223392,12.310015131205937,0.0628676601127472
28.22748,12.296652733449768,0.06258383303957961
28.231564,12.287665695168723,0.062296742451611674
28.235656,12.273073905837737,0.06202296369491358
28.239744,12.263189650681678,0.06173596937231221
28.243832,12.247589919575748,0.06146554192550646
28.247924,12.227736971570158,0.0612198270709683
28.252012,12.209457007514724,0.0609787375660185
28.256104,12.195098085659144,0.06072251924765022
28.2602,12.17558873002889,0.060491423816732455
28.264292,12.158316707748405,0.06024372169349968
28.268376,12.139926018793036,0.06000329053503943
28.272464,12.12041666316278,0.059769789688960524
28.276551999999995,12.094970381782783,0.059559183567234684
28.280636,12.065381608403062,0.05936895046932595
28.284728,12.037587268773368,0.05917598862744158
28.288816,12.011476637993763,0.058983805803557096
28.292908,11.988168382739126,0.0587845283699113
28.297,11.966543836334578,0.05858589580156513
28.301092,11.943800623255148,0.05839470115138566
28.305188,11.925543494550777,0.05819868389334043
28.30922,11.904262540521565,0.058015404627992505
28.313308,11.881297877642265,0.05782963603591464
28.317396,11.861024865387998,0.057640527351171485
28.32144,11.835933594058872,0.05746534158942307
28.325472,11.810620872929878,0.0572961435830236
28.329564,11.787434760250708,0.05711387821919905
28.3336,11.760549055171557,0.05693774291311221
28.337696,11.729742307892552,0.05677467090740215
28.341784,11.703975269488282,0.05658898036230519
28.34582,11.677765331484274,0.056417178202684895
28.349904,11.652452610355274,0.05624393970980483
28.353932,11.625910497651462,0.056081240798960943
28.358012,11.598249718272765,0.05592561267888294
28.362068,11.571486155769085,0.055768403335631864
28.366156,11.54662775191536,0.055605685243896974
28.370244,11.523674506711597,0.05543755091945782
28.374288,11.497475986383122,0.055288993039003996
28.378332,11.472850450004799,0.05514597605301104
28.382376,11.44822491362648,0.05500237525284661
28.386408,11.423820827048031,0.05485129572376397
28.390496,11.40031395734459,0.05469904819410731
28.394592,11.377482854716291,0.054552843175960396
28.398684,11.35454102718806,0.054409796003559156
28.40278,11.336196008934822,0.05425967588646982
28.40682,11.321550583081565,0.05410308485819305
28.410912,11.306683707428439,0.053953416097511905
28.415012,11.292714048650328,0.05380252210354562
28.419052,11.279641606747225,0.053650412066347714
28.423156,11.26433183149436,0.05351372186373093
28.427192,11.242520088316542,0.053387246336555505
28.431292,11.220708345138723,0.05326022898155307
28.435324,11.206849411260544,0.053103011888987604
28.439416,11.199713895107188,0.05292746322369528
28.443504,11.198404579803638,0.05273436646557298
28.447596,11.193960714275319,0.05255731843007408
28.451688,11.18828745717218,0.05239195340023157
28.455784,11.186645967168833,0.05220986158137665
28.459828,11.183431493215327,0.05202090286612205
28.463868,11.181114236136834,0.05183146301150614
28.467964,11.17599460353337,0.05164673174725415
28.472056,11.171772187804917,0.05146151262834084
28.476156,11.171249364476447,0.0512715861928821
28.480252,11.171734482922924,0.05107757913362716
28.484348,11.171211659594455,0.050887822623227406
28.488444,11.17270471981588,0.050690543499911145
28.49254,11.174308504937239,0.05048938858927757
28.496635999999995,11.17871466558357,0.050283748786089086
28.500732,11.184915259979922,0.050077426152672
28.504828,11.194926171676192,0.04986296388490301
28.508924,11.214352151722318,0.049630991565629744
28.51302,11.23344595706864,0.04940998850579047
28.517116,11.246492111765281,0.04921328830405045
