Time,Force,Position
28.629304,13.79686599924614,0.06806375702314799
28.633388,13.699782831826989,0.06853294534445291
28.637476,13.596274168356219,0.06894764031958386
28.641504,13.482197516834109,0.06932900649482529
28.645584,13.357885051960471,0.06966955126411886
28.649664,13.225806974560463,0.06997301611948345
28.653748,13.084168850884062,0.07024136733648202
28.657832,12.934543664881424,0.07047852374257854
28.661916,12.780298834252726,0.07068242785864007
28.666,12.625023226498017,0.07084421016222776
28.670084,12.459313190942968,0.07102583621968778
28.674164,12.290346462587681,0.07121105198973937
28.678252,12.12070396715725,0.07139624709094175
28.68234,11.948480546001718,0.07158748907856706
28.686376,11.76841504044648,0.0718246994394724
28.690468,11.580950350091282,0.07209114556483677
28.694552,11.386762242011258,0.07240122781286479
28.698636,11.188088049556177,0.07273276322782085
28.70272,10.983919830951088,0.07309504274821496
28.706756,10.781767495895895,0.0734571788230867
28.710784,10.579615160840701,0.07382957129533264
28.714872,10.378802942260258,0.07419839039444633
28.718964,10.173615364204691,0.0745868945848552
28.723052,9.963155209798986,0.07500598770203737
28.727076,9.75460021404324,0.07542909320261189
28.731168,9.548958318712401,0.07584878473513978
28.73526,9.345110857131585,0.07627888633460661
28.739348,9.141152670650829,0.07673468270358322
28.74344,8.933605616670029,0.07721972315321758
28.747424,8.721240303614366,0.07774992153888682
28.751464,8.515266233583722,0.07828588379010305
28.755556,8.313667523028201,0.07883204439084505
28.7596,8.11184736267281,0.07941369792742851
28.763688,7.9105922444926255,0.0800350688276547
28.767784,7.718530744862429,0.08063743694835077
28.771824,7.53454419710734,0.08122456855958006
28.775864,7.3600834426020425,0.08176958114784075
28.779948,7.189998047571869,0.08232918002617219
28.78404,7.029216995991619,0.08284575309917822
28.788136,6.872922028786427,0.08335459093894518
28.792172,6.7155083949063545,0.08391285003930693
28.796216,6.563256612476483,0.08447799697971237
28.800244,6.418858332121848,0.08503184033574931
28.804272,6.2853373791672915,0.08553842175804147
28.808356,6.15058703463792,0.08610467791511871
28.81244,6.0185283407335834,0.08666972830411838
28.816524,5.890058514329294,0.08723289778833083
28.820608,5.77010653939985,0.0877252192093026
28.824648,5.654087024345791,0.08826268884388405
28.828676,5.542332143866922,0.08881634244128528
28.832756,5.436403464237862,0.08931353899146376
28.83684,5.33237994325876,0.08980859072128111
28.84092,5.235977056879494,0.09022492428782918
28.844948,5.148767789050216,0.09056176098311558
28.848984,5.062455738095948,0.09090497017673123
28.853012,4.975811512441877,0.09129020053262994
28.8571,4.8935426462629295,0.09164728030088293
28.861188,4.815870589358975,0.09197061003811502
28.865284,4.740779458180123,0.09227724661298428
28.869372,4.663561718551441,0.09264798405325883
28.873404,4.59060861349795,0.09303011994292903
28.877492,4.524943968344488,0.0933295349655241
28.88158,4.459279323191026,0.09363799080104328
28.885668,4.39159879448767,0.09399581010036302
28.889708,4.334230551009185,0.0942174509419014
28.893748,4.279553958155734,0.09441325056190913
28.897844,4.225774582177295,0.09460829346749698
28.901936,4.1677419892992,0.0949188219006086
28.905984,4.114306205696098,0.09518831200732547
28.910016,4.062221956243281,0.09550858130314571
28.914048,4.012397875491293,0.09593418774326817
28.918136,3.965952630115015,0.09644044794765974
28.92222,3.9227869128900457,0.09710804540265501
28.926312,3.8777388723661836,0.09799564171989672
28.930344,3.8388834604185345,0.09899485920026221
28.934372,3.8081258356970573,0.10005931670158812
28.938452,3.7809913315022268,0.10132212308667989
28.942536,3.763760465959124,0.10267158369429635
28.94662,3.749599096442995,0.10426962663224128
28.950696,3.7506139419287283,0.10587524410385526
28.954736,3.770615319716244,0.10738095768858041
28.958716,3.793808336106199,0.10915235177916763
28.962796,3.831856810473747,0.11099473952129603
28.966872,3.8854365098940296,0.11290615636172846
28.970956,3.949729175292184,0.11496581988709906
28.975044,4.024856949243676,0.11722699280444718
28.979072,4.120799942273574,0.11950408150506102
28.98316,4.2429414556319465,0.12169919532086279
28.987196,4.387914071618615,0.12384283314193029
28.991284,4.555939240033451,0.12590169783715988
28.995364,4.742740908625732,0.12785515447240228
28.999452,4.95179721999557,0.12966377256909392
29.003544,5.175132529492261,0.13135332814804537
29.007632,5.417232921490866,0.13285254480862796
29.011724,5.673157994341051,0.13421407383859174
29.015812,5.937967346392487,0.13548189932941715
29.019908,6.215459877269554,0.13653810453475618
29.024004,6.496995592921943,0.13749901339467935
29.0281,6.791313794624366,0.1381891382755062
29.032192,7.08843437185176,0.13878978482586893
29.036288,7.381966081579106,0.1394199464409778
29.040384,7.678842373655564,0.13983966870143502
29.044428,7.9722176877808435,0.1401638327560836
29.048516,8.262756373354556,0.14035580545527845
29.0526,8.547877504651597,0.14045218111768853
29.056688,8.83394948934592,0.14028970975880042
29.060724,9.105830365462262,0.1400744474111317
29.064812,9.359133355849963,0.13982847456895336
29.068908,9.59083463518418,0.13959414605530018
29.073,9.806760404314728,0.1392957197785501
29.077088,10.003222488517157,0.13900825746688614
29.081176,10.176964194991223,0.1387546768690147
29.085264,10.336846967587112,0.13845059400938753
29.089352,10.480179155679783,0.1381210070252267
29.093444,10.6090987853946,0.13776635127738826
29.097532,10.72865698328183,0.13735275256349025
29.101624,10.83280609869179,0.13696170309165215
29.105716,10.927605199949701,0.1365443649645224
29.109812,11.006441594230665,0.13617008266168348
29.113908,11.07402281570962,0.13578773791041554
29.118,11.132143298136583,0.13538074909767467
29.122096,11.182941067636921,0.13495149671876203
29.126188,11.2242895157608,0.13452601201460634
29.13028,11.258658843333391,0.13409433885449876
29.134376,11.288519251179856,0.13364350516093634
29.138472,11.307380189050777,0.1332612395575819
29.142568,11.324213825696273,0.13287475251913225
29.146664,11.336229203266901,0.13253587327935362
29.15076,11.35014973948749,0.1321792628226108
29.154852,11.359141291733282,0.1318753868843539
29.158948,11.370148727528964,0.13154944738650892
29.16304,11.383958538849615,0.131199181459925
29.167136,11.392839366195473,0.13090066998938057
29.171236,11.403293177491483,0.1305989450718684
29.175332,11.408928729712626,0.1303433209259384
29.179428,11.41064323973392,0.13012817353586142
29.18352,11.412468474655148,0.12990879298696056
29.187616,11.412499275826352,0.129703035407444
29.191712,11.412751526797427,0.12948824108151244
29.195804,11.412106560893493,0.12927996672872813
29.199896,11.412248086964631,0.12906990372101956
29.203992,11.41429477168573,0.12884351159052768
29.20808,11.421048990581756,0.12857701363469748
29.212176,11.427016717502706,0.12831318017895849
29.216272,11.428719809848468,0.12807223472039792
29.220368,11.430422902194229,0.12783101228536745
29.22446,11.431450227464845,0.12758777993897097
29.228556,11.439422420260158,0.12727533859897647
29.232656,11.448513279730351,0.12694943188983035
29.236748,11.461746631200263,0.12657786522738934
29.240848,11.4741934906951,0.12620920774691086
29.244944,11.48451374174011,0.1258661424265238
29.249036,11.49696060123495,0.12549722148421755
29.253132,11.505707868329802,0.12515735405719222
29.257228,11.522407944724296,0.12473991468382739
29.261324,11.539661645618466,0.1243008747348834
29.26542,11.55489946296274,0.12388221498662853
29.26952,11.569461513231872,0.12346130700578113
29.273616,11.587833880800918,0.12300989500025267
29.277712,11.609119348794874,0.12253386394653441
29.281744,11.629053282638544,0.12205369549772115
29.285832,11.644501132107155,0.12160413100099203
29.28992,11.655352172300773,0.12118882920892046
29.294008,11.664298053844433,0.12078917493068454
29.2981,11.676722077988206,0.12037086639100145
29.302188,11.691715610181543,0.11991254458210063
29.306272,11.707717084149829,0.1194458893917813
29.310368,11.719121748843119,0.11901360328879979
29.31446,11.726826821136429,0.1186082935061353
29.31856,11.729935084154743,0.11823493216316734
29.32264,11.733043347173057,0.11786203479612034
29.326728,11.739396885316083,0.11745282939922488
29.330816,11.750236507834167,0.11701856171793158
29.334908,11.761076130352254,0.11658324473782827
29.338996,11.76810543557042,0.11617988253753782
29.343084,11.776142682563536,0.1157676430190555
29.347172,11.786417262906413,0.11532830479712093
29.35126,11.79859700189925,0.11487534532194954
29.355348,11.808195815166988,0.11443589211593712
29.35944,11.815102977809687,0.11401286018076318
29.363528,11.81988353200256,0.11361148110281226
29.367616,11.826569244845386,0.11319592190674732
29.371712,11.83549229103798,0.11275408717138774
29.3758,11.847439162555414,0.11228553840229874
29.379884,11.858820991897637,0.11181103205910153
29.383968,11.863933720790314,0.11139780106679223
29.38806,11.86714129103303,0.11099899069559653
29.392148,11.867657210650714,0.11061368500538285
29.396232,11.872204897368183,0.11019325822420552
29.400316,11.87944423471069,0.1097579275840818
29.404396,11.886683572053192,0.10932325424955545
29.40848,11.892804242720818,0.10890324398162503
29.412564,11.89656543746321,0.10848755858675846
29.416644,11.90357190733031,0.10803823750202637
29.420728,11.91506446157247,0.10756886421416079
29.424808,11.927232782889773,0.10710432971551784
29.428888,11.941195537957102,0.10663271130495164
29.43296,11.956166234799372,0.10615514417877675
29.437044,11.973717857366747,0.1056709972568581
29.441136,11.993739680759287,0.10518329172617043
29.445224,12.020263472076781,0.10465965416295936
29.449312,12.047684480269284,0.10413389172174123
29.453404,12.075670530636994,0.10361785786395401
29.457492,12.102537914329824,0.1031157577667436
29.461576,12.131089006872742,0.10261202088649116
29.465656,12.16871157539018,0.10203846183293738
29.469744,12.208460752357446,0.10144760758702362
29.473832,12.255719839024612,0.10081593304913253
29.477924,12.300963042141884,0.10020377094697477
29.481952,12.345530478184015,0.09958960222320477
29.486036,12.390430088925951,0.09896652537992479
29.49006,12.434986107292552,0.09833176388850476
29.49414,12.475731808359232,0.09772105555446696
29.498172,12.516366784525978,0.09711792755324554
29.502264,12.549824025692633,0.09654707060605237
29.506348,12.5845106584341,0.09596492043727889
29.51044,12.617624307225414,0.09538557107322286
29.514528,12.647935580491755,0.09482280385201877
29.518576,12.668942510308177,0.09430510170270018
29.522668,12.689495122849326,0.09377860082760568
29.526704,12.707688259465243,0.0932548470834282
29.530752,12.72330047035606,0.09273820508979552
29.53484,12.737450422196655,0.09221830064682024
29.538924,12.752043273636993,0.09168501572256166
29.54302,12.764165924252165,0.09115565221202174
29.547104,12.769343707342644,0.09067148842613831
29.551156,12.771719114908153,0.09020071272956856
29.555252,12.770394930073678,0.08974771291461744
29.55934,12.768394978164066,0.08929071060250825
29.563432,12.771102560429378,0.08881336882311278
29.567524,12.77078631736985,0.0883550970904628
29.57162,12.767335524085548,0.0879194051188199
29.575712,12.76478194767626,0.08747968869539069
29.5798,12.761552604191827,0.08703646416923472
29.583836,12.757647493632255,0.08658717482067346
29.587924,12.749145573797685,0.08615541428538563
29.591968,12.73974643708811,0.08572631612328015
29.596064,12.728663591528441,0.0852980822546373
29.600112,12.727549438818302,0.08480991282576059
29.6042,12.720941259958161,0.08434047612722431
29.608284,12.71242792244806,0.08388019454355986
29.612368,12.706716960462927,0.08340858453735897
29.616404,12.703919098902702,0.08292311411751303
29.620488,12.702804946192565,0.0824374809494137
29.624568,12.69978563483247,0.08195948230967015
29.628644,12.701916757247043,0.08144847745818873
29.632676,12.704047879661617,0.08093672091166718
29.636756,12.703598076351087,0.0804281761892298
29.640792,12.702029606365677,0.0799285191295984
29.64488,12.69597505200521,0.07944194844061411
29.648968,12.693165772769452,0.07893057736718853
29.653048,12.691475160208574,0.07840872448428904
29.657132,12.69291909787247,0.07786664845502123
29.661204,12.690441993336519,0.07734288773704358
29.665288,12.693458914950572,0.07680289391443432
29.669368,12.698270270314651,0.0762579509803156
29.673448,12.700279250153756,0.07572163910701821
29.677532,12.702398954892795,0.07518030654791345
29.681616,12.697573792107145,0.07467446593546379
29.6857,12.695551004846463,0.07415720209666182
29.68978,12.688931408310788,0.07365123714247021
29.69386,12.677825727400053,0.07315420211964481
29.697896,12.660107353664433,0.07268000701693465
29.701984,12.637005678678738,0.07221606068098925
29.70608,12.615809162343005,0.07174345127533915
29.710168,12.58811067808232,0.07128893270659543
29.714196,12.560412193821634,0.0708327378717526
29.71828,12.529800609136041,0.07038558571589132
29.722372,12.495821606750273,0.06993523439115591
29.726468,12.456127128414629,0.06950245438340957
29.730564,12.413408824754145,0.06908313841701
29.73466,12.367888145568688,0.06866916019817014
29.738756,12.31643054063349,0.06828001942483128
29.742852,12.26519438549816,0.06788035944040136
29.746892,12.206559045562866,0.06749724452658193
29.750988,12.143548346152446,0.06711445077934698
29.755076,12.080426921842093,0.0667316106813604
29.759168,12.015400338881781,0.06635128229187813
29.763256,11.94869004707138,0.06596599682248346
29.767344,11.878169437961063,0.0655895726845635
29.771384,11.81336430480062,0.06518966581669351
29.77542,11.745646071215273,0.06479632305786953
29.779464,11.678825054504934,0.06439716603219055
29.783564,11.609988154244702,0.06400326608270664
29.7876,11.538348878459502,0.06361300527659133
29.791632,11.467496094649377,0.06322028811955124
29.795664,11.392943718439271,0.062831827883703
29.7997,11.32410681817904,0.06242053221447345
29.803728,11.25785084364391,0.06200443776625509
29.80776,11.193389302858805,0.061580715804004184
29.811796,11.127133328323675,0.06115453650339647
29.81582,11.061663845763622,0.060726197994789996
29.819848,10.996305088103503,0.06028913413630463
29.82388,10.932630039293471,0.05984934434721357
29.827916,10.869852207358452,0.05940270203820961
29.831944,10.808536634473654,0.05896039008533852
29.835988,10.747331786488791,0.058509347846899554
29.840024,10.687024155378937,0.05805199226569948
29.844064,10.630083941969264,0.05759425962968772
29.848104,10.576732596059637,0.057128412315696014
29.852144,10.5201359750253,0.05668154451655444
29.856176,10.468922655241032,0.05622531456116209
29.860212,10.418163652732039,0.055780434823322955
29.864244,10.372677226573181,0.055331531515799656
29.868272,10.324953467064562,0.05489537021503198
29.872304,10.281494342131133,0.05446126821725478
29.876336,10.242299851772893,0.054028403718638124
29.880372,10.199638636490072,0.053623556993949065
29.8844,10.157431738482526,0.053231534505815324
29.888428,10.117695041300141,0.05284254733055886
29.892464,10.078301936493098,0.05246964559376601
29.896488,10.042165524486295,0.05210481154116133
29.900528,10.009285805279736,0.05174769133346959
29.90456,9.974844519798555,0.05141360927099246
29.908596,9.944114244392889,0.05110435725185652
29.912628,9.916751386687402,0.050800026879415185
29.916672,9.893431713757236,0.05050894115418576
29.920704,9.872028617152559,0.050244351026264025
29.92474,9.848498912098053,0.04999117250363248
29.928772,9.824637032343743,0.04974906758671223
29.932804,9.796521935689775,0.04953106547861213
29.936832,9.763145680361205,0.049342381380388746
29.940864,9.728650758357755,0.04916085546095934
29.944904,9.691021286129528,0.04899591813583796
29.948932,9.657988623176298,0.04882357594648764
29.953012,9.617113875823362,0.048677322530115155
29.957092,9.576017678670558,0.04853847609441207
29.961176,9.535818698392763,0.048398166476942256
29.96526,9.495508993215033,0.04826087135577612
29.969348,9.455653605312579,0.04813991443968339
29.973376,9.419276360010235,0.04802196953697506
29.977464,9.380883231157997,0.04791215061236067
29.981552,9.338679785005843,0.04781017412825548
29.985644,9.295468397078741,0.04771185781675645
29.989672,9.247881649676517,0.04760874025250976
29.993712,9.19917623559941,0.04751364257996081
29.997744,9.14565256244744,0.04743122347061347
30.001832,9.090334455545444,0.047348561825967916
30.005924,9.036589332593604,0.047273893740909685
30.010016,8.981393368267078,0.04722137514849004
30.014052,8.931691430090558,0.04716394893377595
30.01814,8.890618068288818,0.047082493108256504
30.02218,8.851228415337168,0.04700493789066108
30.026276,8.810720095710634,0.04693614885322112
30.030372,8.771563310234388,0.04688513023219344
30.034464,8.737900550908144,0.04682920159079018
30.038496,8.702332632931943,0.04677719566184964
30.042528,8.667440482030882,0.04673409834577586
30.046564,8.634121315079978,0.046700038283334924
30.050596,8.597999772604101,0.04667064065182691
30.054688,8.560981013253215,0.04664078755991703
30.058776,8.520827703677552,0.04663017295215482
30.062864,8.48516047847695,0.046619220625771896
30.066952,8.449382528376413,0.04661321445285816
30.071032,8.416971995976052,0.04661703688821464
30.075108,8.379743204500826,0.046635704883008375
30.07914,8.342292963225733,0.04666490500735708
30.08322,8.305850663725586,0.04668905853473758
30.087299999999995,8.268400422450492,0.04671857313075279
30.091336,8.232179572750214,0.046733348840297
30.095364,8.195958723049937,0.046748156475126236
30.099444,8.151895788949954,0.04679281661559593
30.103528,8.106824913075029,0.046843098363277484
30.107607999999995,8.06197548699997,0.0468835310566957
30.111688,8.01152130987497,0.04693510653762613
30.115768,7.962185799424852,0.04697571461770793
30.119852,7.911620897399919,0.04703264488531035
30.123932,7.8584750696498835,0.047084275787016364
30.128012,7.80062170772492,0.04714754885933932
30.132096,7.742879070699892,0.0472064777710218
30.13618,7.680428899499935,0.047276753117178646
30.140163999999995,7.618310902999783,0.047332863337255233
30.144255999999995,7.552271864299777,0.047406365635067185
30.148292,7.490153867799624,0.04746303498271914
30.152328,7.425565670474306,0.04750905349703586
30.156416,7.362882631798946,0.04755143040359468
30.160504,7.303112693548492,0.0475835523661079
30.164588,7.244350697072983,0.04760867932394283
30.16868,7.185810150397345,0.04762258052481919
30.172768,7.124467228196736,0.0476420264394687
30.176856,7.062448538920986,0.04764899871528626
30.18094,7.003342950070142,0.04764528718558713
30.185024,6.942553652369207,0.047636230725563763
30.189108,6.883448063518363,0.04763249028229317
30.193204,6.825571866242333,0.04761115309734321
30.197292,6.764893293441333,0.04759430205350425
30.20138,6.705444112215151,0.04755953318498701
30.205476,6.645662756289163,0.04754344122782553
30.209568,6.589802442563027,0.04750899148666854
30.21366,6.535958012386785,0.047460681694736315
30.217756,6.486821116385472,0.04739920876799838
30.221848,6.440486595909128,0.04733028900329432
30.225944,6.397286625657561,0.04723525113885933
30.230032,6.351395004780957,0.04713804945026404
30.234124,6.306289875879431,0.04704594871484375
30.238224,6.265216514077691,0.046926604792578264
30.242316,6.219767792800827,0.046798653432257184
30.246412,6.168382145774218,0.04670254843707307
30.250508,6.114980615197714,0.04661863869833128
30.254556,6.064381460146182,0.04652664724030747
30.258648,6.006837437569957,0.04647547247958719
30.26274,5.9466017643686975,0.046423550371329045
30.266828,5.889279191592343,0.04635561232728795
30.27092,5.830162185065964,0.046286822218838
30.275008,5.768918570089758,0.04623933671888138
30.2791,5.70655628843867,0.04620596294311325
30.283184,5.643972556987713,0.04618713791282777
30.287268,5.582618217111571,0.04614631701678769
30.291319999999995,5.514761909310476,0.046119749642739176
30.295411999999995,5.444668268159619,0.046123834606992764
30.299448,5.369645643033963,0.04616148915491206
30.303476,5.293725801033296,0.04619714434048961
30.307504,5.2130984248577,0.04624668408982448
30.311592,5.131130932207352,0.04632948311561942
