Time,Force,Position
29.748268000000003,17.161665176847457,0.07407386717726198
29.752364,17.05775583262368,0.07433554150638512
29.756452000000003,16.94294632564877,0.07458216441424619
29.760548,16.814323555497804,0.07482303692076561
29.764644,16.68108114072078,0.07503756811754253
29.768744,16.544570615467983,0.07523250820536753
29.772836,16.39874432908973,0.07543497158272279
29.776932,16.24640465711099,0.0756378835508814
29.781024,16.090132525256866,0.07583770730925553
29.78506,15.9306037006025,0.0760381080818204
29.789144,15.77062055867286,0.07623187643890662
29.793176000000003,15.612874750092985,0.0764141256135417
29.79726,15.449856365162976,0.07660664720737623
29.801344,15.279328070533063,0.07682820215344163
29.805444,15.112942267902875,0.07703269768271505
29.809484,14.946445740372752,0.07724561701970346
29.813532,14.785996863492304,0.07743314513346428
29.817564,14.623975002661707,0.07762198255883894
29.821616,14.459937258281215,0.0778267145064274
29.825712000000003,14.29601023880066,0.07803421714199615
29.829748,14.131518177144896,0.07823842078884696
29.833844,13.964555914663967,0.0784485282568334
29.837844,13.796242118032753,0.07865664413722015
29.841888,13.629157712976355,0.07885891370028165
29.845968,13.452990414269907,0.07909346792910842
29.850016,13.265945788163378,0.07936655245014519
29.854104,13.081470670106418,0.07961724432225126
29.858192000000003,12.895422568099306,0.07987478183792474
29.862232,12.702983223067173,0.08016289842312271
29.86626,12.504828402085169,0.08048883885839381
29.870288,12.304768422453202,0.08083123065075383
29.874368,12.096977083321468,0.08122798370850344
29.87844,11.887059135739907,0.08165910827920123
29.882488,11.684872547658111,0.08206351987333085
29.88658,11.475508224576224,0.08250435307257986
29.89056,11.262665758894224,0.0829732695856741
29.894592000000003,11.043997092362414,0.08348942808817883
29.898684000000003,10.824541933855526,0.08401903544659713
29.902732,10.606205442023521,0.08455869036478351
29.906772,10.385509474266286,0.08511582510957763
29.910876,10.159995247434185,0.08572929840599915
29.914908,9.93437029570215,0.08637545814389948
29.918996,9.712334211470163,0.08702595675685987
29.923028,9.48996595253837,0.08771586400065759
29.92712,9.275672645481684,0.08839973140780577
29.93122,9.070916549350322,0.08908713731243915
29.935316,8.86472102951981,0.08987234033923845
29.939352,8.668074138290153,0.0906891202234474
29.943388,8.48120874313676,0.09158453405593815
29.947476,8.309053828034424,0.09249692554844967
29.951564,8.142205742308821,0.0935485324847812
29.955592000000003,7.994897813384678,0.09460757505956939
29.959624,7.862655374562463,0.09574387452446327
29.963656,7.740782309342783,0.09701924033038857
29.967684,7.642072521451205,0.09837841781933782
29.971768,7.571000677587252,0.09972750009823798
29.9758,7.520954084926039,0.10112771225651934
29.979828,7.489584685217871,0.10261283723186447
29.983868,7.48024847848739,0.1041184370803172
29.987896,7.495869982835034,0.10564872877902448
29.991936000000003,7.5390187063103715,0.10714595265186257
29.995972,7.608686707138456,0.10861331941734911
30.000004,7.700055726244423,0.11009323811017571
30.004044,7.811884954377925,0.11157147959158041
30.008076000000003,7.940364074239045,0.11307954091465038
30.012112,8.08873836095249,0.1145633037713339
30.016148,8.258790830592753,0.11596800445176902
30.02018,8.444008097559347,0.11731221095692289
30.024208,8.64650535262657,0.11852341493008996
30.028236,8.85753187684417,0.11966411635757841
30.032264,9.079424310786319,0.12064404626025275
30.036292000000003,9.301416051952865,0.12155832154981172
30.040316,9.531227042168048,0.12229043518331224
30.044344,9.76289752033106,0.12283381424948699
30.048432,9.986092365865966,0.12322029787355532
30.05246,10.191961552598114,0.12356283870281436
30.056496000000003,10.3880149902274,0.12378901447661801
30.060536,10.576268562303722,0.12387778626122727
30.064572,10.752579776827357,0.1238917512878424
30.068612,10.914810607672942,0.12382813097215951
30.072652,11.05993722951564,0.12372600074391578
30.076688,11.187959642355446,0.12358910793726215
30.080776,11.29786990441742,0.1234259480369445
30.08486,11.395727084026767,0.1232034896027807
30.088896,11.48534149848341,0.12289106734497704
30.092928,11.560211179862392,0.12254541242890873
30.097012,11.62359282096396,0.12215725683025044
30.101108,11.668995871538694,0.12180427483074648
30.105136,11.702590124811739,0.12145220096127651
30.109172,11.727300098883536,0.1211012703938208
30.113196,11.749971354054372,0.12071815924134335
30.11728,11.768255832074551,0.12033358406139738
30.121368,11.776105882294395,0.12000842457337904
30.125452000000003,11.779359123239242,0.11971741952477301
30.129476,11.783066681459363,0.11943856311648582
30.1335,11.78969875777992,0.11916234546499457
30.137592,11.797682368250763,0.11889260740647843
30.141620000000003,11.805788121297075,0.11864724579304115
30.145648,11.817039842243695,0.1183980221070265
30.149684,11.830318864415743,0.11815794559523217
30.153776,11.849324780213196,0.11790188841407441
30.157872,11.8721524309861,0.11764471192205271
30.161964,11.898912541634388,0.1173809331421598
30.16606,11.932628937482901,0.11708605863444273
30.170160000000003,11.966799650606687,0.11680482184797938
30.174252000000003,12.00624294008061,0.1164996288390947
30.178348,12.046251271729737,0.11620365358500132
30.182444,12.095674671728723,0.11584178383343548
30.18654,12.145208796627646,0.11547822765916892
30.190636,12.194288604251295,0.11510537106577391
30.194724,12.23730934354973,0.11476178209901487
30.198776,12.279089273597819,0.11440908644888674
30.20286,12.321533553045514,0.11403364360348348
30.206948,12.361729081467915,0.11365763778917153
30.211036,12.401359567715106,0.11327742100507893
30.21512,12.438852027836939,0.11289237549635822
30.219208,12.474095736933476,0.11250766447522507
30.223296,12.503723277304537,0.11213228575068794
30.227384,12.525829490300168,0.11178078503339688
30.231468,12.541533042595248,0.11143930265815281
30.235552,12.551509701264921,0.11111228211124982
30.239636,12.555980916109052,0.11079101897133639
30.243724,12.556065353802527,0.11046201079248026
30.247808,12.542802263270758,0.11019976559889902
30.251892,12.522693612438701,0.10996304146137689
30.255876,12.491596909306633,0.1097902514941993
30.259908000000003,12.45634629649931,0.10962850041508465
30.263892,12.413131456716817,0.10950382975385381
30.26798,12.365430532559262,0.10940162444051785
30.27202,12.313697841301924,0.10933342998891286
30.276064,12.265664742444566,0.10924130505674375
30.280108,12.22110978618732,0.10913320959891322
30.28416,12.17734132190515,0.10902293690698371
30.2882,12.135932333548213,0.10890999570643593
30.29224,12.092286011841512,0.10882072324553213
30.296324,12.051109890959975,0.10872485964403654
30.300308,12.00859365360369,0.10864837784674987
30.304336,11.97336587614743,0.10853113498898964
30.308396,11.94318922524144,0.10839819338267528
30.312484,11.92075535151075,0.10823622042970568
30.316516,11.899673011930345,0.10808046648371489
30.320496,11.882633857125258,0.10791767209819038
30.324548,11.873116029695607,0.1077344850960379
30.328544,11.874021212390755,0.1074827479976082
30.332588,11.880641871035783,0.1071924667605163
30.336628,11.894096672305567,0.1068504038656238
30.340628,11.906432806900469,0.1065191683102996
30.344656,11.923365750770365,0.10616186331726876
30.348704,11.94500622881519,0.10577456031999602
30.352752,11.971686415734752,0.10534504230656237
30.356836,11.993769793379316,0.10494207238514625
30.360932,12.012153578623899,0.10456191171658083
30.36496,12.023703221243723,0.10423072702653331
30.369,12.0365929803383,0.10388082673317023
30.373004,12.048917697257668,0.1035229099229453
30.377048,12.060677372001829,0.10315834878118149
30.381084,12.075460872070831,0.10276941696216066
30.38518,12.082623737539999,0.10243003618521579
30.389268,12.09011877770897,0.10207988182400952
30.39336,12.094024950377896,0.10174728683090002
30.397388,12.09927123952157,0.10139495746111671
30.40148,12.104738978465118,0.10103575575285638
30.405564,12.108633733458511,0.10067890918415673
30.409648,12.111299096877088,0.100339558005761
30.413748,12.117553327795711,0.09998686055608516
30.417752,12.127064251514577,0.09963206513595538
30.421840000000003,12.144306534733213,0.0992287199655387
30.425932000000003,12.161548817951847,0.09882714157897234
30.430028,12.177783159395535,0.09843435743815544
30.434116000000003,12.193009559064278,0.09805026056803573
30.438208000000003,12.212943492907948,0.09764099234077857
30.442304,12.23309887655149,0.09722425154772457
30.4464,12.261096344594733,0.0967550400018851
30.450496,12.286180712213072,0.0963058193861441
30.454592,12.31664838108148,0.0958373016457568
30.458688,12.350815642349872,0.09535453484251766
30.462716,12.386777337368288,0.09486810966288502
30.466804,12.433051317611575,0.09433089993967503
30.470896,12.478095906280045,0.09381037290830588
30.47498,12.525156378498405,0.09327752049563975
30.479068,12.575805718216815,0.09273567892597341
30.48316,12.626455057935223,0.0921968288579418
30.487196,12.675420688803545,0.09166394505832648
30.491276,12.721362494347023,0.09115343053406293
30.495368,12.760691607065617,0.09067924210354034
30.499456,12.798669185633926,0.09020122391962494
30.503544,12.833622938877397,0.08974708948520586
30.507636,12.870371125870891,0.08929022923862841
30.511664000000003,12.91070818036443,0.08882463803988537
30.515744,12.954855552157888,0.08834387981156902
30.519828,12.997208490201318,0.08787161329441487
30.523912000000003,13.04168803669458,0.08738519585076913
30.527992,13.087286249862725,0.08689343225633725
30.532076,13.136694780330783,0.08638628808329475
30.53616,13.181838676223652,0.08588908182480558
30.54024,13.221488545966517,0.08541412737802472
30.54432,13.257770998009207,0.08494523021584226
30.548408,13.287883656826745,0.08449442089004075
30.552488,13.321573765468798,0.08401160266518774
30.55658,13.3562718158858,0.08352573695212137
30.560664000000003,13.38368140640277,0.0830641144169995
30.564752,13.40761285431963,0.08260921103655197
30.56884,13.433560185786382,0.08214491585785229
30.572924,13.462077025302701,0.08165357498333646
30.577008,13.490704589718952,0.08115836401728303
30.581096,13.517426995485248,0.08067353363132206
30.58518,13.543473634176403,0.08018592919553737
30.589272,13.567050072042388,0.07970088384945018
30.593348,13.585575383358112,0.07922093875183514
30.597424,13.599614610298772,0.07875386761717358
30.6015,13.614772503914317,0.07827947210066377
30.60558,13.629033180654849,0.0778086705643336
30.60966,13.637578381445506,0.07736074491074812
30.61374,13.640851005886026,0.07692222674445773
30.61782,13.64121052990164,0.07649520678412218
30.621896,13.64145932901732,0.07607071703189953
30.625976,13.641597403233066,0.07564939043190652
30.63006,13.639830318798852,0.07523448823513963
30.634148,13.632802075690035,0.07485247465559432
30.638232,13.622074240181236,0.07448125999530872
30.64222,13.617061880622312,0.07408900064594585
30.646252,13.615859838363306,0.07368286265977221
30.650336000000003,13.607934378379479,0.07330165818766002
30.654368,13.59676364327094,0.07294180322736507
30.658408,13.58940322546232,0.07256865788777546
30.662452,13.575208665028942,0.07222214986393494
30.666548,13.556195845520701,0.07189273394641164
30.67058,13.534048475787685,0.07158053101807277
30.674676,13.5116796562548,0.07127372566173021
30.678724000000003,13.486287011397074,0.07098039184423847
30.682816000000003,13.456862599439564,0.07070574786548472
30.686912,13.42419291235734,0.07045119191441748
30.690912,13.394325600800089,0.07018762479853621
30.694940000000003,13.364236839442967,0.06992912905897636
30.698968,13.337626220685959,0.06966671085242893
30.702948,13.312920760578907,0.06939720594220537
30.707048,13.28911251734687,0.06912559301087662
30.711092,13.268893141614878,0.06884734989632485
30.715128,13.247887273907809,0.0685662268757314
30.719224,13.224865522650845,0.06829327536739456
30.723252,13.19702551231902,0.068036650802783
30.72734,13.164256518012394,0.0677991203535535
30.731428,13.133281957455793,0.06755729123952617
30.735512,13.103536788474008,0.06730318224392869
30.739608,13.067178926667337,0.06706740989130139
30.743656,13.03956036613538,0.06679845601611632
30.747736,13.017768006453235,0.06650719641237839
30.751824,12.994181213021067,0.06621688755286917
30.755884,12.96846781113907,0.06593778013003421
30.759936,12.941967917281994,0.06565472808198172
30.763984,12.913673589674898,0.06537252960442559
30.768072,12.885711436767604,0.06507875923352492
30.772156000000003,12.854271141260199,0.0647852874271207
30.776244,12.822941570652727,0.06448674334085941
30.78028,12.787236640570132,0.06418949801478814
30.784368,12.746037684337532,0.06390103913445445
30.788456,12.699344701954924,0.06362114973375169
30.792548,12.646149751647364,0.06335445135617547
30.79664,12.592057584464792,0.0630866957977544
30.800736,12.540092025732047,0.06280414020582574
30.804824,12.485324091474334,0.0625259264926581
30.808912,12.429769665241544,0.06224282683290573
30.813008,12.371745038183592,0.06195332773847498
30.8171,12.30800493517576,0.06167802680516019
30.821188,12.242581123317837,0.06139815167837722
30.825284,12.170655343534966,0.06112989574062849
30.82938,12.090211712277245,0.06088182974408884
30.833472,12.008084372169439,0.06062886333202275
30.837568,11.92449477301141,0.060363885143337
30.841664,11.843928999178225,0.060081244678380115
30.84576,11.763584675144905,0.059787639018495785
30.849856000000003,11.683351076011522,0.05948655738177409
30.853952,11.60099086842831,0.05919414926309129
30.858048,11.515828285320127,0.05890408311091464
30.862148,11.430887152011815,0.058602058771821945
30.866244,11.346953960478448,0.058290827121586695
30.87034,11.264139435619963,0.057966275267234774
30.874436000000003,11.183562244111243,0.05762009559368361
30.878532,11.101301343752432,0.05726685625448119
30.882624,11.015340850993642,0.0569154034119066
30.886724,10.93240418355969,0.05654533699745357
30.890816,10.85058618280062,0.05616159741271613
30.894916,10.77157055756652,0.05576635435806992
30.899012,10.693562874107366,0.05536072001400616
30.903108000000003,10.618357566173183,0.05494337830933393
30.907204,10.541136374689106,0.05452909392187402
30.9113,10.470417151129983,0.05409753672964127
30.915392,10.404184011945919,0.05365798675466416
30.919488,10.338626639836997,0.05322008399890146
30.923588,10.268926775728355,0.052799354673100186
30.927684,10.2009106204698,0.05237655230772139
30.931776,10.130657131861483,0.051966004552631256
30.935872,10.065111177428095,0.05154048155732112
30.939968,10.002256873619743,0.05110844057986129
30.944064,9.943888654186448,0.05066998509063981
30.948164,9.886196201828296,0.050234235540484076
30.952212000000003,9.827163632995394,0.04980941961594592
30.956304000000003,9.76656949788787,0.04940475820856055
30.96034,9.705532463180607,0.049011083910752866
30.964376,9.644949745748615,0.048628719278705684
30.968468,9.580113811416968,0.04826763532997693
30.9725,9.516629411235606,0.047919189977424094
30.976588,9.448670344354714,0.047601426693042986
30.980616,9.381054869849162,0.047301022090543855
30.984696,9.315798871268841,0.04700981216917314
30.988724,9.250210697988715,0.046726723170095
30.992764,9.176558990509017,0.046476020928985076
30.996740000000003,9.097081082179507,0.046238950651265896
31.000824,9.01827894092514,0.04600672352449246
31.004904,8.941049783620924,0.045780019995258464
31.008936,8.859567409417053,0.04557727981844569
31.012916,8.776855643638367,0.045385056834559324
31.016948,8.690112110759895,0.045206663352270804
31.02098,8.601020519631723,0.04504810527718882
31.025068,8.500841568979135,0.04493773928638781
31.029156,8.399322501851799,0.04484336355944005
31.033248,8.295455376474765,0.04477126252189191
31.037336,8.189572367547836,0.0447063399427525
31.041424,8.083467908821039,0.044649166940677144
31.045512,7.977031275394436,0.04460598610977559
31.049604,7.872389075717857,0.044560919970708684
31.05364,7.761920675191469,0.04453325752395623
31.057676,7.654476099989919,0.04448864112355243
31.061768,7.547363699488175,0.044424335319452245
31.065852,7.430614780836703,0.0443885846418303
31.069944,7.315438846135385,0.04436367941940983
31.074032000000003,7.206986329158889,0.0443173570956707
31.07812,7.103806388532528,0.04427704608007236
31.082212,7.002310156756258,0.044240211318106716
31.086304,6.896106390805058,0.0442118523403462
31.090392,6.793823667053711,0.044165267561075285
31.094484,6.6924381601773755,0.04411773660033907
31.09858,6.590720478601234,0.04408649263094401
31.102676,6.487884130350212,0.04406801376404956
31.106768,6.392779141598959,0.04402275567008801
31.110868,6.297452703047836,0.04399105584326718
31.114964,6.207731015546654,0.04394964950418798
31.119044,6.123614079095413,0.043894902886753684
31.123136,6.0431967350441536,0.04383336231561038
31.127228,5.963787332767841,0.043765021610004784
31.13132,5.885164422466605,0.043701660805219575
31.135356,5.806320062365499,0.043653436525952785
31.139444,5.728151469339535,0.043617066588278214
31.143532,5.650437193588845,0.04360699546957376
31.147616,5.581130044413064,0.04358146516314622
31.151644,5.511601445437414,0.043573529876988086
31.155672000000003,5.438262529161848,0.043576091526136514
31.159752,5.3603268036112866,0.04358414304739433
31.163780000000003,5.279588702535755,0.043596745638764
31.167868,5.204233902710295,0.043614340316213814
31.171896,5.125744552660059,0.04366229343228018
31.175928,5.047365927509759,0.04370064777507102
31.180012,4.966184926834489,0.04374953700988853
31.184092,4.887351984408917,0.043754809637376386
31.188168,4.8085190419833435,0.04375661682193957
31.192204,4.728113115607616,0.04374075796211345
31.196232,4.642999655056961,0.04374165927474587
31.200272,4.550044110106602,0.04379626999755263
31.204364,4.453388972756261,0.043855657411496066
31.20846,4.354828676755961,0.04392556821249647
31.212552,4.256268380755661,0.0439954154710539
31.216648,4.163534285605171,0.044032894667886104
31.220748,4.070235148279475,0.04403060313820124
31.22484,3.9770467358537127,0.04401851253917851
31.228936,3.8821746145778615,0.043989884284120505
31.233024,3.788864059576632,0.04389331522403353
31.237112,3.695553504575402,0.0437908297121638
31.241196,3.6032508913491195,0.04367363337338703
31.245284,3.5109482781228367,0.04355038565790515
31.249376,3.416175464071389,0.04339233561039848
31.253464,3.3226320415947557,0.0431917351646258
31.257504,3.2279699524432415,0.04300537698145066
31.2616,3.1361102388166984,0.042808912535673274
31.265688,3.0417917420405227,0.04268483169576067
31.269776,2.944560144839441,0.042577781688403885
31.273864,2.8499094733634602,0.04248665887366881
31.277952,2.7572746854373733,0.04236686052663458
31.281992,2.670798273060901,0.04213439295815035
31.286084,2.5860055695345165,0.041914088297331765
31.29018,2.5031180246580917,0.04167086915662581
31.294212,2.4192225380067196,0.04143494378508985
31.298256,2.331627458955365,0.041186782027827336
31.302292,2.23966843810442,0.04105886836284667
31.306384,2.1477094172534743,0.04091756053649208
31.310476,2.053734512852635,0.040798428041724066
31.314564,1.9613325924019502,0.040678910178672756
31.318656,1.8685984972514609,0.0406492024559801
31.322748,1.7805719362759,0.0405430014657282
31.32678,1.6924346504004046,0.04045309071329963
31.330852,1.60968066577498,0.040346164886835505
31.334936,1.5313020406246796,0.040266707374013416
31.33902,1.4529234154743795,0.04017989984640636
31.343104,1.3764499489740378,0.03815340376661575
31.347132,1.3013165989484474,0.03608711215346836
31.351164,1.2299935662227741,0.034016195914699496
31.355256,1.1607971419469287,0.031935070684154604
31.359344,1.0953003100710654,0.02986695509046178
31.363432000000003,1.028352636820516,0.02787335720972688
31.36746,0.9623021804449785,0.025871577876401458
31.371488,0.8980461578194646,0.023884770197865533
31.37552,0.8377111773938031,0.021893383482966006
31.379548,0.7837674399931587,0.01992821793527665
31.383636000000003,0.7366578452172715,0.017884475890862218
31.387728000000003,0.6903347424164614,0.015858342057716714
31.391776,0.6486084488906453,0.013827839219937185
