Time,Force,Position
30.356072,0.0,0.0
30.360156,0.0,0.0
30.364239999999995,0.0,0.0
30.368336,0.0,0.0
30.37242,0.0004778769159864175,0.0
30.376512,0.004002414507878624,0.0
30.380607999999995,0.018427114850913282,0.0
30.384704,0.04308762854548118,0.0
30.3888,0.07854899776678947,0.0
30.392848,0.12504408999024083,0.00699943925156864
30.396932,0.18033557186607208,0.014522010977345833
30.401024,0.24812303579426534,0.022091026482091443
30.405116,0.32560410624985037,0.02990830159975584
30.409203999999995,0.416699825432679,0.03760755470644378
30.413295999999995,0.5187185427177158,0.04535820510575553
30.417384,0.6335654167549194,0.053042224952699425
30.421476,0.7609082728444848,0.060735125181329036
30.425528,0.9029844443361755,0.06829333819981523
30.429624,1.0546434974553232,0.07599640911343764
30.43372,1.222498125026815,0.08357467102424121
30.437756,1.3997141844258938,0.09130550982999608
30.441848,1.5903234427523465,0.09901390208287715
30.445936,1.7924207413562148,0.10676324483795206
30.450032,2.009251355362208,0.1144204999106588
30.454128,2.2373021648539675,0.12202184662430995
30.458224,2.4746687354711834,0.12950727144492652
30.462308,2.7091222056634936,0.13696821996679068
30.466396,2.9401968404800947,0.14438052281419939
30.470488,3.1667625555705716,0.15173402839495878
30.474576,3.3890293830592606,0.15199335896206023
30.478668,3.606088688395617,0.15166492310434937
30.48276,3.8144623289795287,0.1512083944929723
30.486856,4.015834013661084,0.1504576731095723
30.490948,4.204266816690538,0.14982826698260854
30.495036,4.386151981092908,0.14908201338695481
30.499123999999995,4.5586871313432225,0.14835324794529164
30.503215999999995,4.721307225266276,0.14758172448353007
30.507304,4.869759045962412,0.14695720038054919
30.511392,5.0077307681560805,0.14620200578622364
30.515484,5.129617640797338,0.14556278025936004
30.519572,5.246174848710796,0.14468010198637005
30.52366,5.34933885769688,0.14381987026625384
30.527747999999995,5.4449358686054,0.14283880660321374
30.531844,5.526807505886741,0.1419280627567358
30.535931999999995,5.596083853891319,0.14108646132959776
30.540028,5.651092621444578,0.1403960861446988
30.54412,5.698335776471468,0.1397130025832641
30.548216,5.737038244672443,0.13909689160089195
30.552308,5.766867851347703,0.13857182909496565
30.556404,5.790516247122283,0.13809793220734282
30.560492,5.811805166971631,0.13764914692010016
30.564584,5.829283769521062,0.13728201060755527
30.56862,5.845078663220404,0.13693881847866102
30.572708,5.8606406894443435,0.13655795129470583
30.576795999999995,5.869357155367994,0.1362651007118704
30.580888,5.872125277866366,0.13604434319215977
30.584976,5.870628765789547,0.13587591644856772
30.589012,5.870018052912209,0.13563776286376578
30.593052,5.870415281809818,0.13537668700935032
30.597148,5.870923235607361,0.13510700135180478
30.601172,5.868518088979998,0.13489753323977544
30.605216,5.866334392152507,0.13467073212251096
30.609244,5.856640785625115,0.13457699122536387
30.613284,5.845263470247635,0.13450089231741777
30.617372,5.83511554644497,0.13438516778230086
30.621464,5.82810217286708,0.13419456567883412
30.625572,5.820191582414179,0.13401687071327395
30.6296,5.814296875511172,0.13379461915977348
30.633644,5.811315269033069,0.13351394703566774
30.637671999999995,5.804191170555246,0.1333296040941674
30.641763999999995,5.794264696552451,0.13319385855865043
30.64586,5.782765238599503,0.13306728926911418
30.649944,5.7696927966964004,0.13294939811325082
30.654036,5.756398904993429,0.13284797951777558
30.658131999999995,5.745796663915494,0.13270611337388488
30.662184,5.739791232112551,0.13248807266858428
30.666264,5.736920350534385,0.1321944967175131
30.670296,5.7290097600814835,0.13201058309176777
30.6744,5.722217836303463,0.13179561632683584
30.678492,5.715315187625509,0.1315892458871408
30.68248,5.706618105197531,0.13140883418746058
30.686564,5.699715456519575,0.13120227158322137
30.690664,5.699425500666508,0.13087844686910655
30.694764,5.7009299785634635,0.1305290543659755
30.698812,5.7038967155106395,0.1301815584563548
30.7029,5.704958293807855,0.12986866619958073
30.706988,5.706917088980084,0.12954289857617537
30.711023999999995,5.711567534777349,0.12918192358684366
30.71512,5.715996530774741,0.12883866283154166
30.719152,5.724014394272182,0.1284426430374202
30.72324,5.735399675469801,0.1280141331099267
30.727332,5.751381765942415,0.12751697205838977
30.73142,5.772857882565033,0.12694474813381654
30.735508,5.794444724087586,0.12636610757533706
30.739596,5.818723216235176,0.12575718295014401
30.743688,5.838859216383043,0.12523886989311422
30.74772,5.856314983581408,0.12481274234584301
30.751808,5.880727035979996,0.12430732959332903
30.755896,5.908063606479024,0.12381268200662561
30.75998,5.9402298537284475,0.12329617517794633
30.764012,5.977790819903475,0.12276988566802288
30.768096,6.018387029078876,0.12225044805764028
30.772175999999995,6.058097439054798,0.12180331339301774
30.77626,6.101629584006172,0.12135781080342212
30.780292,6.149426363532733,0.12088588201129313
30.784324,6.201942094909759,0.12040192135268374
30.788408,6.256374402612273,0.11994346793227652
30.792496,6.311715344865333,0.11953683572104576
30.796584,6.373791122518748,0.11908948220794205
30.800676,6.443609677347465,0.11858651889734105
30.804756,6.513882549451454,0.11810883823070718
30.808836,6.580356521931058,0.1177371620474906
30.812916,6.642134377911268,0.11748544942706036
30.816948,6.707401794167124,0.11725593612158906
30.821031999999995,6.771894136123434,0.11708251484471725
30.82512,6.840761837554869,0.11686649790381066
30.8292,6.914115623361364,0.1166020754748332
30.833279999999995,6.9866829171927805,0.11634685045844158
30.83736,7.05610424312389,0.1161062355890205
30.84144,7.120806617204539,0.11588356601017563
30.845524,7.177201171934678,0.11570749090625869
30.849608,7.2268608912644625,0.1155778505486191
30.853696,7.272698875618796,0.11544988174869994
30.857783999999995,7.313817908122668,0.1153369537981646
30.861875999999995,7.34831283012612,0.1152635991791315
30.865904,7.378986017154122,0.11519422772419309
30.869988,7.407742627856632,0.1151034991094118
30.87408,7.4291993609835805,0.11504197482600682
30.878172,7.44234827476002,0.11502637238453067
30.882268,7.4480865860609615,0.11504663468814541
30.886252,7.453702754786436,0.1150291247181745
30.890284,7.463339272936164,0.11490876579575132
30.894268,7.473972315185305,0.11472969038074038
30.898304,7.48021858028379,0.11454121232398759
30.9024,7.483761777081705,0.11433324341287451
30.9065,7.488080048179167,0.11408194567686394
30.910596,7.493394843376041,0.11377628754415105
30.91458,7.495674395572543,0.11347063980547595
30.918684,7.498286122468849,0.11314711709689064
30.92278,7.502127240939968,0.11279808216331505
30.926868,7.512126734960706,0.11235969458409537
30.930972,7.525260779206218,0.11187397834867484
30.935068,7.543323807426528,0.11132787728838639
30.939164,7.559592401896814,0.11079586976007737
30.943252,7.574853054592153,0.11027629156136037
30.947296,7.591232373962374,0.10973875193556634
30.951324,7.609627576882489,0.10917699835987785
30.955368,7.635311239702632,0.10855225069927274
30.959408,7.664583770022823,0.10790048995895489
30.963387999999995,7.692172591492925,0.10725709131310224
30.967476,7.719085645887885,0.1066138698084443
30.971552,7.744093541632887,0.10599737687842017
30.97558,7.767307003627864,0.10539633372062716
30.979612,7.79713315844773,0.10473682803775587
30.983688,7.832674789217472,0.10402644919552202
30.987739999999995,7.864627552487166,0.10334734413602897
30.991727999999995,7.89165133178206,0.10272998766893518
30.995819999999995,7.922263978577003,0.10209156193643171
30.999852,7.953884567146892,0.10144674200473498
31.003948,7.985394430816845,0.10081265843394083
31.008,8.016572119786995,0.10020338225747326
31.012096,8.04573392520725,0.09962006180777282
31.016192,8.07108541332759,0.09907563343635814
31.020288,8.103160319172753,0.0984724717768481
31.02438,8.141958642742736,0.09781195920879159
31.028479999999995,8.180756966312721,0.09715631951649194
31.032576,8.218879522807564,0.09650128737997746
31.036663999999995,8.252737444727218,0.09586749065503165
31.040752,8.285919599571727,0.09523296989598579
31.044847999999995,8.31999897129125,0.09459297892796378
31.048944,8.352959676335892,0.09397281641848194
31.053036,8.38412594763051,0.0933653521601371
31.057132,8.419102536225044,0.09273054341964107
31.061224,8.446569215119679,0.09215828825627304
31.06532,8.465628767439403,0.09164933948717228
31.069416,8.487490695284098,0.09112293451529303
31.073516,8.513605840028449,0.09054846312597531
31.077611999999995,8.539942434572671,0.08997010164471186
31.081703999999995,8.560674278066951,0.0894303012076343
31.0858,8.578714470936195,0.0889049516347427
31.089896,8.596078896730301,0.0883770541909925
31.093996,8.615459206074297,0.0878311517646896
31.098092,8.63696612386812,0.08726234056652832
31.102188,8.650065915087035,0.08675022829385819
31.106283999999995,8.655766521505983,0.0862845641913003
31.110375999999995,8.661467127924933,0.0858206808299591
31.114472,8.665938342769065,0.0853779084085059
31.118568,8.670188107813326,0.08494534020824236
31.122668,8.672421989307695,0.08453176653342091
31.12676,8.674655870802065,0.08411784568086021
31.13086,8.675316768346281,0.08370084424362531
31.134952,8.679787983190414,0.08325966925686422
31.139047999999995,8.678654446984606,0.08285206455402
31.143083999999995,8.67863957745368,0.0824294265704754
31.147172,8.681316358547788,0.08199372412994038
31.15126,8.680182822341978,0.08158376398339984
31.155344,8.670985751936596,0.08124424100940035
31.159436,8.65327083005637,0.08095711471260564
31.163523999999995,8.641160659226081,0.08063702209658428
31.167615999999995,8.63095564704575,0.08030374958563515
31.171707999999995,8.617726809540581,0.0799961598894912
31.175804,8.602592813385453,0.07970030268818198
31.1799,8.58734809233039,0.07940954018184357
31.183996,8.575913688575243,0.07909358072159164
31.188044,8.565265776795174,0.07877785977717193
31.19208,8.55102899751506,0.07847459799657651
31.196107999999995,8.536005726259868,0.07816879708457464
31.20014,8.524006280329514,0.0778375665592402
31.20418,8.511109617524149,0.07750844409669896
31.208272,8.498999446693858,0.07718081020204419
31.212364,8.487675767838647,0.07685406850835566
31.216456,8.47085806283343,0.07655061941552477
31.220448,8.453253865853135,0.076242744111081
31.22448,8.434641727097894,0.07594172671490293
31.22848,8.416251038142523,0.0756291332981242
31.232575999999995,8.39998695763698,0.07529374119351999
31.236667999999995,8.385960210481201,0.07492864441518733
31.240663999999995,8.377538214375365,0.07453271188598581
31.244656,8.36642456764449,0.07414593436938445
31.248644,8.3515006036137,0.07377966379590378
31.25274,8.336798089382778,0.0734010297880734
31.25678,8.321087633376912,0.0730291720145138
31.26076,8.301566860071127,0.0726780700415356
31.264796,8.280140928115383,0.0723364724511123
31.268884,8.261738821484482,0.07196967395381813
31.272976,8.247036307253559,0.07158557689189943
31.277024,8.231547301047563,0.07119729843830878
31.281104,8.21336664421653,0.07081648822216055
31.285132,8.1955181620853,0.07041774051363095
31.289168,8.178899071528887,0.07000051236774679
31.29322,8.164295864522371,0.06956744278308223
31.297248,8.149360482816048,0.06914742808804755
31.301328,8.13991912725973,0.06870684188088619
31.305408,8.129469829928468,0.06827160775994709
31.309492,8.12002847437215,0.06782825098330689
31.313576,8.108681960165873,0.06739368455498594
31.317664,8.103161646809408,0.06692495885173347
31.321736,8.095060407727843,0.06645599446542205
31.325772,8.08572977707146,0.06600358531057927
31.329856,8.081893172565085,0.06553269565014593
31.333952,8.079740276908797,0.06506244331852565
31.338048,8.077698106152443,0.06458516395042055
31.342076,8.079355527796075,0.06409411841859466
31.346115999999995,8.083028832989596,0.0635883422733908
31.350212,8.084464804833356,0.0631082127477985
31.354308,8.084106342927093,0.0626323900197017
31.3584,8.08442364809597,0.0621643382978274
31.362496,8.082503619915085,0.06171937412003107
31.366532,8.08506967610926,0.06126733240227784
31.370568,8.086627790528487,0.06082348552969132
31.374655999999995,8.085051354722939,0.06040528291884601
31.378744,8.089190394867268,0.05996282443546238
31.382836,8.090527059486625,0.05953112872844789
31.38692,8.097468475155924,0.05908130233208971
31.390956,8.102959049450535,0.05865911665735286
31.394988,8.110919824570313,0.05824374025575349
31.39908,8.113730165915422,0.05786717882222556
31.403168,8.12181308361067,0.05748936256978279
31.407256,8.129896001305916,0.057110243784977296
31.411344,8.135287268376125,0.056735719297298905
31.415436,8.143480910971306,0.056354899975898654
31.419528,8.154366204191522,0.055971436800730426
31.423616,8.163346338761778,0.05559589382417898
31.427708,8.172780790607307,0.05524116322176762
31.4318,8.182547417152643,0.05487103057269931
31.435884,8.19108465212316,0.05451665570381861
31.439972,8.197827453343654,0.05416294662897519
31.444064,8.20457025456415,0.053807211201722646
31.448152,8.202463029609994,0.0534940253658937
31.45224,8.192513720256134,0.05321561264936266
31.456272,8.184469569552233,0.05292976270013133
31.460372,8.16779684247355,0.052675475616713596
31.464468,8.14899750694504,0.05243685086835868
31.46856,8.123474753691706,0.05222296602027477
31.472648,8.096489741388154,0.05199293169742296
31.476735999999995,8.06468647000974,0.0517806116341545
31.480768,8.03277247373139,0.051572170982053314
31.484852,7.995032276603228,0.05138759637455433
31.488935999999995,7.959307963024961,0.051189603231450255
31.49302,7.919551882346907,0.051012935818288106
31.4971,7.86724618309422,0.05088425159746846
31.501188,7.8090035580917885,0.05078413502431768
31.505227999999995,7.745831949114557,0.05070701025736493
31.509319999999995,7.676047647312439,0.05064921383515969
31.513408,7.601112911735652,0.050624995509151706
31.5175,7.524273017508906,0.050605788939819034
31.521588,7.449006107232315,0.0505946951291595
31.525676,7.37620939778089,0.05059246746358632
31.529768,7.307223005629382,0.050577379888274474
31.53386,7.245746523177774,0.050541112453478004
31.537952,7.177435898101407,0.05053641474290475
31.542048,7.110808981875128,0.05053755561029526
31.546144,7.044182065648851,0.05053787147885468
31.550232,6.980246800047608,0.05053589505976517
31.554328,6.9157579099466915,0.05056237407828764
31.558412,6.851379744745711,0.05058287355921917
31.5625,6.7841992040197585,0.05061075501751875
31.566592,6.717129388193742,0.05063238249544594
31.570676,6.645019863492991,0.0506856529961732
31.57476,6.5747047725422645,0.050738967303021625
31.578844,6.5157099085913535,0.050756733304894656
31.58288,6.4597388699652845,0.05075393682071125
31.58696,6.40690238156399,0.05072330409574038
31.591052,6.35507383493764,0.05068614973514186
31.595136,6.305039722061314,0.05064893245086306
31.599219999999995,6.256689318035078,0.05061678492079562
31.6033,6.203631379833912,0.05060065052223563
31.607384,6.149111182582527,0.050563488195429926
31.611472,6.094701710231079,0.05051768557604284
31.615564,6.039173571204747,0.050484718099990354
31.619648,5.989693082828097,0.050406607471661154
31.623695999999995,5.941331261126328,0.050313605351397665
31.627784,5.892969439424559,0.050218865191566445
31.631828,5.836986983122955,0.05015626185774656
31.635924,5.782233918396168,0.050070705388034334
31.639976,5.730283229194351,0.04997420908557842
31.643964,5.6830400741674625,0.04985933558767367
31.648016,5.635796919140575,0.04974239338998769
31.652111999999995,5.59247480631354,0.049600245268732045
31.656208,5.551168577036397,0.04944063644342008
31.6603,5.5014552211843455,0.049304898995888156
31.664348,5.450733923557345,0.04917411267026046
31.668444,5.399569726330606,0.04907138554825463
31.672536,5.350199962853889,0.04896690339191463
31.676568,5.303632574902143,0.04885360725523895
31.680668,5.254262811425427,0.04874877960616282
31.684764,5.210497798998652,0.04862498785040699
31.688852,5.162701019472089,0.04853208034046953
31.692944,5.110872472845742,0.04847240529925648
31.696971999999995,5.057470942269239,0.048394886446658986
31.701007999999995,5.001610628543102,0.04836587203080017
31.705099999999995,4.948552690341938,0.04832479967446015
31.709188,4.896281244115849,0.048290781119860245
31.713276,4.852638374264542,0.048211934061219326
31.71736,4.806868895963405,0.04815810363436138
31.721343999999995,4.757964867437495,0.048139768004479715
31.72538,4.703234638061772,0.04815876521478951
31.729416,4.648393683786117,0.04818613653812576
31.733504,4.590418179285686,0.04825130422057036
31.737587999999995,4.530426791235362,0.04833376562118241
31.741616,4.477048096009925,0.04838646927216704
31.745644,4.4235586758845535,0.04844826085117259
31.749683999999995,4.3691720388841695,0.048513862700986586
31.753772,4.317698502308691,0.04855755776567674
31.757856,4.266446415533082,0.04858002205818274
31.761948,4.215305053657408,0.04859462995918805
31.76604,4.161582766056633,0.04859658748683451
31.770076,4.112568012630788,0.04857775127930712
31.774172,4.067474301404794,0.048528628729939814
31.778203999999995,4.0182380981790775,0.04853284849838872
31.782295999999995,3.970231286528179,0.04850667302123685
31.786387999999995,3.917295490902482,0.04852460656930685
31.790428,3.8626759864266953,0.0485312960270804
31.79452,3.8062620482008853,0.04853229221214865
31.798572,3.7537691521749275,0.04849820438411613
31.80266,3.702394922823851,0.048444257274444326
31.806752,3.655949677447573,0.048343317089803654
31.810792,3.606702056546325,0.04825400077562832
31.814892,3.557897335244817,0.04811570499458242
31.818924,3.5081953970682953,0.047975284332741376
31.823012,3.4517700411669527,0.047883337790957235
31.827104,3.3953446852656106,0.04779014813784843
31.831188,3.3447455302140776,0.047640991179375335
31.835276,3.2885416241126046,0.04751168142797813
31.8392,3.2276301838362027,0.04740173028874116
31.843284,3.172434219509676,0.047244064648802465
31.847364,3.1151116467333213,0.047120516100245195
31.851451999999995,3.0549866984319967,0.04700568991462871
31.855536,2.9948617501306716,0.046883930683196635
31.85962,2.938657844029198,0.0467240692984211
31.863608,2.8786436206278077,0.04658859972075719
31.867695999999995,2.8236691061011516,0.04637407434477139
31.871787999999995,2.7711647923996607,0.04618715643693582
31.87584,2.715747378273264,0.04601954095147567
31.879867999999995,2.6546144881969935,0.04588994795815516
31.883959999999995,2.5928058310455797,0.04571532495344864
31.887992,2.5288705654443366,0.045582555161125554
31.892092,2.4697535589179584,0.045393561279285496
31.896172,2.412209536341734,0.04522789888227486
31.900251999999995,2.3564599475155337,0.04505916261831677
31.90434,2.3073230515142202,0.04484095698352105
31.90838,2.2572889386378945,0.04461409296307394
31.912472,2.1995234662618004,0.044464584970589305
31.916564,2.14355242763573,0.044308209530457776
31.920648,2.0911702565097072,0.04414903150643714
31.92474,2.0329618845338735,0.04405110128207179
31.928832,1.9784531049580218,0.04393802901647199
31.932924,1.9247308173572475,0.043848761506817595
31.937016,1.8697791381816566,0.04383086973476422
31.940999999999995,1.816843342555959,0.04375259226403797
31.945091999999995,1.7676071393302435,0.043656223685206094
31.949127999999995,1.7134419521297293,0.04363343140076239
31.953224,1.6568065641040495,0.04354790996209421
31.95732,1.6017441600285238,0.04353213386669708
31.961416,1.550270623453045,0.043537420115031
31.965512,1.5011565628027976,0.043625452722192426
31.969556,1.45204250215255,0.04373532761184524
31.973648,1.4025962668024978,0.04393125694605804
31.97774,1.3531500314524458,0.044131091074719866
31.981836,1.3035930712024586,0.04438204392576814
31.985932,1.2513444603274357,0.04460842227447364
31.990027999999995,1.2026847169524604,0.044843395245727294
31.994128,1.1589539575522838,0.04494303313485952
31.998216,1.1206064994021778,0.04505494400007939
32.002312,1.085172141676977,0.04507880740689461
32.006408,1.0543345932267705,0.04508754480967558
32.0105,1.0206946692515935,0.045133708330162246
32.014592,0.9862682533013398,0.042947979840054176
