Time,Force,Position
28.878664,0.16823326936388946,0.0
28.882752,0.16150985163906723,0.0
28.886835999999995,0.15332417486402594,0.0
28.89092,0.14301499993320657,0.0
28.895008,0.1337137667773339,0.0
28.899092,0.12329386694657968,0.0
28.90318,0.11366045909090242,0.0
28.907168,0.10402705123522513,0.0
28.911256,0.09428291847961297,0.0
28.915344,0.08644394437395934,0.0
28.919436,0.07479465296838868,0.0
28.923524,0.06336681136268774,0.0
28.927616,0.05182824485705194,0.0
28.931695999999995,0.04017895345148127,0.0
28.935787999999995,0.03345553572665903,0.0
28.939876,0.03065316020168869,0.0
28.943968,0.023822127870981757,0.0
28.94802,0.01788831241528664,0.0
28.952068,0.01576170396545838,0.0
28.95616,0.018453354590493846,0.0
28.960248,0.014424697784757246,0.0
28.96434,0.011403982753967347,0.0
28.968428,0.009169759698254397,0.0
28.972468,0.009169759698254397,0.0
28.976516,0.009169759698254397,0.0
28.980608,0.009169759698254397,0.0
28.984704,0.009169759698254397,0.0
28.988796,0.009169759698254397,0.0
28.992892,0.009169759698254397,0.0
28.996952,0.009169759698254397,0.0
29.000983999999995,0.009169759698254397,0.0
29.005072,0.009169759698254397,0.0
29.009164,0.009169759698254397,0.0
29.01322,0.009169759698254397,0.0
29.017316,0.007943478417488142,0.0
29.021415999999995,0.006717197136721885,0.0
29.025512,0.006717197136721885,0.0
29.029596,0.006717197136721885,0.0
29.033684,0.003807207005866854,0.0
29.037776,0.0,0.0
29.041868,0.0,0.0
29.045956,0.0,0.0
29.050044,0.0,0.0
29.054136,0.0,0.0
29.058224,0.0,0.0
29.062312,0.0,0.0
29.0664,0.0,0.0
29.070488,0.0,0.0
29.07458,0.0,0.0
29.078668,0.0,0.0
29.082752,0.0,0.0
29.086844,0.0,0.0
29.090944,0.0,0.0
29.094968,0.0,0.0
29.099052,0.0,0.0
29.103131999999995,0.0,0.0
29.107212,0.0,0.0
29.111244,0.0,0.0
29.115328,0.0,0.0
29.119412,0.0,0.0
29.123444,0.0,0.0
29.127476,0.0,0.0
29.131556,0.0,0.0
29.135639999999995,0.0,0.0
29.139724,0.0,0.0
29.1438,0.0,0.0
29.147884,0.0,0.0
29.151968,0.0006612391055590472,0.0
29.156048,0.0022196950861299173,0.0
29.16008,0.0022196950861299173,0.0
29.164172,0.007034843866943465,0.0
29.168264,0.01343439427344377,0.0
29.172352,0.02646947285589715,0.0
29.176331999999995,0.04917532261467655,0.0
29.18042,0.08413286927488256,0.0
29.184508,0.12675672123705406,0.006505709121287534
29.1886,0.18354884642614355,0.012915340208964579
29.192688,0.24969098576728727,0.01965160810409763
29.19678,0.32932563126020686,0.026263974552988317
29.200868,0.4176345238300387,0.0330856222797701
29.20496,0.5139418964016406,0.040069043549990156
29.209052,0.6172398072000659,0.04725580875637227
29.213148,0.7351488908251487,0.05422667157468229
29.21724,0.8624079886022856,0.061326066913609006
29.221328,1.0000250423064236,0.06848591475517557
29.22542,1.1480000519375624,0.07569775198983962
29.229512,1.3065544672955722,0.08292203656468917
29.2336,1.4778294247998638,0.09006571266578184
29.237684,1.658897296055949,0.09721000044751815
29.241776,1.855126854344316,0.10426278773103266
29.245864,2.053753251878563,0.1113911459759056
29.249948,2.26158468563833,0.11843234459907698
29.25404,2.4695268442980325,0.12544190845378533
29.258128,2.6703905751820423,0.13248011841564034
29.262215999999995,2.857219593090134,0.13963002708827896
29.266316,3.0390739563212965,0.14021671854552484
29.270404,3.206870771225476,0.14088801241088883
29.274496,3.366325513752548,0.1412024507916165
29.278588,3.512177025227908,0.14165220010821258
29.28268,3.6488006651266827,0.1419498840875174
29.286728,3.7796745760489827,0.14207476417033862
29.290824,3.909506292169737,0.14190140358226588
29.29492,4.024062486064225,0.1420102404894017
29.299016,4.1319603164316945,0.14193645190716292
29.303048,4.229500190872163,0.14180221082228428
29.307084,4.315452717810815,0.1416668563021093
29.311164,4.391501606097737,0.1415229497251678
29.315208,4.4537258135330795,0.14150365508837112
29.319296,4.507508641366911,0.14147310093704965
29.32338,4.548031830524371,0.1415704889113783
29.327464,4.582805290705356,0.14158871420716035
29.331552,4.60735435521034,0.14170854661519844
29.33564,4.626840875489526,0.14183489037900354
29.339724,4.645308036318232,0.1419184709482864
29.3438,4.668139138946529,0.14184843810184034
29.34788,4.687946416249987,0.14186754738234303
29.35196,4.7082080108287165,0.14191230252738518
29.356036,4.728026705807705,0.14200138133784398
29.360116,4.749529109636786,0.14206519190744132
29.364156,4.7725930797404885,0.14204411437958267
29.36824,4.796321399243798,0.1419626224626449
29.372324,4.813204158446819,0.141992797081837
29.376404,4.833664367474352,0.14188643101076787
29.380496,4.849306317427021,0.1418978810884694
29.384576,4.86853713487974,0.14184326112508278
29.388664,4.889783835882353,0.14173157838024394
29.392752,4.912149203559847,0.14158380170223384
29.396832,4.936076137511962,0.14135626876716834
29.400915999999995,4.957865045338715,0.14112948565956035
29.404996,4.979421085690066,0.1408563714037255
29.409072,5.001309300741223,0.1405556435519258
29.413104,5.023418965592248,0.14023479415144682
29.417184,5.045417905543338,0.13992782206422397
29.421268,5.066741078419287,0.1396197213035868
29.425352,5.087388484220093,0.13931376625296255
29.42944,5.109043831795846,0.13898038226922646
29.433524,5.128118253646498,0.13868217567610275
29.437612,5.1504379506218605,0.13829086377929137
29.4417,5.1717497058222754,0.1379271069337846
29.445792,5.193626503197895,0.13758053966034467
29.449888,5.211250083673862,0.13735793989592648
29.453976,5.230335923200046,0.1371321089856129
29.458068,5.246962979576598,0.13699945969129623
29.462092,5.269416236802961,0.13673482761744354
29.466184,5.288169901629341,0.13654557164073208
29.470279999999995,5.308828725105678,0.13631929407704022
29.474376,5.331171257432105,0.13607796359322905
29.478428,5.354865323908815,0.13584893135564668
29.482524,5.382934749860651,0.135562193161309
29.486516,5.413363651737717,0.13526323403284535
29.490568,5.44457904558986,0.13496510159826924
29.494668,5.4759051643419365,0.13465976639092858
29.498756,5.504650357368913,0.1343871973866654
29.502863999999995,5.532387608620945,0.13413852399123968
29.506952,5.561808568723063,0.13387833342023528
29.510996,5.5925696452999345,0.13357183798731975
29.515096,5.631959298251587,0.13310591949406747
29.519188,5.669111617853476,0.13271178944653944
29.523288,5.709509212580073,0.13224128566054671
29.52738,5.751246923781423,0.13173127746242347
29.53148,5.794214026557588,0.1311767179265853
29.535576,5.836616087158546,0.1306086197352445
29.539608,5.88069043893406,0.12997153489861724
29.543696,5.922859632059616,0.12938080841435287
29.54778,5.968949867385024,0.12872222728459393
29.551812,6.013467118760277,0.1280808772659924
29.555904,6.054616952435353,0.1274790802151329
29.559988,6.092510093310187,0.12690350744785545
29.564076,6.124122716059937,0.12641664188131801
29.568164,6.157075455284439,0.12589459528711658
29.572216,6.186550051908828,0.12541328189864584
29.576304,6.214230214783195,0.12495525801084348
29.580388,6.244934202982401,0.12443964723866431
29.584472,6.275073149006399,0.12391036303460465
29.588548,6.301733952430284,0.12342470879043597
29.592628,6.328394755854171,0.122945553241865
29.596656,6.347545649578158,0.12258659710816244
29.600696,6.363329125601965,0.1222552707700801
29.604752,6.374515792350782,0.1219892263948923
29.608836,6.3830108084745625,0.12175780423538941
29.612924,6.394751099723053,0.12145755293438697
29.617008,6.406602115871477,0.1211497224469258
29.621088,6.412516206270158,0.12094357408616677
29.625172,6.418208846868969,0.120754263100388
29.6292,6.421664154118015,0.12061848620101692
29.63328,6.426249545717477,0.1205088084837452
29.637356,6.432640788742495,0.12042948242715067
29.641392,6.443640258718039,0.12034237364984234
29.645484,6.4601451725191215,0.12023660913305464
29.649536,6.473969853370702,0.12021253652761946
29.653568,6.494750819422507,0.12012488279726205
29.657664,6.521369403999655,0.11999882911834742
29.66176,6.548896623127349,0.11991398327014201
29.665859999999995,6.581818561180646,0.1198209403290105
29.6699,6.617554292434446,0.11974065077501357
29.673992,6.653301441363778,0.11970996843702186
29.67808,6.693767542143573,0.11966510387887028
29.682172,6.7409684783237225,0.1195737412805895
29.68626,6.7919911494793235,0.11947816623551631
29.690352,6.847400597785578,0.11939233286680652
29.694444,6.903497230842511,0.11936385097322988
29.698536,6.9645342655497755,0.119312094475021
29.702624,7.035219236082302,0.1191728465334107
29.706716,7.106690698589903,0.11903328639088603
29.710812,7.179845869947593,0.11888551016202388
29.714908,7.253443940905023,0.11871406972491153
29.719004,7.329046477736813,0.11847094384811858
29.723099999999995,7.402843163143047,0.11820567001633274
29.727196,7.4750554469235935,0.11790509409494485
29.731283999999995,7.550280138353447,0.11752131278283523
29.735375999999995,7.619445761458088,0.11719075800918255
29.739467999999995,7.686584083337303,0.11685506607022987
29.743556,7.751916553790961,0.11649553972689189
29.74764,7.8184669981439034,0.11607908145687568
29.751724,7.885116749721247,0.11562035491375922
29.755816,7.951865808522993,0.11511750606764655
29.759904,8.014117365274148,0.11461399531299482
29.763996,8.071760695074774,0.11411967283780237
29.768084,8.124685073024938,0.11363436467521063
29.772176,8.173444123624318,0.11313210120509272
29.776264,8.220618772598009,0.1125979983577019
29.780316,8.26285301992137,0.1120891507987429
29.784408,8.300700490094071,0.11157792758801205
29.7885,8.337750050616163,0.11103253593152004
29.792596000000003,8.369294167312718,0.11049670461590412
29.796692,8.39870025788391,0.10995661671899652
29.800724,8.422833772104966,0.10945557229406183
29.804816,8.44180543487582,0.1089839346067209
29.8088,8.460212055471466,0.10850546546583524
29.812884,8.47312464991711,0.10807559184573341
29.816920000000003,8.488717477312257,0.1075891932255919
29.820996,8.500942887007222,0.1071196355467353
29.82504,8.512603254526981,0.1066410794604155
29.829116,8.515070003496753,0.10623939554942097
29.8332,8.51226417611639,0.10587017910072291
29.837276000000003,8.508782581660885,0.10549727932892396
29.841352,8.507538320555144,0.1050899850082432
29.845436,8.50651550924927,0.10467189282436033
29.849532000000004,8.511651073493008,0.10418031060864151
29.853624000000003,8.514881479086794,0.10370579339407354
29.857708,8.512617858530572,0.10327201796546477
29.861744,8.509113428724,0.10282167598791268
29.865824000000003,8.505608998917426,0.10237259033992946
29.869904,8.499080743786013,0.10195728750346678
29.873988,8.496141356154647,0.10151829675176142
29.878068,8.490288868098375,0.10110655193332804
29.882148,8.485333596917119,0.10068802792015201
29.886228000000003,8.48744533583602,0.1002298118841677
29.890316,8.486422524530145,0.09981071170225964
29.894392000000003,8.486186205199349,0.09939055459935978
29.898476,8.480688727193948,0.09903703568923959
29.90256,8.47720713273844,0.09866156963613311
29.906636,8.474401305358077,0.0982922472657359
29.91072,8.475073620577824,0.0979052685093547
29.914808,8.478216136622738,0.09751206799562515
29.918892,8.480239985992771,0.09713630024910845
29.922976,8.479129285138026,0.09679870443606715
29.927072000000003,8.478805076258359,0.09646199972748806
29.931168,8.472211766929142,0.09620127195841247
29.935252,8.469207325099974,0.09591983593683781
29.93934,8.473491343170833,0.0955920887961234
29.943424,8.48383442956691,0.09524173594287347
29.9475,8.4930588492881,0.09490846188573668
29.951592,8.504077702759316,0.09456507341345474
29.955676,8.514088614455586,0.09423319125934142
29.959764,8.528474885626979,0.09388239253773754
29.963852000000003,8.54252898209857,0.09354754909746742
29.96794,8.552207719095037,0.0932335407009883
29.972032,8.564688831616472,0.09289996006818203
29.97612,8.576162002362961,0.09257588129289769
29.980216,8.59065899843429,0.09222067193285752
29.984312000000003,8.602807936255921,0.09190276903532056
29.988404000000003,8.612265223452516,0.09159928023184165
29.9925,8.621046743573968,0.09128994610853182
29.996588000000003,8.629152496620279,0.09097471995899649
30.000680000000003,8.63355865726661,0.09068244492258508
30.004776,8.64188586011279,0.09035606759683318
30.008868,8.649205121184023,0.09004065553087225
30.012964000000004,8.657078006754933,0.08969730232032055
30.017056000000004,8.66259141640061,0.08935261093141278
30.021152,8.664737408346111,0.08901720309172798
30.025248,8.660492157266596,0.08871881493890649
30.02934,8.654452472437054,0.08842852317051739
30.033436,8.651436612932352,0.0881105899168228
30.037524,8.648531478327588,0.08778755672503251
30.04156,8.642369650922578,0.08746549448468434
30.045588,8.64225547416725,0.08708906304942472
30.049672,8.640236138761964,0.08672473575858082
30.05376,8.637651761181468,0.08634944344693439
30.057856,8.63887770090089,0.08594812831656087
30.061944,8.638198481970356,0.08555944606569164
30.066036,8.636843495964678,0.08516324688081625
30.070072000000003,8.636496451733946,0.08475699523912028
30.07416,8.638165291053108,0.08433310962326361
30.0782,8.640731347247284,0.0839054740046277
30.082296,8.65091803804129,0.08342740785389256
30.086384,8.658302353310326,0.0829673075552391
30.090472,8.662995017954328,0.08251741026269949
30.094520000000003,8.673181708748334,0.08204250070670262
30.098616,8.682925499942602,0.08158815198619739
30.102656000000003,8.691439899562054,0.08115336073361136
30.106684,8.70096224095645,0.08070916123758118
30.110728,8.710484582350848,0.08026364627577662
30.114824,8.717204548220272,0.07983634298387679
30.118904,8.723138022114624,0.0794076707122426
30.123,8.734565522158979,0.07895587404001837
30.127028000000003,8.738483112503435,0.07854766785876931
30.13106,8.748116178797767,0.07810574487926257
30.135040000000004,8.756519853517283,0.07768271307898082
30.13912,8.76323981938671,0.07726263783152373
30.1432,8.77085700213115,0.07683868318118846
30.1473,8.782505951975377,0.0763834378940917
30.1513,8.796957277344573,0.07591588180222439
30.15534,8.80928199426394,0.07547049431971732
30.15938,8.822725377858188,0.07501399621354889
30.16342,8.831571952177447,0.0745793276247489
30.167520000000003,8.841315743371714,0.07414228524450489
30.171552,8.858790894065752,0.07366127219434393
30.175592,8.87155851058486,0.07320628761731399
30.179624,8.888579344003626,0.07271400891443532
30.183716,8.905710902322324,0.0722168280164265
30.187804,8.92485834419092,0.07170648523763244
30.1918,8.949831986909322,0.0711649856972508
30.195884,8.975592121602803,0.07062838301327468
30.199968,9.00494112379633,0.07008576939810612
30.20406,9.028574650039983,0.06957432656373624
30.208148,9.053105393158646,0.0690593274927668
30.21224,9.073825818977395,0.0685656826800255
30.216328,9.095664911471024,0.0680611364229125
30.220416,9.119519887514548,0.06754612313010472
30.2245,9.145280022208027,0.06702358672677933
30.228584,9.169921490226626,0.06651656037291862
30.232676,9.19657884179512,0.0660018947910548
30.236764,9.226370743588387,0.06546552741534535
30.240844000000003,9.259972962681573,0.06491929810551053
30.244928,9.294361673749833,0.06437748324104858
30.249004,9.32997977639291,0.06382332194121776
30.253084,9.359882403086115,0.06329794803154948
30.257168,9.390792971554264,0.06276776889994036
30.261252,9.415655889372733,0.06227610409162145
30.265332,9.440518807191202,0.06178485222909852
30.269412000000003,9.46336584145978,0.06130732708213327
30.273492,9.480608124678415,0.060849958175445855
30.277576000000003,9.493364323521991,0.06039890625815569
30.28166,9.501412988190637,0.05996464152437057
30.285748,9.511477536409176,0.059518717781838225
30.289836,9.52333651837774,0.05907028986968144
30.293916000000003,9.536314167021185,0.058612315153292106
30.298,9.547386657014671,0.05816127288621489
30.302084,9.550727787508391,0.05774083682062344
30.306168,9.55260665895189,0.05730970534547339
30.3102,9.54977799622046,0.056891923131815084
30.314280000000004,9.533834672739191,0.05650846652520385
30.318356,9.51094648173323,0.05615751310090201
30.322388000000004,9.474611455277623,0.05585386042080674
30.32652,9.43356889464709,0.05556163243379915
30.330604,9.385360016691992,0.055309917079426486
30.334604,9.330206271212202,0.05508935438287858
30.338588,9.270123541757615,0.054889259206716876
30.342628,9.208246378553005,0.05468856699327528
30.34666,9.140653739398518,0.054504378163282935
30.350700000000003,9.068242841169168,0.05433600025964366
30.35476,8.99258666781511,0.05419138425447525
30.358856000000003,8.915811827786166,0.054054124098150705
30.362888,8.835448120257178,0.05391695770017035
30.366868000000004,8.747353053228421,0.05380770805133574
30.370848,8.653653235149722,0.05370967852750072
30.374776,8.552897824646395,0.053648845217883524
30.378804,8.44911858881823,0.0536024809415606
30.382848000000003,8.346015120065209,0.05356474175642268
30.386892000000003,8.23955565128754,0.05355495392471287
30.390944,8.129961632285097,0.05356757120755121
30.394984,8.026315956707933,0.0535914409327083
30.39904,7.923567498005779,0.05361430720931753
30.403092,7.827210282328644,0.053627175878981914
30.40714,7.733544717276543,0.05363593181933204
30.411192,7.642902977549284,0.05362641178856903
30.41524,7.558763205746975,0.05360131357923536
30.419296000000003,7.474512709044734,0.053581695157664797
30.423288,7.394748296717551,0.053556172872570584
30.427324,7.319580693665362,0.05351998906407185
30.431372000000003,7.248899174988232,0.05347919069427024
30.43542,7.181130756736008,0.053423878443360245
30.439464,7.115721814409013,0.053383019539421074
30.443504,7.053458839982326,0.0533614169915441
30.447552,6.996689891705647,0.05332928529374938
30.4516,6.944296302904091,0.0532980456849545
30.455644,6.899523348702369,0.053236378106059606
30.459672,6.8573313202257475,0.05317785358741076
30.463716,6.81883888414911,0.0531097761676364
30.467764000000003,6.782030156922558,0.05304564490108577
30.471760000000003,6.749818238971001,0.052971411667808034
30.475796000000003,6.720740871244219,0.05286953394618065
30.479844,6.69256072039245,0.0527656729237213
30.483944,6.662586135790656,0.052662197476474965
30.48798,6.627682567214066,0.0525869889595903
30.492068000000003,6.591660331962593,0.052524257245220245
30.496156,6.554962329635977,0.052447950202445415
30.500196000000003,6.522185369509214,0.052347907160038516
30.504292,6.4817877747826165,0.05227916569143746
30.508324,6.441279455156083,0.05221558048743155
30.512412,6.397968760004579,0.052160183876724574
30.516452,6.35365012307813,0.052110672922321605
30.520488,6.307758502201527,0.0520490591193067
30.524520000000003,6.257380796949865,0.05199196131545265
30.528552,6.207900308573213,0.05193294121912012
30.532592,6.157411878421614,0.05188092534566552
30.536676,6.103113130970101,0.05184327954532015
30.54072,6.047917166643573,0.051806408480656554
30.544808000000003,5.990926768567023,0.0517697469968349
30.548896,5.931244719865438,0.051735382938326926
30.55298,5.870997628988646,0.05167831887261431
30.557072,5.806718771012067,0.051651208970141
30.561156,5.742218463235617,0.0516388096873087
30.565244,5.679291139409322,0.0516399424210453
30.569328,5.622190016432838,0.05160765103059692
30.573416,5.567891268981323,0.0515650625964169
30.5775,5.511355188180045,0.051552578682093675
30.58158,5.450676615379045,0.05158063938539003
30.585656,5.396832185202802,0.05156518132053391
30.58974,5.343098479926495,0.051539886752463585
30.59382,5.29048344132507,0.05149689811124013
30.597900000000003,5.234955302298738,0.05147197299807149
30.60198,5.180213655247484,0.05145375877522873
30.60606,5.131187484146105,0.051406184955400676
30.610144,5.07857244554468,0.051359854544246485
30.614224,5.022479264343142,0.051307153644182917
30.618304,4.962465040941751,0.0512839768827627
30.622392,4.899869891815261,0.051253901653421724
30.626476,4.836266800913823,0.05123262511447932
30.630568,4.771766493137374,0.05121294463508154
30.634656,4.705926068886174,0.05122867559659138
30.638744000000003,4.637504718909873,0.05124080442136622
30.642828,4.564708009458448,0.051251419311917235
30.646912,4.486638723656886,0.05126182358085377
30.650992,4.405988512130223,0.05125701371154771
30.655032,4.320852216228504,0.05125413120630045
30.659064,4.233024269701747,0.05126069563098849
