Time,Force,Position
5.309192,0.09220127307585126,0.0
5.311579999999999,0.0884399483071614,0.0
5.313963999999999,0.08374745797869322,0.0
5.31636,0.08105706839664188,0.0
5.318747999999999,0.07808713956087013,0.0
5.321127999999998,0.08040544209058399,0.0
5.323532,0.0855172412996328,0.0
5.32592,0.08765911167290988,0.0
5.328303999999999,0.08994075167304715,0.0
5.3307,0.0879386509266303,0.0
5.333088,0.08486561499357491,0.0
5.335467999999999,0.0766807798514707,0.0
5.337864,0.06328103840303408,0.0
5.340252,0.05205982985745107,0.0
5.342635999999999,0.04698469317797884,0.0
5.345032,0.04484282280470178,0.0
5.34742,0.053642621723287286,0.0
5.349799999999998,0.05950915433567763,0.0
5.352203999999997,0.06844872288112337,0.0
5.354588,0.07845922661320762,0.0
5.356967999999998,0.08711925590493291,0.0
5.359371999999997,0.1017297021668683,0.0
5.36176,0.11634014842880368,0.0
5.364139999999999,0.13202152987737759,0.0
5.366539999999997,0.14770291132595148,0.0
5.368927999999997,0.15720155837883804,0.0
5.371307999999999,0.1619046080059728,0.0
5.373704,0.16618834875252692,0.0
5.376092,0.1692613846855823,0.0
5.378475999999999,0.17233442061863768,0.0
5.380872,0.17647839173833163,0.0
5.383263999999997,0.18200949982796105,0.0
5.385643999999999,0.1875406079175905,0.0
5.38804,0.19233620534334234,0.0
5.390428,0.1919168964627617,0.0
5.392807999999999,0.1896352564626244,0.0
5.395204,0.17823761576060465,0.0
5.397592,0.16870230617814147,0.0
5.399975999999999,0.15702512622240128,0.0
5.402379999999997,0.14441678070688274,0.0
5.404767999999997,0.13287937037800276,0.0
5.407152,0.11826892411606739,0.0
5.409547999999997,0.103658477854132,0.0
5.411935999999997,0.08797709640555809,0.0
5.414316,0.07229571495698417,0.0
5.416711999999997,0.06047876537438375,0.0
5.4191,0.05066391653820018,0.0
5.421479999999999,0.04313070770215389,0.0
5.423876,0.03559749886610759,0.0
5.426264,0.029135225216699822,0.0
5.428643999999999,0.022672951567292057,0.0
5.431047999999997,0.01714184347766261,0.0
5.433435999999997,0.011610735388033165,0.0
5.435815999999999,0.006359166552124139,0.0
5.438215999999997,0.003249468089492175,0.0
5.440603999999997,0.0,0.0
5.442983999999999,0.0,0.0
5.445383999999997,0.0,0.0
5.447771999999997,0.0,0.0
5.450151999999999,0.0,0.0
5.452548,0.0,0.0
5.454936,0.0,0.0
5.457319999999999,0.0,0.0
5.459716,0.0,0.0
5.462104,0.0,0.0
5.464483999999999,0.0,0.0
5.46688,0.0,0.0
5.469268,0.0,0.0
5.471651999999999,0.0,0.0
5.474048,0.0,0.0
5.476431999999999,0.0,0.0
5.478831999999997,0.0,0.0
5.481227999999998,0.0,0.0
5.483611999999997,0.0,0.0
5.485996,0.0,0.0
5.4883919999999975,0.0,0.0
5.490779999999997,0.0,0.0
5.49316,0.0,0.0
5.495559999999998,0.0,0.0
5.497943999999997,0.0,0.0
5.500328,0.0,0.0
5.502723999999997,0.0,0.0
5.505111999999997,0.0005957410370174229,0.0
5.507491999999999,0.0015635691263723257,0.0
5.509891999999997,0.0030432538949249177,0.0
5.512279999999997,0.0030432538949249173,0.0
5.514659999999999,0.003916638327793519,0.0
5.517056,0.00753629761175393,0.0
5.519444,0.014693627679724257,0.0
5.521823999999999,0.022547910024126393,0.0
5.52422,0.03575497244385195,0.0
5.526612,0.05389550605832029,0.0
5.5290079999999975,0.08027486422606403,0.0
5.531403999999998,0.11060930620052911,0.0
5.533791999999998,0.15006651645980476,0.0
5.536171999999997,0.19701648130981164,0.010569879857361056
5.538567999999998,0.25462478448222226,0.02094057706284559
5.540959999999998,0.3239151393354318,0.031235505495904498
5.543339999999997,0.40875197773541405,0.04109517797681518
5.545735999999998,0.5108578611748651,0.05055361732843641
5.548127999999998,0.628649997787949,0.059783246984459734
5.550507999999997,0.7597069779476683,0.06902321379193661
5.552911999999999,0.9054351613634221,0.07816391828500399
5.555295999999999,1.0692710075798062,0.08705703426648584
5.557675999999997,1.2486533373429627,0.09588200222812948
5.560079999999999,1.4479951017276398,0.10453154902595946
5.562467999999999,1.661637878173883,0.1131009374875461
5.564847999999998,1.887196919584272,0.12158763195218009
5.567243999999999,2.12322920371983,0.13000088809372395
5.569627999999998,2.378209664275049,0.13816673164753085
5.572008,2.6380310482263942,0.14631935158848666
5.574411999999999,2.903392203708166,0.15443961894379354
5.576795999999998,3.1664717191898006,0.16261158556214733
5.579175999999997,3.428387751686179,0.17086827103594163
5.581579999999999,3.686533795973071,0.17912259836960642
5.583967999999999,3.9440301098117754,0.1767492623531548
5.586343999999997,4.190820863499833,0.17462300984036455
5.588747999999999,4.428443522932707,0.17253795660555193
5.591131999999998,4.6510315554980055,0.17089842790608686
5.593511999999997,4.855279607837197,0.16968715651914276
5.595915999999999,5.044353263681953,0.16871491991443238
5.598303999999999,5.222955572659408,0.16767948788489795
5.600679999999997,5.386290937343811,0.16674331816977303
5.603075999999998,5.52914445142883,0.166099166441076
5.605459999999997,5.653565437489124,0.165548580229439
5.60784,5.7580636514574755,0.16518114305863987
5.610235999999997,5.850600274491307,0.16481232782315444
5.61262,5.929685062523401,0.16449015657281654
5.614999999999998,5.995690102606092,0.16422405742922544
5.617395999999999,6.038837208432776,0.16428577565045552
5.619783999999999,6.074444337840484,0.16431721616987927
5.622159999999997,6.1037221956427175,0.16428474754698508
5.624555999999998,6.126251472958895,0.16420846125588925
5.626943999999998,6.150784746879357,0.16395475116068334
5.629323999999997,6.169965240724497,0.16370339920560692
5.631736,6.185375746360148,0.16344320124614103
5.634119999999999,6.206048380130374,0.16302110538623507
5.636499999999998,6.224346826101847,0.16262496298976348
5.638895999999999,6.241761328341784,0.1621995875178763
5.641283999999999,6.257593038715886,0.16178529489116064
5.643663999999998,6.269467769425397,0.16140669503582278
5.646059999999999,6.278176916403234,0.16106167954055775
5.648447999999998,6.287445141888512,0.1606814557023466
5.650827999999997,6.298343381067871,0.16023747615202416
5.653223999999998,6.312174886553423,0.1597329869354158
5.655607999999997,6.328939658345171,0.1591702999854479
5.657988,6.341979767897807,0.1586785029667959
5.660383999999997,6.354368251144384,0.15818799979728546
5.662771999999997,6.366105108084902,0.15769753017299767
5.665151999999999,6.3796117483463615,0.15713121521998144
5.667548,6.388090473756591,0.15662847061743185
5.669936,6.386046838755539,0.15632385831962034
5.672315999999999,6.384422512635067,0.1559914787986191
5.674731999999999,6.376839106103588,0.1557389419475142
5.677115999999998,6.369814778079548,0.1554503515533379
5.679496,6.3556206648310045,0.15527289779981146
5.681911999999997,6.3329062919175945,0.15524776607482982
5.684299999999997,6.309959601578707,0.15519233219070958
5.686679999999999,6.286081745680042,0.1551519095996659
5.689095999999999,6.266487630527931,0.15501075352690608
5.691479999999999,6.253691213547988,0.1547389486177739
5.693859999999997,6.2396840917545475,0.1545000754205723
5.696263999999999,6.22353509958783,0.15431021115878077
5.698651999999999,6.205384006674695,0.15416064669876514
5.701031999999998,6.18695337450784,0.15402769187035914
5.703427999999999,6.164658310475011,0.1539663475589869
5.705811999999998,6.137288109762709,0.15401604420072093
5.708191999999997,6.109638369796687,0.15408143159332283
5.710595999999999,6.0742597660987165,0.15430349362715398
5.712983999999999,6.038741392773886,0.15453714948574113
5.715363999999997,6.004945580941754,0.15474895080626913
5.717755999999998,5.976596992841429,0.15487700140482807
5.720143999999998,5.948760261420303,0.15501497591137378
5.722524,5.921016077797794,0.15519401416679346
5.724936,5.890990254175147,0.15543586121763645
5.727323999999999,5.865992345403728,0.15561476066367913
5.729703999999998,5.84630189073726,0.1557088669998148
5.732104,5.824562113496132,0.15589840570367366
5.734487999999999,5.805987919986675,0.15605529701831888
5.736871999999998,5.787506274275837,0.1562485822464485
5.739276,5.766603218938002,0.1565086737959898
5.74166,5.747143185839144,0.15676496458948908
5.744039999999998,5.731268045352537,0.15696209748861917
5.746443999999997,5.720700358970879,0.15707621543150377
5.748828,5.709853133335502,0.1572088159118428
5.751207999999998,5.7028231177378546,0.15731471565413968
5.753611999999997,5.703242426618433,0.1572861311719818
5.756,5.702171491431795,0.15731272690704817
5.758379999999999,5.714276643708914,0.15708983792847953
5.7607839999999975,5.732760185277619,0.15676067204526084
5.763168,5.754688849831718,0.1563859991155381
5.765552,5.781413111811569,0.15592258039685555
5.767947999999997,5.810791100843894,0.15542389646312185
5.770332,5.844964687301972,0.15483795380434884
5.772711999999999,5.882443627118581,0.15421346596689434
5.775115999999997,5.92071396286811,0.1535871802667702
5.777503999999997,5.960846629737195,0.15294220896096938
5.779879999999999,6.004843728472256,0.15222128683851707
5.782276,6.046698956834039,0.15155373551865767
5.784663999999999,6.090044429263041,0.15084614900392498
5.787043999999998,6.130456635385847,0.15019216863265775
5.789448,6.169937675948872,0.14955052874689437
5.791831999999999,6.2072768461386225,0.14896263488312525
5.794215999999999,6.244336477074655,0.14840369817164953
5.796619999999997,6.283258439130242,0.14781749962096238
5.799007999999997,6.3208771485737145,0.14722861325673336
5.801387999999999,6.357564692457409,0.14666033022265254
5.803784,6.394252236341101,0.14608592159178768
5.806168,6.427215117985682,0.14558644608083213
5.808547999999998,6.452169596644595,0.14524251482461728
5.810943999999999,6.474190808997312,0.1449541815160154
5.813331999999999,6.492347589484056,0.1447364741415713
5.815728,6.509712974037883,0.1445284054740352
5.818131999999999,6.521351595606179,0.1444149822899385
5.820515999999998,6.532478360495277,0.14429136353163435
5.822896,6.546026535011373,0.1441095898208019
5.825299999999999,6.5527770113553006,0.1440412877438928
5.827687999999998,6.559946796579807,0.14394923192025166
5.830067999999997,6.56953799143131,0.14379776971379143
5.832463999999998,6.572703575162983,0.14377673665316493
5.834851999999998,6.578942194827709,0.14369849686346783
5.837232,6.587182915238854,0.14358479902709056
5.839635999999999,6.595703174903721,0.14345458629663282
5.842019999999998,6.602640642702751,0.14333620832961763
5.8444,6.605853448262666,0.14327142611185537
5.846807999999999,6.6098576497555,0.14320168800051986
5.849191999999999,6.613070455315415,0.1431373237645589
5.851571999999997,6.620846540875607,0.14297183395963373
5.85398,6.6278312305028795,0.1428128487839117
5.856363999999999,6.640310365690204,0.14253952764989716
5.858743999999998,6.652137874571471,0.14226249366914023
5.861148,6.663034217892959,0.1419980023461714
5.863536,6.670205898975334,0.1417864099238853
5.865911999999998,6.679798989684707,0.14151531997666214
5.868312,6.685807187781827,0.14128828337046523
5.870699999999999,6.6819446517737235,0.1412257266865753
5.873079999999998,6.6812949213255335,0.14109845514812658
5.875475999999999,6.6789226293846475,0.14098983075489596
5.877863999999999,6.672825675204649,0.1409337214772585
5.880243999999998,6.669429669905369,0.1408019675094307
5.882648,6.667384139046447,0.14063295346129087
5.885031999999999,6.664966521135188,0.14044470720209817
5.887415999999998,6.659895176171453,0.14028690627845358
5.889811999999999,6.653520578595601,0.1401223800925541
5.892195999999998,6.648356685833251,0.13992804357035152
5.894575999999997,6.6417497708319235,0.13973521932395566
5.896971999999998,6.6362137910172345,0.13952133730558292
5.899355999999997,6.623740343403516,0.13942192150522986
5.90174,6.606471298364047,0.13939551036745587
5.904135999999998,6.586548526272101,0.13939778110765583
5.906519999999997,6.564903192687459,0.1394186362834623
5.908904,6.5428857720504805,0.13941995209789707
5.911299999999997,6.52193928660014,0.13940043721181855
5.913684,6.502994901896215,0.1393443437131267
5.916067999999999,6.487914949058265,0.13922792179453583
5.918464,6.4781896721535075,0.13900498788791996
5.920852,6.467533229688971,0.1387947100820625
5.923243999999997,6.455945621664657,0.13859683402137915
5.925647999999999,6.44729127994654,0.1383511118401963
5.928035999999999,6.439568103788198,0.13809191724631475
5.9304159999999975,6.427840726137023,0.13790039358539133
5.932811999999998,6.416904744418766,0.13770364628905443
5.935199999999998,6.409693424939625,0.1374554345944471
5.937579999999997,6.4011316310201245,0.13724376823304546
5.939975999999998,6.3976449737800944,0.1369448942880608
5.942363999999998,6.3930873813534275,0.13666580281711055
5.944747999999997,6.3878781626207015,0.13638316826009464
5.947143999999998,6.389466642060144,0.13599688613468325
5.949531999999998,6.397992589298616,0.1354992152700169
5.951912,6.406099227656507,0.1350253785160344
5.954311999999998,6.418070297880373,0.13449302997386173
5.956695999999997,6.435628361462908,0.1338912725018794
5.95908,6.454397129858942,0.13326194154594234
5.961471999999997,6.469021927135283,0.13270734086070266
5.963859999999997,6.481365084411487,0.13220209316435114
5.966251999999997,6.499155465419499,0.13163934615029554
5.968647999999998,6.516014680867734,0.13108648414614965
5.9710319999999975,6.5335255226220275,0.130538045273228
5.973412,6.550756825122598,0.13000913510291967
5.975815999999998,6.569990228369586,0.1294534278916763
5.9781999999999975,6.590946193109272,0.1288812315667286
5.98058,6.609620517848819,0.1283572333039868
5.982983999999998,6.628434612215227,0.12782912565642454
5.985371999999998,6.646829397701055,0.12732095216581046
5.987751999999997,6.6580071761341335,0.12693527950909708
5.990147999999998,6.6731891560600465,0.12648964107261665
5.992531999999997,6.68688089191874,0.1260872190084861
5.994927999999998,6.693635159978404,0.1257877152593697
5.997323999999999,6.69931849285143,0.1255107636488053
5.999707999999998,6.70686415684401,0.12521200124092555
6.002087999999997,6.714130281582873,0.12493047933528952
6.004491999999999,6.719254535948458,0.12468951760935226
6.006879999999999,6.725961582179878,0.12444425428064425
6.009259999999998,6.734391189903995,0.12418474859028865
6.011655999999999,6.746033603188027,0.1238717542245672
6.014043999999998,6.750738548673032,0.12365658687787413
6.016423999999997,6.759168156397149,0.12340050507579142
6.018819999999998,6.766666598561488,0.12315456814116915
6.021203999999997,6.772442479233131,0.12292204617019906
6.023599999999998,6.778869986210831,0.12269710739235083
6.025995999999999,6.783435162068976,0.122491810610217
6.028379999999999,6.792563617927395,0.12220303736559142
6.030759999999997,6.804485570465149,0.12188845999974243
6.033163999999999,6.821762198936094,0.12148954110698704
6.035551999999999,6.840901158526596,0.12106778662388842
6.037931999999998,6.857618708490102,0.12069790695517471
6.040327999999999,6.874615797707327,0.12031225700919032
6.042715999999999,6.89962128991022,0.11982018131515096
6.045095999999997,6.921553746180056,0.11937434787972118
6.047491999999998,6.942834576143836,0.11892560546447097
6.049879999999998,6.966397046107753,0.11844126087285448
6.052259999999997,6.9859553145788365,0.11800979384413957
6.054663999999999,7.002440547116864,0.11762230453739632
6.057051999999999,7.019484858162333,0.11720682117729876
6.0594319999999975,7.035458234021163,0.1168113160086533
6.061827999999998,7.053573480253271,0.11638200867415655
6.064215999999998,7.069826395365822,0.11597359343318021
6.066592,7.088360950478509,0.11552681877459106
6.068995999999999,7.105964340031419,0.11508773660723305
6.071383999999998,7.118911901785438,0.11469551655645016
6.073763999999997,7.13493249947251,0.11426219848838771
6.076155999999997,7.146669356413029,0.11389623134274651
6.078543999999997,7.150677349621601,0.11361545777233559
6.080943999999999,7.1476081054042835,0.1134242808924988
6.08334,7.148031206000603,0.11317196884719846
6.085728,7.1499445506641415,0.11288338646305442
6.088107999999998,7.155070700887595,0.11254913987850637
6.090511999999997,7.156332419245076,0.11225801380974154
6.0929,7.156662972042777,0.11197422523286461
6.095279999999999,7.15592258965384,0.11170569286983847
6.097676,7.1514575450257905,0.11147108134111859
6.100064,7.147132270024603,0.111228469921033
6.102443999999998,7.144157469463772,0.11095636817848974
6.104847999999997,7.142765460768777,0.11068259293767248
6.107235999999997,7.1415132217006425,0.11040278371019117
6.109615999999999,7.14040075225937,0.11011628722866917
6.112012,7.14236131875115,0.10979370599348504
6.1144,7.14497351154899,0.10947873972736252
6.116779999999999,7.149308265839526,0.10915438629591881
6.119176,7.1547139553167,0.10881451030325551
6.121563999999999,7.161190579980512,0.10846246332665962
6.123943999999998,7.168738139830964,0.1080961033312477
6.126339999999999,7.1792189659876104,0.10769740823405492
6.128727999999999,7.195706094383507,0.10723100863220182
6.131107999999998,7.210051352406127,0.10679698551991783
6.133503999999999,7.223185905615249,0.10638607277728801
6.135891999999998,7.236040919570651,0.10599283102676847
6.138271999999997,7.246754063152774,0.10562729424961284
6.14068,7.258677911548397,0.10523982553835932
6.143063999999999,7.274605961436853,0.10481208910754164
6.145443999999998,7.292116803191146,0.10438463150625456
6.147848,7.315913486438409,0.10388409936831303
6.150236,7.337708068939254,0.10340434424924451
6.152619999999999,7.355917758827848,0.10294772077541862
6.155016,7.374406987970162,0.10248138469692553
6.157399999999999,7.392896217112476,0.10201657741665633
6.159783999999998,7.407381244761955,0.10159517667389621
6.162187999999997,7.420143710918738,0.10118305237449707
6.164576,7.436398521889157,0.10072188300861315
6.166955999999999,7.452234023978997,0.10027945020366807
6.169352,7.464856720508922,0.09987789164882709
6.17174,7.475197777038709,0.09950821376929109
6.174119999999999,7.490474200621106,0.09909602417843061
6.176523999999997,7.505890393830365,0.09868145568649928
6.178911999999997,7.522097982972541,0.09826867440287865
6.181291999999999,7.538305572114719,0.09785674707053296
6.183695999999998,7.549577794204283,0.09748875970327024
6.1860839999999975,7.563131656293986,0.09708902765488091
6.188464,7.578547849503245,0.09667815720649292
6.190863999999998,7.589028675659892,0.09631212542707901
6.193247999999997,7.596576235510342,0.09597048674896426
6.195632,7.597977723494683,0.09569160221176365
6.198027999999997,7.6043145785316355,0.0953715669571958
6.200415999999997,7.615447030994339,0.0950175033517851
6.202795999999999,7.625229009016684,0.09468943551493106
6.205192,7.637944253345226,0.09434069363289815
6.20758,7.650659497673766,0.09399158182109715
6.209963999999999,7.660441475696112,0.09366480314029074
6.212359999999997,7.665939712971904,0.09338679837912225
6.214744,7.671065863195358,0.09308883731033987
6.217123999999998,7.680615523792226,0.09273984888655068
6.219515999999999,7.6945886947625075,0.09233925421557604
6.221903999999999,7.7021834764412045,0.0919719780490959
6.224283999999997,7.703911725507508,0.09164837177272898
6.226695999999997,7.703265786775057,0.09132224665404762
6.229084,7.703970322482966,0.09097349302710611
6.231463999999999,7.7089585989374285,0.09057941952557952
6.233863999999997,7.71487804095167,0.09018167819009795
6.236251999999997,7.719074921473214,0.08978872944235813
6.238631999999999,7.725413672368036,0.08937335185004742
6.241031999999997,7.7320319625165785,0.08894415649500972
6.243419999999997,7.7378588567322035,0.08851170016310292
6.245799999999999,7.738750383895214,0.08811746118345537
6.248203999999998,7.732844212886058,0.0877696840877808
6.2505919999999975,7.724935941130486,0.08743706498034952
6.252967999999999,7.709438575269825,0.08714869336395373
6.255364,7.695151914222662,0.086842665467212
6.257752,7.685800620228112,0.08649993949766746
6.260131999999999,7.680453527726398,0.08612691588092783
6.262528,7.677899931904017,0.08573968687017358
6.264916,7.667058393842248,0.08542515446903581
6.267299999999999,7.653004050220564,0.08514247558612542
6.269703999999997,7.6433259951440515,0.0848485264280105
6.272088,7.639654242306788,0.08450893359066089
6.274467999999999,7.63942761245492,0.08416390881934269
6.276864,7.635336550737077,0.08384205045370412
