Time,Force,Position
4.884143999999999,0.0,0.0
4.8865280000000055,0.0,0.0
4.888924000000003,0.0,0.0
4.891311999999999,0.0,0.0
4.893696000000006,0.0,0.0
4.896092000000003,0.0,0.0
4.898479999999999,0.0,0.0
4.9008600000000015,0.0,0.0
4.903255999999999,0.0,0.0
4.905644000000002,0.0,0.0
4.908028000000002,0.0,0.0
4.910423999999999,0.0,0.0
4.912812000000002,0.0,0.0
4.915196000000002,0.0,0.0
4.917591999999999,0.0,0.0
4.919984,0.0004857016619931066,0.0
4.922364000000002,0.004044439257041595,0.0
4.924764000000003,0.008674112038728614,0.0
4.927152,0.014234950380193952,0.0
4.929535999999999,0.019935558348519504,0.0
4.931932000000003,0.025496396689984838,0.0
4.93432,0.02919490391189354,0.0
4.936703999999999,0.02919490391189354,0.0
4.939104,0.02919490391189354,0.0
4.941492000000004,0.03117084964110581,0.0
4.943871999999999,0.03701122723629157,0.0
4.946272,0.04485370557789417,0.0
4.948660000000004,0.05255641429263658,0.0
4.951044000000003,0.06025912300737898,0.0
4.9534400000000005,0.06982416284167803,0.0
4.955828000000004,0.07924943304911686,0.0
4.958212000000003,0.08695214176385925,0.0
4.960608000000001,0.09172158417240647,0.0
4.962996000000004,0.09742219214073201,0.0
4.965380000000003,0.10004976417600221,0.0
4.967776000000001,0.10032930342972265,0.0
4.970164000000004,0.09677056583467417,0.0
4.972548000000003,0.09214089305298714,0.0
4.974944000000001,0.0865800547115218,0.0
4.977328,0.08087944674319625,0.0
4.979711999999999,0.07531860840173091,0.0
4.982112000000001,0.0716201011798222,0.0
4.984500000000004,0.0716201011798222,0.0
4.986879999999999,0.0716201011798222,0.0
4.989280000000001,0.06964415545060994,0.0
4.991668000000004,0.06380377785542417,0.0
4.994047999999999,0.05596129951382155,0.0
4.996448000000001,0.048258590799079154,0.0
4.998832,0.04055588208433675,0.0
5.001215999999999,0.030990842250037707,0.0
5.003612000000004,0.021565572042598874,0.0
5.006,0.013862863327856478,0.0
5.008384,0.009093420919309245,0.0
5.010780000000004,0.0033928129509836953,0.0
5.013168,0.0007652409157135271,0.0
5.015548000000003,0.0,0.0
5.017948000000004,0.0,0.0
5.0203400000000045,0.0,0.0
5.022724000000004,0.0,0.0
5.025120000000001,0.0,0.0
5.0275080000000045,0.0,0.0
5.029892000000004,0.0,0.0
5.032288000000001,0.0,0.0
5.034676000000005,0.0,0.0
5.037060000000004,0.0,0.0
5.039456000000001,0.0,0.0
5.041844000000005,0.0,0.0
5.044224,0.0,0.0
5.046624000000001,0.0,0.0
5.049012000000005,0.0,0.0
5.051396000000004,0.0,0.0
5.053792000000001,0.0,0.0
5.056180000000005,0.0,0.0
5.05856,0.0,0.0
5.0609600000000015,0.004580555095574627,0.0
5.063348000000005,0.012047154669101274,0.0
5.065728,0.026264230586553437,0.0
5.0681280000000015,0.04588130840757215,0.0
5.070516000000005,0.07075861850529722,0.0
5.072900000000004,0.09661242013317452,0.0
5.075296000000002,0.1299608722096523,0.0
5.077684000000005,0.16479767249547997,0.0
5.080068000000004,0.20498725285663105,0.0
5.082464000000002,0.24917913885274662,0.00839781621156222
5.084852000000005,0.29988728790944125,0.016830765654579756
5.087232,0.35548168633263544,0.02565240482399142
5.089632000000002,0.41768489561502564,0.034645877394953874
5.092020000000005,0.48793993799558794,0.043727134021622614
5.094404000000004,0.5676898357132983,0.052832817934916794
5.096803999999999,0.6560034232083786,0.062028658504401785
5.099192000000002,0.7541839530929442,0.07129076745740376
5.101572000000004,0.8614400294340774,0.0806390319694764
5.103968000000002,0.9788425874184166,0.08997853763800295
5.106356000000005,1.108673267046099,0.09914159054835761
5.1087400000000045,1.2404849806091598,0.10847370630118797
5.111136000000002,1.379976440218055,0.11773843131435444
5.113524000000005,1.5223520484470328,0.12698529109580747
5.115908000000005,1.6683106534303946,0.1362185599034536
5.118304000000002,1.8209252911011964,0.14531536255474303
5.120692000000005,1.9864818029524076,0.15421337270727029
5.123076000000005,2.1532943455874913,0.16307228451278433
5.125475999999999,2.329511091618975,0.17181080073435212
5.127864000000002,2.511547148434607,0.18041450501871334
5.130248000000002,2.6998218249149657,0.18052285628601947
5.132648000000003,2.8891674365819635,0.1805647905713615
5.135036,3.083495637129817,0.18010892450016097
5.137419999999999,3.2764280372669363,0.17948746592023648
5.139816000000003,3.4670806932617886,0.17874006536901624
5.142204,3.6527073302632815,0.17792989537894977
5.144587999999999,3.833168178644553,0.17702345177722265
5.146984000000003,4.005716963554514,0.17605349682195084
5.149376000000004,4.172216016112719,0.1749695692434179
5.151755999999999,4.332805105946029,0.173827056772351
5.154152000000003,4.482269326748112,0.1728632098866299
5.15654,4.629408477437552,0.17166524540055916
5.158923999999999,4.768495795028821,0.17049854957141575
5.161320000000004,4.89738940914864,0.1693895186251019
5.163708,5.018882816476345,0.16827667129033855
5.166091999999999,5.13167276439982,0.16721583253238964
5.1684920000000005,5.230823885866453,0.16633429374195646
5.170880000000004,5.321084556473753,0.16550159487362848
5.173259999999999,5.40245477622172,0.1647437685142918
5.175660000000001,5.47637756734933,0.16405054116545967
5.178044,5.540850829110168,0.16344704219676176
5.180427999999999,5.598016431877507,0.16285589646041373
5.182828000000001,5.645732505278073,0.16234553224954812
5.185216000000004,5.69251930897673,0.1617244187407883
5.187595999999999,5.731671692599926,0.16117468576078622
5.189996000000001,5.766355239879333,0.16066329493300496
5.192384000000004,5.79764088600159,0.16015802106069363
5.194763999999999,5.8283221276460315,0.1596055146310137
5.197164000000001,5.856396864066244,0.15905308971092955
5.199552000000004,5.879583455262085,0.15856593298742194
5.2019360000000034,5.904400060152007,0.1580186084965782
5.204336000000005,5.922186649444283,0.1575850466420709
5.206724000000001,5.936528115751165,0.15720404414840947
5.209104000000004,5.953850070192486,0.15671370974884571
5.211504000000005,5.969729002394828,0.15623161416614803
5.213892000000001,5.977459761984646,0.15593447674258742
5.216276000000001,5.985981917507379,0.1556308742066693
5.218672000000005,5.995854547470472,0.15528248968194366
5.221060000000001,6.004796011873788,0.1549540838776657
5.223444000000001,6.006288151798874,0.15476164227622632
5.225844000000002,6.005545873552066,0.15458222594869125
5.2282320000000055,6.002521955305122,0.1544649273173417
5.230616000000005,5.999358267431317,0.15435698016791538
5.233012000000002,5.9892571117584845,0.15439518334829636
5.235400000000006,5.9803666608991515,0.1543981897837248
5.237784000000005,5.9748287852265936,0.15431209321447012
5.240183999999999,5.971712319181033,0.15415524606406306
5.242572000000003,5.967524917948833,0.15402420317191176
5.244956000000002,5.961195646343357,0.15394435304961648
5.247351999999999,5.952584734737743,0.15392604043984948
5.249744,5.9414598657065145,0.15393717894455056
5.252124000000002,5.9335478022352,0.15387118721520454
5.254524000000004,5.927777609137165,0.1537533641691102
5.256912,5.921867646412271,0.15364445059814985
5.259295999999999,5.914095352567819,0.15356777996541882
5.261692000000004,5.914331461709035,0.15332369915785532
5.264084000000004,5.911774074170916,0.1531282906539071
5.266472,5.90814575144616,0.15295862113334732
5.268872000000002,5.900652996855428,0.15286307170470584
5.271260000000005,5.895953738944031,0.15271816878778283
5.2736480000000014,5.8908351721520535,0.15260115933848434
5.276048000000003,5.889860576479769,0.1523889778903543
5.278435999999999,5.888466671926906,0.15220520681668254
5.280824000000003,5.8895867247996545,0.15198923557119004
5.283224000000004,5.895362605471296,0.15169168834016752
5.285612,5.893781709463329,0.15156679423114247
5.288004000000001,5.885775202335531,0.15159851655985235
5.290404000000002,5.876418220767374,0.15167558232389733
5.292788000000002,5.871717066998109,0.15166882666192644
5.295176000000005,5.872882445841233,0.1515434504313613
5.297575999999999,5.872697350243999,0.15146301357705003
5.299964000000003,5.874886442445519,0.15136200307229175
5.302351999999999,5.877075534647039,0.15126166564992338
5.304752000000001,5.878985087594839,0.15118093391860368
5.307140000000004,5.884479533154892,0.15104578773414667
5.309536000000001,5.884759072408611,0.15102732219489515
5.311944000000004,5.887552569087947,0.15097954366326508
5.314332,5.890066526513562,0.1509502675129979
5.316732000000002,5.898167477297846,0.15082541384258377
5.319132000000003,5.911064025507882,0.15061387423662537
5.32152,5.929547567076589,0.1503095028713605
5.323920000000001,5.946680634204935,0.1500511973280289
5.326316000000006,5.964744866893061,0.14977757014397478
5.328707999999999,5.983880034767824,0.149479904546282
5.331104000000003,5.999011001149755,0.1492657890659036
5.333511999999999,6.0189375649574375,0.14896231881972957
5.335896000000005,6.045801596564149,0.14852126151159875
5.338304000000001,6.075738664103916,0.14801673635495013
5.340700000000005,6.105535962016822,0.14753089825139032
5.3431,6.133191389556451,0.14709890286817762
5.345500000000001,6.165642414521832,0.14658791678062918
5.347888000000005,6.192087137247963,0.14619159199926446
5.350287999999999,6.216110450347096,0.14586061366366299
5.352696000000002,6.237060727513173,0.14559301953287315
5.355088000000002,6.257079839119473,0.14534285063437427
5.357468000000004,6.2812429218454655,0.1450069304936314
5.359872000000003,6.307408105317877,0.14463690747952748
5.362259999999999,6.335435619909842,0.14423917864682195
5.364640000000001,6.3616008033822515,0.14387516225832847
5.367035999999999,6.383901554988688,0.14358143401752424
5.369424000000002,6.402617413982871,0.14333921291696594
5.3718040000000045,6.421473042603916,0.1430897255304531
5.374203999999999,6.442750080851957,0.14278275556331993
5.376592000000002,6.467239924659914,0.14241571071174883
5.3789720000000045,6.490798602908092,0.14206117915909086
5.381368000000002,6.516638921156408,0.1416593482882597
5.383756000000005,6.539685742725389,0.1413013630568635
5.3861360000000005,6.560870233174814,0.14097230443627412
5.388539999999999,6.574325859892292,0.14076296482597087
5.390928000000002,6.589271730676988,0.14050996533818189
5.393308000000005,6.5983510688492935,0.1403524807757754
5.395707999999999,6.610782982208375,0.14012133296184665
5.398096000000002,6.624425600380956,0.13985955965840385
5.400476000000005,6.637137052993758,0.13960871395255098
5.402872000000002,6.6499882752334205,0.13935107380219997
5.4052600000000055,6.6600460007937485,0.13913402315541834
5.407640000000001,6.6645167329954065,0.13899598582769507
5.410036000000005,6.6666132773983104,0.13887307042521352
5.4124240000000015,6.666987260308517,0.13876820836381404
5.414804000000004,6.669642883218861,0.13861332361156517
5.417204000000005,6.6724382757560665,0.13845049404551724
5.4195920000000015,6.675792746800712,0.13825610714383696
5.421987999999999,6.6722097500463295,0.13817554111814925
5.424384000000003,6.662760220679555,0.13818711856137675
5.426772,6.65452139612628,0.13816983609013717
5.429152000000002,6.64376861414739,0.13817304795460247
5.431552000000004,6.6331556017953615,0.1381678722272166
5.43394,6.620680258323774,0.13818781793877224
5.436323999999999,6.616632626718435,0.13805140750225195
5.438720000000004,6.6104431247398185,0.13795592100879298
5.441108,6.605743866828423,0.13781568644312636
5.443491999999999,6.604397184103801,0.13760689808447146
5.445888000000004,6.603469810259761,0.13737432168890154
5.448280000000004,6.604963846042719,0.13708472227688212
5.450659999999999,6.6050148595867,0.13679606696353047
5.453056000000004,6.608138909063736,0.1364557979049621
5.455444,6.61340482891405,0.13607315759691088
5.457827999999999,6.619741683951002,0.1356704086296457
5.460224000000004,6.626358078241674,0.135250949136645
5.462612,6.629110040666374,0.1348889286775725
5.464995999999999,6.630930837531294,0.13453891702830448
5.467392000000004,6.630749533649799,0.13422158940189255
5.46978,6.635643366447773,0.13381870004555396
5.472163999999999,6.6416081344323885,0.13339409038592567
5.474560000000004,6.649714772790281,0.13293188785773621
5.476952000000004,6.656610706334675,0.1324979558002881
5.479331999999999,6.664437805438846,0.13205357198186723
5.481732000000001,6.676408875662713,0.13153907929015837
5.484120000000004,6.682233874020468,0.13112810272772552
5.4865,6.687547015699025,0.13070522652292108
5.488900000000001,6.691649452564084,0.13030847822221334
5.491284,6.689745587189892,0.13000614126725366
5.493668,6.686770786629061,0.12972310539914225
5.496064000000004,6.682725050881592,0.1294592931591152
5.498452,6.67919117181332,0.12920736482182674
5.500836,6.673003565692573,0.12898213493919838
5.503232000000004,6.665884794012048,0.12876760758978614
5.50562,6.6618390582645794,0.12850397894736168
5.508004,6.660586819196445,0.1282073224051155
5.510400000000004,6.661196911247869,0.12788779668925654
5.5127880000000005,6.66259839923221,0.12756470455628896
5.515172,6.665582679082386,0.12723535997284746
5.517568000000004,6.668566958932564,0.12690764748900257
5.519960000000005,6.674624274715795,0.1265331316792005
5.52234,6.677468784939112,0.12621522228019347
5.524740000000001,6.681104691095346,0.12589407541843012
5.527128000000005,6.6828782661320245,0.12559471483924084
5.529508,6.681299265981927,0.12535847303534645
5.531908000000001,6.685586798444219,0.1250438309486761
5.534296000000005,6.68931525239907,0.1247592156786971
5.536680000000004,6.6969081382198965,0.12442519157276716
5.539076000000001,6.71101918295917,0.12401920547317781
5.541464000000005,6.728994659564417,0.12356701365856466
5.543848000000004,6.74869269766236,0.12310263600425148
5.546248000000006,6.769461670946942,0.12262232796484461
5.548636000000002,6.7924650624034175,0.12214384585615953
5.551016000000004,6.820124281658786,0.12161715926859071
5.553416000000006,6.840286954607684,0.12121384222167167
5.555804000000002,6.860449627556582,0.12081568569863642
5.558188000000001,6.881403696438399,0.12041681989123978
5.560588000000003,6.903428700506852,0.12000252890638649
5.562975999999999,6.923591373455752,0.11960839373616625
5.565356000000001,6.940401471217872,0.11927284996201504
5.567751999999999,6.953858993793219,0.11899743812285206
5.570140000000002,6.968387451555203,0.1187050442789137
5.572520000000004,6.983986844503826,0.11839694398058553
5.574919999999999,7.0013087989451455,0.11807773557901421
5.577308000000002,7.0199812278268245,0.11772701864424381
5.579692000000001,7.0346494552156695,0.11743126214555766
5.582087999999999,7.050528387418014,0.11711126102726234
5.584476000000002,7.067618024433857,0.1167720890980457
5.5868600000000015,7.076978797717752,0.11652173494002989
5.589260000000003,7.082475139135674,0.11631667594878665
5.591647999999999,7.089321954993957,0.11608271670719525
5.5940280000000016,7.0950978356656,0.11586554823019805
5.596428000000003,7.099290924471406,0.1156528345165578
5.598815999999999,7.102692617344293,0.11544384585619338
5.601199999999999,7.112659690963873,0.11513295364016994
5.603596000000003,7.116480692717341,0.11490192231577237
5.605988000000004,7.1176479674183355,0.11468988312971597
5.608372000000003,7.116952910999773,0.11449539596213806
5.610768,7.118259955327626,0.11427669395758513
5.613156000000004,7.123990510028895,0.11398859296476498
5.615535999999999,7.1329338702900795,0.11365457116860367
5.617932000000003,7.13894396424507,0.11335219086538711
5.62032,7.144162662267141,0.11305237483608924
5.622700000000002,7.146867402863598,0.11276400203870403
5.625100000000003,7.153436575326028,0.11243756720653109
5.627488,7.162147618161734,0.11208118493456579
5.629868000000002,7.172860761743857,0.1117033836128964
5.632263999999999,7.17742783345987,0.11140277401304612
5.634652000000003,7.189072142601773,0.11101762902212793
5.637032000000005,7.202578782863232,0.11061702454511703
5.639428000000002,7.210079120885441,0.11028529983166999
5.641815999999999,7.215856897414952,0.10996223505696019
5.644200000000005,7.219772342824906,0.10965484899533072
5.646596000000002,7.219823356368888,0.10938696696099431
5.648983999999999,7.214519693979677,0.10919343352465744
5.651368000000005,7.217364204202993,0.10890172508231502
5.6537640000000025,7.222210815172726,0.10858680761707289
5.656151999999999,7.22705742614246,0.1082713960324201
5.658532000000001,7.232183576365913,0.10794382216760867
5.6609320000000025,7.233305525096535,0.10766178484882005
5.663319999999999,7.226419070841488,0.107468665285355
5.665700000000001,7.2252593795719715,0.10722170576291326
5.668100000000003,7.223959918675593,0.10698179520434932
5.670484000000002,7.2235916233389945,0.10673343579253812
5.672868000000001,7.214143989830089,0.10658902654972938
5.675264000000006,7.200831924455211,0.10648196066900256
5.677648000000005,7.182724261654579,0.10641977344148953
5.680032000000004,7.167829404413864,0.10631350183478366
5.682428000000002,7.1489303456803155,0.1062507219395139
5.684816000000005,7.126306624707655,0.106218030911064
5.687196,7.1094096667205235,0.10613236412972521
5.689592000000005,7.093583643920031,0.10603160737747166
5.691980000000001,7.075755520373121,0.10595311915269566
5.694355999999999,7.05792739682621,0.10587435413543424
5.696760000000005,7.043172309212356,0.10575804358102195
5.699148000000001,7.023761393799611,0.10567903524421546
5.701528000000003,7.004210708760005,0.10560610694317192
5.703924000000001,6.985591189280177,0.10552498706584484
5.706312000000004,6.960825597934237,0.10551734142614336
5.7087080000000014,6.94085560401405,0.10546344835378205
5.711103999999999,6.9299649482661705,0.10530624893574196
5.713492000000002,6.915489399906036,0.10517181992415665
5.7158760000000015,6.897009650053068,0.10508122137296916
5.718271999999999,6.880392231319656,0.10497466563295894
5.720660000000002,6.86791878370594,0.10481672110914224
5.723040000000005,6.856236732025141,0.10465754294755626
5.725436000000002,6.8482793425834565,0.1044672347875572
5.727824000000005,6.84032195314177,0.1042766668368992
5.7302040000000005,6.831433398140305,0.10409301536789602
5.732600000000005,6.8264092750048135,0.10387132912738192
5.734988000000001,6.818591655189989,0.1036724283339747
5.737372000000001,6.8115654313080825,0.1034727379401983
5.739768000000005,6.80733270410551,0.10324930420669004
5.742156000000001,6.8040311424627165,0.10301751380540394
5.744536000000004,6.802731681566339,0.10276425287323196
5.746940000000002,6.797939875856325,0.10256793979687763
5.7493280000000055,6.791145969399895,0.1023934692106544
5.751708000000001,6.783420897383686,0.10222622801808678
5.754104000000005,6.78077096204695,0.10199839145676465
5.7564920000000015,6.771463098164904,0.10183058808799643
5.758872000000004,6.757219867230248,0.10171432067720441
5.761268000000001,6.743116405922452,0.10158995002386069
5.7636560000000046,6.7342278509209885,0.1013988610577849
5.766052000000002,6.722126490359607,0.10125143350426027
5.768447999999999,6.710304669051949,0.10108880741837861
5.770836000000003,6.7024870492371225,0.10088190577522207
5.773216000000005,6.69387803348938,0.10067510233614071
5.775620000000004,6.683266916995221,0.10048940509897476
5.778004000000003,6.673586966060838,0.10029568853791296
5.780384000000005,6.6608339791933995,0.10013777138046931
5.782788000000004,6.649151927512602,0.09996480803304152
5.785176,6.637609645458661,0.09978419382989492
5.787556000000002,6.632353204897694,0.09952579201459757
5.789952,6.629098865083142,0.09924635962170458
5.792335999999999,6.622119863029478,0.09899460027696011
5.794720000000005,6.620355767282145,0.09867886080555516
5.797116000000003,6.618731441161674,0.09835441028603996
5.799503999999999,6.618038280600981,0.09802278823392176
5.801884000000001,6.617205350413427,0.09769862576512688
5.804284000000003,6.61795521209171,0.0973723772172041
5.806671999999999,6.6174943689564945,0.09706551930073713
5.809052000000001,6.6134014113807815,0.09682190814533581
5.811452000000003,6.6050247130585165,0.09663549722231306
5.813836000000002,6.598929654736388,0.096412300937557
5.816216000000004,6.595208784213013,0.09619008002894908
5.818624,6.586552546637026,0.09601730236466717
5.821007999999999,6.574823273127983,0.09587957567042762
5.8233920000000055,6.563885395551859,0.09574164507826836
