Time,Force,Position
7.602843999999997,0.11772047974689395,0.0
7.6052399999999984,0.1292685015072041,0.0
7.607631999999999,0.1389541921479576,0.0
7.610011999999998,0.1455668468556557,0.0
7.612411999999999,0.1512483360035755,0.0
7.614799999999999,0.15311066712313215,0.0
7.617179999999998,0.15786099071127363,0.0
7.619579999999999,0.1616801487396368,0.0
7.621963999999998,0.16535953714113974,0.0
7.624343999999997,0.162705810088665,0.0
7.626739999999998,0.1620541837826071,0.0
7.629127999999998,0.1611230182228288,0.0
7.631527999999999,0.15446508967752035,0.0
7.633923999999997,0.14356869422326812,0.0
7.636311999999997,0.133463694701934,0.0
7.638691999999999,0.12042542887440467,0.0
7.641088,0.10645599748709705,0.0
7.643476,0.09462843647306649,0.0
7.645859999999999,0.08396630643492434,0.0
7.648256,0.07209347158328341,0.0
7.650644,0.0584035794496962,0.0
7.653027999999999,0.04685555768938607,0.0
7.655424,0.04140833395757634,0.0
7.657812,0.038242750225903906,0.0
7.660191999999999,0.03801043280042664,0.0
7.662587999999999,0.04085115130800475,0.0
7.66498,0.037545797949472104,0.0
7.667359999999999,0.035031840523857556,0.0
7.669756,0.031586717538464704,0.0
7.672148,0.03107486085926701,0.0
7.674527999999999,0.027115933204043645,0.0
7.676924,0.02329677517568049,0.0
7.679311999999999,0.023202279386430616,0.0
7.681695999999999,0.023202279386430616,0.0
7.684092,0.023202279386430616,0.0
7.686479999999999,0.023202279386430616,0.0
7.688859999999998,0.023202279386430616,0.0
7.691255999999999,0.023202279386430616,0.0
7.693648,0.02296801397032053,0.0
7.696027999999998,0.022873518181070657,0.0
7.698428,0.022873518181070657,0.0
7.700811999999999,0.022873518181070657,0.0
7.703208,0.01863505127212687,0.0
7.705603999999997,0.015187980296101194,0.0
7.707991999999997,0.009738808573658667,0.0
7.710367999999999,0.004289636851216139,0.0
7.712767999999997,0.0028446666216073143,0.0
7.715152,0.001539466018858699,0.0
7.7175319999999985,0.001305200602748615,0.0
7.719932,0.0,0.0
7.722315999999999,0.0,0.0
7.724711999999997,0.0,0.0
7.727107999999998,0.0,0.0
7.729495999999997,0.0,0.0
7.731876,0.0,0.0
7.734271999999997,0.0,0.0
7.736663999999997,0.0,0.0
7.739044,0.0,0.0
7.741439999999997,0.0,0.0
7.743827999999997,0.0,0.0
7.746207999999999,0.0,0.0
7.748607999999997,0.0,0.0
7.750995999999997,0.0,0.0
7.75338,0.0,0.0
7.755775999999997,0.0,0.0
7.758163999999997,0.0,0.0
7.760543999999999,0.0,0.0
7.762947999999998,0.0,0.0
7.765335999999998,0.0,0.0
7.767716,0.0,0.0
7.770111999999997,0.0,0.0
7.772499999999997,0.0,0.0
7.77488,0.0,0.0
7.777275999999997,0.0,0.0
7.779663999999997,0.0,0.0
7.782043999999999,0.0,0.0
7.78444,0.0,0.0
7.786828,0.0,0.0
7.789223999999997,0.0,0.0
7.791619999999998,0.0,0.0
7.794007999999998,0.0,0.0
7.796387999999997,9.449578924987392e-05,0.0
7.798783999999998,0.0019115530711961786,0.0
7.801171999999997,0.0019115530711961782,0.0
7.803552,0.0019115530711961782,0.0
7.805947999999997,0.0019115530711961786,0.0
7.808335999999997,0.0019115530711961786,0.0
7.810715999999999,0.0019115530711961786,0.0
7.813111999999997,0.0019115530711961786,0.0
7.8155,0.0019115530711961786,0.0
7.817895999999997,0.0020041530025768093,0.0
7.8202919999999985,0.0023290703594347063,0.0
7.822683999999999,0.0024669962611892434,0.0
7.825063999999998,0.002466996261189244,0.0
7.8274599999999985,0.002466996261189244,0.0
7.829847999999998,0.003906278917190341,0.0
7.832227999999997,0.011816498663396525,0.0
7.834627999999999,0.022845080313032,0.0
7.837015999999998,0.03634039756003888,0.0
7.839395999999997,0.052814307083614835,0.0
7.841791999999998,0.07426890963017672,0.0
7.844179999999998,0.0984678390371976,0.0
7.846559999999997,0.12764746146720438,0.0
7.848955999999998,0.16213459013492426,0.0
7.851343999999997,0.20104333331818922,0.0
7.853724,0.2491692884427511,0.009842400725375337
7.856123999999998,0.3065124555086099,0.018987214568195084
7.858511999999997,0.3678579282094331,0.028291571162742134
7.860895999999997,0.43506803766477736,0.03754068096397387
7.863291999999998,0.5081427838746428,0.046743411669458924
7.865679999999998,0.5896432939601236,0.05571167368554704
7.86806,0.677427749680706,0.06465796716731231
7.870463999999998,0.7711240639840526,0.07361860394652077
7.872847999999998,0.8744078335559279,0.08235481398067601
7.875231999999997,0.9842078661883822,0.0910871668026023
7.877627999999998,1.099596735904612,0.09984084151256675
7.880011999999997,1.2118181260313003,0.10881105955690493
7.882396,1.329951374740753,0.1176699229480045
7.884791999999997,1.4537169427792493,0.1264751576099353
7.887179999999997,1.5830222823481723,0.13517238640850318
7.889571999999998,1.7135836527009682,0.1439069738950851
7.8919679999999985,1.8547599312636627,0.15233634470383364
7.894355999999998,1.996820153557893,0.1607256875777356
7.896735999999997,2.144048060330212,0.16903202368975656
7.899139999999999,2.2944415508342035,0.17730669814810265
7.901527999999999,2.4434845668978364,0.17568072790245298
7.903911999999998,2.5893147774015537,0.17475140955357898
7.906307999999999,2.738869650144384,0.17362385065968025
7.9086919999999985,2.8897749973275735,0.1725009409978698
7.911075999999998,3.041239423018203,0.1713879727441083
7.913475999999999,3.1906092001638,0.17047506235734416
7.915859999999999,3.339746659883919,0.16956350071931137
7.918243999999998,3.4895829677383388,0.16860643025318311
7.920639999999999,3.636533231114807,0.16783293963352106
7.923027999999999,3.786603752252574,0.16694347204561955
7.925407999999997,3.93476661630041,0.16600460132559117
7.927807999999999,4.086608816616986,0.16478526465319068
7.930195999999999,4.233749863164295,0.1636599905741205
7.932575999999997,4.377912317435035,0.16256389227110626
7.934971999999998,4.517605935361988,0.16157921622538754
7.937363999999999,4.6532500258257325,0.16059493027306146
7.939743999999997,4.772692214720909,0.16006074557308403
7.942139999999998,4.887386028018577,0.1596046948572897
7.944527999999998,4.996400300158957,0.15925930318298384
7.946911999999997,5.101876901515328,0.15894542248681423
7.9493079999999985,5.205538393580385,0.1586458245995947
7.951695999999998,5.308315941913906,0.15832160229813858
7.954075999999997,5.407695589090278,0.15801872052690757
7.956471999999998,5.501767782161703,0.15781808590329602
7.958859999999998,5.593326017807513,0.15766311179069975
7.961255999999999,5.679437029721512,0.15760929590360653
7.963655999999997,5.763313623463618,0.15757544961110387
7.966044,5.845747194966748,0.1575561381912123
7.968423999999999,5.925666809044263,0.15757725322236574
7.97082,6.000790825696027,0.1577106984408301
7.973208,6.077637403840487,0.15782632699683613
7.975587999999998,6.1511314067981715,0.15803057094684655
7.977988,6.227511454233808,0.15822535000694044
7.980371999999999,6.3047754454009795,0.1584488745546372
7.982751999999998,6.385065250672962,0.15865132867686574
7.985151999999999,6.474107633035288,0.1587372024052573
7.987539999999999,6.575767024353931,0.1586239560207065
7.989919999999998,6.6845962008970785,0.1584140352012057
7.992315999999999,6.799104918597513,0.1581534694269782
7.994703999999999,6.920084573388153,0.15784737125806328
7.997087999999998,7.043670733403024,0.1575646815706908
7.999483999999999,7.171865499388543,0.15727024502689355
8.001871999999999,7.306111893583688,0.15695912209349264
8.004255999999998,7.447248533749616,0.15657276171002568
8.006651999999999,7.594204484699693,0.15614419592331158
8.009039999999999,7.749913012740112,0.1556172576058088
8.011423999999998,7.909578520445122,0.15507444801694445
8.013819999999999,8.069336575948748,0.15456694768852738
8.016212,8.231840906303468,0.1540644875729584
8.018591999999998,8.396719424456942,0.15355749128802723
8.020988,8.560107698543195,0.15310334569734668
8.023371999999998,8.728431339682063,0.15258758278527565
8.025755999999998,8.892658231529477,0.1521116584884702
8.028147999999998,9.056001179645357,0.15162101690163118
8.030535999999998,9.217529018469923,0.1511325966165256
8.032931999999999,9.371654754644505,0.150720298463457
8.035328,9.520240719288662,0.15035595316715417
8.037716,9.660772954976776,0.15005473894852778
8.040095999999998,9.795533101708989,0.14977237569139268
8.042496,9.919213705380345,0.14955605382503145
8.04488,10.033537327483547,0.14938579196682736
8.047263999999998,10.13636209764531,0.1492923705733982
8.04966,10.228666403253664,0.14923812937725642
8.052043999999999,10.31203303617444,0.14921261526480523
8.054427999999998,10.390466197900475,0.14917100322202675
8.056823999999999,10.461172391752429,0.1491385914687462
8.059207999999998,10.523872078476584,0.14912270117782828
8.061608,10.582709229192638,0.14906941605251672
8.064003999999997,10.63610105203475,0.14898785335649212
8.066391999999997,10.681486367749065,0.14892184199126243
8.068772,10.724871478574832,0.14880338827733136
8.071168,10.758108211899524,0.14872873726433233
8.073556,10.789437288134286,0.14862258028107356
8.075935999999999,10.815134045040004,0.14852027753379227
8.078332,10.837060813736233,0.14840511305239543
8.08072,10.85200478866306,0.14831618327417775
8.083099999999998,10.86345831463412,0.14820352680098278
8.085503999999997,10.872305335380949,0.14808467692335742
8.087892,10.878313533478067,0.1479433412424723
8.090276,10.886371054149846,0.14775343543512248
8.092671999999997,10.896105810343949,0.14750328463275253
8.09506,10.907657571687233,0.14718710194660123
8.097444,10.921118885978316,0.1468280952808024
8.099839999999997,10.93742091877698,0.1464185657711405
8.102227999999997,10.943759669671804,0.1460913172481491
8.104607999999999,10.947864002394732,0.1457698418255938
8.107007999999997,10.952667183251961,0.14542370832630386
8.109395999999997,10.95788967298977,0.14506378242524767
8.111775999999999,10.9646024067948,0.14467765474112995
8.114172,10.97001188798771,0.14428701479879627
8.11656,10.967832275075535,0.143966420731066
8.118939999999998,10.964861266230445,0.1436479230551548
8.121336,10.960587004773238,0.1433260962449075
8.123724,10.957802987383248,0.14297627931308945
8.126107999999999,10.951434077381007,0.14265364956020296
8.128504,10.947207037752042,0.14230344575798132
8.130892,10.938696257376524,0.14200502045305013
8.133287999999997,10.929673620321807,0.1416991791090815
8.135683999999998,10.921023070319425,0.14140496550896156
8.138071999999998,10.912372520317046,0.14111111268429727
8.140452,10.903023122180368,0.14084205273070538
8.142851999999998,10.892835106282527,0.14060237768688777
8.145239999999998,10.877944040757551,0.14042913264419743
8.147623999999997,10.862633666351995,0.14027043973009906
8.150019999999998,10.854772616424665,0.14004797540371836
8.152407999999998,10.84849435836317,0.1398195668522856
8.154788,10.842727956980875,0.1395982522750352
8.157183999999997,10.836402477091138,0.13939686691990447
8.159571999999997,10.824442782014488,0.13926840033579083
8.161956,10.813646569923094,0.1391486742654809
8.164351999999997,10.809228747123287,0.1389790875926806
8.166739999999997,10.807464651375952,0.13879068448235868
8.169124,10.809005908987153,0.1385865283726266
8.171519999999997,10.807566678463916,0.13843698369010954
8.173907999999997,10.80943280129921,0.13827116823539262
8.176288,10.816746147866315,0.13806482106358609
8.178687999999998,10.828715322232313,0.1378196322526819
8.181075999999997,10.843710310703123,0.13756876760413347
8.183456,10.85842575992021,0.13732809958936174
8.185851999999997,10.869928403577381,0.13712516450964762
8.188239999999997,10.882222443167475,0.13692001228884076
8.19062,10.899172310556455,0.13667807813329996
8.193019999999997,10.922547789065268,0.13636219025091545
8.195404,10.941639526827528,0.13609613179167765
8.197788,10.95737868940301,0.1358725731843718
8.200184,10.972838312724774,0.13565968162380593
8.202572,10.986156065673262,0.1354715264320766
8.204956,10.998402883435109,0.13529595065198144
8.207351999999997,11.013303428249433,0.13510207233911647
8.20974,11.034210275303007,0.13485066548397293
8.212135999999997,11.051764547169803,0.13464104954390405
8.214535999999999,11.073834877208633,0.13440145530035583
8.216923999999999,11.091481696874046,0.13421569900760238
8.219303999999998,11.113924113965211,0.13398898067845236
8.221703999999999,11.133805351802518,0.13380058403175207
8.224091999999999,11.147400748146856,0.13368016870727542
8.226471999999998,11.163510101916806,0.13354880151735676
8.228871999999999,11.177757124567202,0.13343215691648722
8.231259999999999,11.191724607963874,0.13332497127005916
8.233643999999998,11.208066279159306,0.13321024556937766
8.23604,11.223337015168097,0.13310768181370747
8.238427999999999,11.234883088937773,0.13303436171812094
8.240811999999998,11.241586343453456,0.13302720824954373
8.243208,11.252293799461972,0.13298244262286402
8.245595999999999,11.269007557709738,0.1328820790375057
8.247975999999998,11.28250851039759,0.1328165604283901
8.250376,11.298942729391637,0.13272554903259365
8.252763999999999,11.31751881875896,0.13261176976183625
8.255147999999998,11.339447483313059,0.1324593986177472
8.257544,11.355369845627909,0.1323635026927159
8.259936,11.372642682383114,0.1322465719376578
8.262315999999998,11.38619085689921,0.13215824716252805
8.264716,11.40402277216186,0.1320247001668606
8.267104,11.419061190745174,0.1319120644215116
8.269487999999999,11.437731723768984,0.13175192240321085
8.271887999999997,11.462548328658903,0.1315336248541564
8.274272,11.482848875376792,0.13134532047621275
8.276651999999999,11.504220357281318,0.13114616712250465
8.279055999999997,11.53001534955926,0.13089935467940136
8.281443999999997,11.556369420344641,0.13063516244206175
8.283824,11.583794426316661,0.13036036529701742
8.28622,11.610148497102044,0.13009644194730347
8.288604,11.640134682327924,0.12978605284767894
8.290983999999998,11.669329471620886,0.12947942274133048
8.293391999999997,11.692937267555177,0.12921389988643275
8.295776,11.72283090498244,0.12888812701074034
8.29816,11.748999880170587,0.12858845647695474
8.300559999999997,11.77223558905254,0.12831329539695474
8.302947999999997,11.794260593120994,0.1280555413905787
8.305328,11.821220964242059,0.12775857189696085
8.307731999999998,11.848041565736267,0.1274661506071799
8.310119999999998,11.875001936857334,0.12717047808726173
8.3125,11.896887171298928,0.12691982625235892
8.314903999999999,11.919331484247964,0.12665205681471428
8.317291999999998,11.938423222010224,0.12642106174361661
8.319671999999997,11.951508657533234,0.12624104970581404
8.322067999999998,11.968458524922216,0.1260326288808035
8.324455999999998,11.986619097124695,0.12581048730571037
8.326836,12.001427094140402,0.12562549990123598
8.329231999999998,12.018097422275662,0.12542966959863566
8.331619999999997,12.03798055597084,0.12520476451672613
8.334,12.061216264852794,0.12494568550828661
8.336395999999997,12.08231010336147,0.12470796049503775
8.338783999999997,12.10019113631023,0.12450049343568155
8.341159999999999,12.11779263000527,0.12430123698107569
8.343567999999998,12.129527591087921,0.1241464693383957
8.345951999999997,12.146058149596323,0.12395860758414032
8.348332,12.16552197441092,0.12374950383235701
8.350735999999998,12.178188101053346,0.12358906933564792
8.353123999999998,12.186058630270022,0.12346263965679533
8.355504,12.199423605046753,0.12328317216847232
8.357907999999998,12.210786479077067,0.1231195680762101
8.360291999999998,12.224430993107513,0.12293153836010964
8.362675999999997,12.23923899012322,0.12275372266461851
8.365071999999998,12.257399562325702,0.12254236568041907
8.367459999999998,12.27677083934168,0.12231612307308878
8.36984,12.293208850051464,0.12211220346070045
8.372235999999997,12.307365220761113,0.12193285357415909
8.374619999999997,12.319799029978066,0.12176069331587497
8.376999999999999,12.328368407329044,0.1216157578559794
8.379407999999998,12.331583108746827,0.1215201188582818
8.381791999999997,12.331305465350976,0.12146208123769597
8.384176,12.331027821955127,0.12140405490728239
8.386571999999997,12.33489414967897,0.12131137758958394
8.388959999999997,12.341693743709005,0.12119804379452777
8.39134,12.353009395911073,0.12106135224377422
8.393735999999997,12.366187379232699,0.12091519140527206
8.396123999999997,12.379225592927465,0.12077396473863708
8.398503999999999,12.401994771100597,0.1205664788145489
8.400903999999997,12.427417676326199,0.12034723957374538
8.403291999999997,12.449068697484448,0.12017478515787786
8.405672,12.476166942374508,0.11997561246350344
8.408068,12.508060784690315,0.11974809248133529
8.410456,12.542515806259981,0.11949239419884915
8.412835999999999,12.57669128857593,0.11924650106102132
8.415235999999997,12.617664469064046,0.11895918378161116
8.41762,12.660360211044857,0.11866657277625337
8.419999999999998,12.703195722652527,0.11837017346175176
8.422395999999999,12.75054729243223,0.11805379507066759
8.424783999999999,12.800692358891268,0.11772308212675146
8.427163999999998,12.850977194977167,0.11738736044676422
8.429564,12.906197398115678,0.117019903908234
8.431947999999998,12.965142263493304,0.116634760503056
8.434327999999997,13.02194525849765,0.11626886536820408
8.436727999999999,13.0770256920093,0.11591057581433448
8.439111999999998,13.130663103281973,0.11555293271605675
8.441507999999999,13.179504917128897,0.11522638304105579
8.443904,13.225413464669622,0.11491885841430093
8.446292,13.267597349971236,0.1146335213961211
8.448675999999999,13.310060774526569,0.11434226340092982
8.451072,13.352012342402707,0.1140455359790824
8.45346,13.388656456173894,0.11377118575270832
8.455839999999998,13.418363102146055,0.11354226410500219
8.458236,13.44285484181188,0.1133528352827476
8.460624,13.466555185544786,0.11316517248614008
8.463003999999998,13.483737370359245,0.11301096251411692
8.465404,13.498545367374952,0.11285952459615956
8.467792,13.513353364390658,0.1127082007187917
8.470171999999998,13.522993676928275,0.11257324088302974
8.472567999999999,13.53319306797333,0.11242420649150071
8.47496,13.546605264578304,0.11225098969563872
8.477339999999998,13.556572338197883,0.11208892889827704
8.479743999999997,13.562023353645433,0.11194568491711898
8.482132,13.568824843533339,0.11178727142239127
8.484511999999999,13.57935099566036,0.11161217536388143
8.486908,13.587735277414103,0.11145321182692072
8.489296,13.596399098421566,0.11128710900102852
8.491679999999999,13.608275724988946,0.11109744844842705
8.494076,13.618150250809908,0.1109201591085158
8.496464,13.625371049578396,0.1107524142791729
8.498843999999998,13.632591848346882,0.11058508776022481
8.50124,13.641674978234928,0.11040943999475446
8.503627999999999,13.655833244802444,0.11020211790650203
8.506024,13.671062446556599,0.10998682737456308
8.508419999999997,13.686151878683896,0.10977571984278374
8.510807999999997,13.702824102677027,0.10956368893166539
8.513192,13.722010284095774,0.10934679184326973
8.515587999999997,13.745480206261071,0.1091002462335134
8.517975999999997,13.771603855478846,0.10884508979047425
8.520356,13.793303994323205,0.10862477967585454
8.522751999999997,13.810068766114954,0.10843227391927793
8.525139999999997,13.826973307533562,0.10823663220101781
8.527519999999999,13.846811115258365,0.10802571557125033
8.529923999999998,13.867580088542947,0.10781179725195372
8.532311999999997,13.885835104401917,0.10760423687473729
8.534692,13.9048815161938,0.10739610042476645
8.537087999999997,13.92164628798555,0.10720641086308016
8.539475999999997,13.93654872865774,0.1070253771330812
8.541856,13.956386536382544,0.10681830139201529
8.544259999999998,13.975805035226768,0.10662163277152797
8.546647999999998,13.993221433324573,0.1064365674864443
8.549028,14.009986205116322,0.10624892651303983
8.551427999999998,14.022746775415238,0.10608445835238503
8.553811999999997,14.036578280900791,0.10591289788934005
8.556196,14.049618390453428,0.10574200921480606
8.558591999999997,14.064800370379341,0.10555727467203166
8.560979999999997,14.078539328066276,0.10537033335851537
8.56336,14.086783840193156,0.10522379960248579
8.565755999999997,14.096099287506679,0.10507058499440541
8.568143999999997,14.109279166686173,0.10489894394141483
8.570523999999999,14.131258844784254,0.10468412211617498
8.572923999999997,14.154821314748167,0.10446960857088292
8.575311999999997,14.177312849525443,0.10426318722349368
