Time,Force,Position
11.482463999999998,0.0,0.0
11.484851999999998,0.0,0.0
11.487232,0.0,0.0
11.489632,0.0,0.0
11.492019999999998,0.0,0.0
11.4944,0.0,0.0
11.496795999999998,0.0,0.0
11.499184,0.0008046491074916135,0.0
11.501563999999998,0.002540463774761548,0.0
11.503968,0.0044160480688916915,0.0
11.506355999999998,0.005220697176383305,0.0
11.508736,0.011100482963347152,0.0
11.511131999999998,0.018190973563809738,0.0
11.513519999999998,0.02942543528396624,0.0
11.515899999999998,0.039868501071204626,0.0
11.518304,0.049380401298664695,0.0
11.520687999999998,0.053817164846652533,0.0
11.523068,0.0593248635812789,0.0
11.525472,0.0659034975025438,0.0
11.52786,0.07127142661030995,0.0
11.53024,0.07249538459838219,0.0
11.532635999999998,0.07371934258645445,0.0
11.535023999999998,0.07371934258645443,0.0
11.537408,0.07371934258645443,0.0
11.539803999999998,0.07371934258645443,0.0
11.542191999999998,0.07371934258645443,0.0
11.544572,0.07371934258645443,0.0
11.546968,0.07291469347896283,0.0
11.549356,0.07117887881169291,0.0
11.551735999999998,0.06930329451756276,0.0
11.554132,0.06849864541007115,0.0
11.55652,0.0626188596231073,0.0
11.5589,0.055528369022644714,0.0
11.561308,0.04429390730248822,0.0
11.563692,0.03385084151524982,0.0
11.566076,0.024338941287789753,0.0
11.568471999999998,0.019902177739801918,0.0
11.57086,0.014394479005175546,0.0
11.573239999999998,0.007815845083910648,0.0
11.575639999999998,0.0024479159761444914,0.0
11.578027999999998,0.003239311909062601,0.0
11.580407999999998,0.0032393119090626007,0.0
11.582804,0.007396536203330017,0.0
11.585192,0.012484926057375754,0.0
11.587571999999998,0.01757331591142149,0.0
11.589975999999998,0.023732640952105755,0.0
11.592363999999998,0.03175429711234667,0.0
11.594748,0.03777385252617072,0.0
11.597143999999998,0.040580602380079184,0.0
11.599528,0.04124548186071059,0.0
11.601912,0.04456408839381674,0.0
11.604308,0.04853432123298079,0.0
11.606696,0.05408734593798107,0.0
11.609075999999998,0.0582898962026224,0.0
11.611476,0.05900010165362771,0.0
11.613864,0.060361933410690925,0.0
11.616255999999998,0.06316678740673015,0.0
11.618656,0.06434162770869,0.0
11.621044,0.0648176198763488,0.0
11.623423999999998,0.0664570950292632,0.0
11.62582,0.0661737640598043,0.0
11.628208,0.06784531200851909,0.0
11.630588,0.06681591107651598,0.0
11.632988,0.0654597490625493,0.0
11.635371999999998,0.06792079708631296,0.0
11.637756,0.0727088110805878,0.0
11.640156,0.07689052473917866,0.0
11.64254,0.0887066584732302,0.0
11.64492,0.11388397526827254,0.0
11.647327999999998,0.15344618848270106,0.0
11.649715999999998,0.1992451255039882,0.009110266589563883
11.652095999999998,0.2530958956234474,0.018305982567104587
11.654495999999998,0.3155103555202763,0.027509342203537023
11.65688,0.3919357289262847,0.036556694659197884
11.659264,0.4880987788270027,0.04526962487431902
11.66166,0.5999953037295968,0.05371864273877043
11.664048,0.7249715765815918,0.06205577285319049
11.666427999999998,0.8653092373831253,0.07032212520185371
11.668828,1.0203566598281395,0.07849349350475418
11.671216,1.1875998864910193,0.08658334284058003
11.6736,1.3665270606925675,0.09463025534200127
11.675996,1.554065146499729,0.10270921147068732
11.678384,1.7542183454053366,0.11071065710615638
11.680763999999998,1.9628899081179403,0.11874086943405208
11.68316,2.1767272594507636,0.12681028377443188
11.685548,2.398803435336863,0.13485961551875483
11.687928,2.6304689102165963,0.14290067437410756
11.690328,2.8666957692387354,0.150932529180004
11.692711999999998,3.1004539968056344,0.15899430198190057
11.695096,3.3274145262003634,0.1671012888851831
11.697492,3.5506976151842227,0.16610880700471212
11.69988,3.774821217787113,0.16487350583497848
11.70226,3.9941057928517463,0.1635420177375788
11.70466,4.203663195153754,0.16230416269493447
11.707048,4.3972548050284095,0.16138144882909636
11.709428,4.572598982475574,0.16075744257040472
11.711823999999998,4.73435155529414,0.1602278704812205
11.714216,4.88581787684264,0.15971941843612472
11.716596,5.028161430106327,0.15925230122633993
11.718996,5.154537295084793,0.15899664759026422
11.721384,5.276119458495377,0.15872596160048424
11.723767999999998,5.393559546644136,0.1584111453053099
11.726164,5.503784523598015,0.15816218711375982
11.728552,5.614802792342684,0.15777717206779776
11.730947999999998,5.723960625825666,0.15729554000505616
11.733344,5.825159174009092,0.156819695334371
11.735732,5.920400537639379,0.1563076575099754
11.738115999999998,6.010615882276306,0.15574561691296301
11.740512,6.096317064599072,0.15513097959495553
11.742904,6.178807337219792,0.15446224500282268
11.74528,6.256968543123582,0.15381081578756206
11.747675999999998,6.328332050855205,0.15331785522760946
11.75006,6.397646236012168,0.1529244373293188
11.752439999999998,6.47035832232628,0.15254981692280575
11.754844,6.54684039684988,0.1522001620764057
11.757228,6.628303164396466,0.1518339744316472
11.759607999999998,6.715165933846617,0.151443556743099
11.762012,6.803052416655164,0.15108683718422547
11.764399999999998,6.890007733903933,0.1507588777169356
11.766775999999998,6.988743338205725,0.15019027153642245
11.769172,7.08273056691001,0.14967281878258007
11.771556,7.175601534457282,0.14911777660620848
11.773936,7.263212269727847,0.148590305852779
11.776352,7.34248973678865,0.1481613039844908
11.778736,7.422093964931416,0.1477022076017067
11.781116,7.502257271581621,0.14722383914456724
11.78352,7.579766851179354,0.1467843688326544
11.785908,7.660209697083279,0.14632424614656964
11.788288,7.742794413360484,0.1458393906053464
11.790679999999998,7.826450064824327,0.1453427534315686
11.793067999999998,7.912806665168887,0.14478541130776215
11.795448,7.995997681781774,0.1442453510539999
11.797844,8.078863833170567,0.1436594062872204
11.800232,8.156190213028934,0.14311360122851405
11.802628,8.228675669491174,0.14256554859959367
11.805024,8.299533008117205,0.14196550115560982
11.807408,8.364338718533611,0.1413950460362668
11.809788,8.42509490148681,0.14082244226039708
11.81218,8.481102708842501,0.14027804502941754
11.814568,8.526355838361432,0.13985102061929428
11.816964,8.571935728962327,0.1393819393138443
11.81936,8.613558639898631,0.13893850252734918
11.821744,8.656579247103538,0.13843413134442567
11.824124,8.696434270576773,0.1379448044212584
11.826527999999998,8.726605551399885,0.13754638652413984
11.828916,8.751656369573151,0.13715769234863087
11.831295999999998,8.772657660283212,0.13675974277146125
11.833692,8.77880752386506,0.13648520169813913
11.836075999999998,8.77569295367737,0.1362743340876719
11.838456,8.76866862565333,0.13604715407000822
11.84086,8.759317331658783,0.13579685448010315
11.843248,8.752574438746334,0.1354636681538258
11.845628,8.740152004676597,0.1351588487008026
11.848019999999998,8.727404705382767,0.13480508108643643
11.850407999999998,8.715775563103819,0.13440171791631503
11.852804,8.702843168212754,0.13399209544783203
11.855199999999998,8.685302167351043,0.13359254044825053
11.857584,8.664875122011379,0.13319113401333857
11.859963999999998,8.639979240327927,0.13279314004278933
11.862372,8.614339184539798,0.1323617652082454
11.864755999999998,8.578875616474688,0.1320106764258601
11.867136,8.539315299118128,0.13167851283792764
11.86954,8.494447527656622,0.13138616773699893
11.871928,8.450837682836854,0.131034526158578
11.874308,8.406715981337888,0.13067094203628898
11.876712,8.356587977599675,0.13038044098107107
11.879096,8.3063202042346,0.13009338130880915
11.881476,8.26019640198922,0.1297474165222622
11.88388,8.214491908624417,0.1293793355482867
11.886268,8.16664554488634,0.12903934721433147
11.888647999999998,8.109859612602815,0.12880989922500224
11.891044,8.04813831326668,0.1286361638021788
11.893432,7.984694452437847,0.12847341488738892
11.895812,7.916035685302683,0.12838216357685206
11.898216,7.8433727166746845,0.12833868089740771
11.900604,7.767776481740491,0.12832613381478059
11.902983999999998,7.694414664978192,0.128310586170256
11.90538,7.624358201574423,0.12827044059467263
11.907768,7.561331753768304,0.1281688117279651
11.910144,7.502402055253632,0.12803968603138996
11.912551999999998,7.451293768269526,0.12785002620340688
11.914936,7.402559669084174,0.1276492643896658
11.917316,7.355920218443855,0.12745200333199586
11.919719999999998,7.311235646721711,0.1272613323444414
11.922107999999998,7.268133866865401,0.12706273903253554
11.924484,7.233552346673957,0.12676877317767657
11.926884,7.199622452788569,0.12647678882324045
11.929272,7.168578603381135,0.1261856675771787
11.931651999999998,7.140141259197933,0.12591016708014124
11.934048,7.116452290612239,0.12561685461669858
11.936431999999998,7.104449165423082,0.1252162239237253
11.938812,7.093190214338601,0.12485048908525125
11.941208,7.090124761837022,0.12444250540034647
11.943596,7.093250707171926,0.12401792195540476
11.945975999999998,7.102707819970175,0.12357097581204585
11.948384,7.1147714379926565,0.12314007458807855
11.950767999999998,7.132654366799285,0.12267770143565705
11.953148,7.147417037844616,0.12229891217362354
11.955552,7.159199220755508,0.1219980703403046
11.95794,7.16879231146488,0.12177245048756605
11.96032,7.179409115532646,0.1215713145777864
11.962716,7.192911964078365,0.12137484370636113
11.965103999999998,7.209440626728899,0.1211755430518757
11.967488,7.223780197177909,0.12105041720728758
11.969884,7.240446733597434,0.12095787364878266
11.972267999999998,7.25999931449491,0.12087255123880562
11.974647999999998,7.282018630989756,0.12081257300028377
11.977047999999998,7.306132596029637,0.12076035166198257
11.979432,7.334762619241549,0.12066943620672384
11.981815999999998,7.362973333572881,0.12060093473924055
11.984212,7.388622868650354,0.12058731452062432
11.986596,7.421721728206054,0.12050229915818826
11.988992,7.454401278881174,0.12044063334206924
11.991395999999998,7.485358268063596,0.1203893897134094
11.993783999999998,7.517106653178938,0.12033817966223584
11.996163999999998,7.552160391652811,0.12027231993288375
11.998563999999998,7.58386155493991,0.12026010567825879
12.000948,7.621289481212539,0.12018860066739542
12.003327999999998,7.662162530470559,0.1200945639838258
12.005731999999998,7.706760241967696,0.1199658963272453
12.008119999999998,7.753080514957529,0.11982846787340438
12.010504,7.796839608693504,0.11973955694215661
12.012899999999998,7.845534069482091,0.11959980576393736
12.015284,7.894368299897537,0.11945056171702857
12.017668,7.945763709566843,0.11925413995086359
12.020064,7.991152816996898,0.11912847228626182
12.022448,8.041105204427225,0.1189347645332229
12.024831999999998,8.089986656670916,0.11875638224094864
12.027224,8.136586468914471,0.11861546497344079
12.029611999999998,8.183977677090942,0.11847389117220825
12.031996,8.232579590080912,0.11831337172290027
12.034399999999998,8.279179402324464,0.11818022855882658
12.036788,8.322985717888683,0.11807152041618092
12.039167999999998,8.371587630878652,0.11791923221871216
12.041567999999998,8.419258378308843,0.11777751787720676
12.043956,8.466417269059837,0.1176277943178572
12.04634,8.515718030184109,0.11745103753957983
12.048735999999998,8.5652983305621,0.11726673057557319
12.05112,8.617439810193948,0.11704215031346069
12.0535,8.666927562773322,0.11683539186459159
12.0559,8.71390135792708,0.11664076183117103
12.058288,8.766649137894612,0.11636506672492483
12.060664,8.811388514876477,0.1161729569714966
12.063059999999998,8.859340697418258,0.11594282936301596
12.065444,8.904499383280701,0.11573720887088894
12.06782,8.952870874703061,0.11549205815682206
12.070216,8.994444667953253,0.11531087490026985
12.072603999999998,9.03993011489766,0.1150675666360873
12.074984,9.084112309229951,0.11481572101977865
12.077376,9.12606008539035,0.11456353253534686
12.079759999999998,9.165214364871414,0.11433318962756325
12.08214,9.201063290993945,0.11411548131671828
12.084556,9.239613165997193,0.11385311445229375
12.086939999999998,9.272855586895492,0.11362239879446046
12.08932,9.3009303233157,0.1134154147666496
12.091715999999998,9.327562037496936,0.11320727656076043
12.0941,9.351959333506278,0.11299851146464922
12.09648,9.372771736903362,0.1128123102090796
12.098876,9.388928312501559,0.11266047216795678
12.101264,9.404852570674276,0.11248870365840688
12.10364,9.420404741794655,0.11230250747608281
12.106036,9.42915921474287,0.11217273601000868
12.108424,9.438100679146185,0.11200609632627777
12.1108,9.44173468944455,0.11186736512144173
12.113196,9.443785907877077,0.11173083307976707
12.115583999999998,9.448957384070905,0.11153531212168256
12.117964,9.454408399518453,0.11132874024767725
12.120375999999998,9.450128450487638,0.11120099580499469
12.122763999999998,9.4474785151509,0.1110407302476859
12.125144,9.44231462238855,0.11088820240593458
12.127539999999998,9.434776541827445,0.11073819597067888
12.129924,9.426586834960283,0.11058365294397493
12.132304,9.414672465854007,0.11045392426387503
12.1347,9.403829031934372,0.1103125360340941
12.137083999999998,9.39619840357465,0.11013629300144846
12.139463999999998,9.38498288260267,0.10997914459744652
12.14188,9.371113634578224,0.10983480101559387
12.144263999999998,9.356592760247715,0.10968573182093684
12.146643999999998,9.342770734051507,0.10950974970813752
12.14906,9.328017542295521,0.10933947594232785
12.151443999999998,9.312333184979758,0.10917486040525178
12.153823999999998,9.298139071731214,0.10898249256262717
12.156235999999998,9.286738455162004,0.10877144703591966
12.158624,9.27920227045877,0.10853046844673825
12.161,9.270874689822616,0.10828961962203311
12.163396,9.253839858066494,0.10814447878228736
12.165779999999998,9.239226435937368,0.10796577328792195
12.16816,9.230479546420632,0.10773990867738321
12.170556,9.221453117650178,0.10752482640524808
12.172944,9.217873912611534,0.10727957315905007
12.175323999999998,9.221232175371917,0.10697799743051549
12.17772,9.225661373318939,0.10666548168808966
12.180103999999998,9.2299508016391,0.10635790495225171
12.182484,9.23545093477276,0.10603483776705258
12.1849,9.243604794958895,0.10570155627962795
12.187283999999998,9.255343547757285,0.10535050066476542
12.189664,9.273600459474123,0.10496112419848758
12.19208,9.294790637497155,0.10455140025843566
12.194463999999998,9.313000327385748,0.10419407060403421
12.196844,9.333072348393898,0.10382656773673546
12.19926,9.35486693089474,0.10345403100071025
12.201643999999998,9.37931524044806,0.10307196712593504
12.204024,9.400410974814605,0.1027271734106752
12.20642,9.42215833548721,0.10238930737327802
12.208804,9.446279883958567,0.1020507340405516
12.211184,9.477478669855815,0.10165367632971618
12.213584,9.506256046126065,0.10128927754861215
12.215967999999998,9.535033422396316,0.1009271770008229
12.218348,9.563531259412844,0.10057713773080486
12.220764,9.5893753693769,0.10024014295146984
12.223147999999998,9.610795968967539,0.09995166729502801
12.225528,9.631657490050737,0.09968395019687347
12.227923999999998,9.650377140760659,0.09943540540950033
12.230308,9.666954921097304,0.09920794569416169
12.232688,9.678597334381335,0.09901662400197764
12.235091999999998,9.689308582105589,0.09883092733629772
12.237476,9.698017729083427,0.09866189971754345
12.239856,9.705376401620907,0.09851358079776466
12.242252,9.716227418972018,0.09832569631536602
12.24464,9.727869832256049,0.09813903382520292
12.24702,9.739372475913221,0.09795802196268669
12.249436,9.750595580316674,0.09778804629722762
12.251824,9.766614282145875,0.09758986254695481
12.254207999999998,9.7817018184153,0.09739737613722906
12.2566,9.796929124311582,0.09720064240914647
12.258988,9.80880385502109,0.09703811737380363
12.261368,9.828267679835688,0.09683579730406489
12.263768,9.848103591702623,0.096649174937517
12.266156,9.866868568382916,0.09647223006942053
12.268536,9.884934696928912,0.0963192907620406
12.27094,9.906213631034818,0.09613966776721083
12.273324,9.929494665887146,0.09594705180328629
12.275704,9.959293859657919,0.09572362379697777
12.278099999999998,9.992398406787224,0.09549755190165098
12.280484,10.030019012088562,0.09525467826828962
12.28288,10.072947071494854,0.09499777638546189
12.285276,10.115735361274282,0.09474792791694035
12.287664,10.156381780680434,0.09451606384806707
12.290043999999998,10.19940238788534,0.09428792808291722
12.292447999999998,10.242934851769446,0.09407159718430728
12.294835999999998,10.290191977892666,0.09384128981342339
12.297211999999998,10.338240499948801,0.09361364793107642
12.29962,10.387359957191576,0.09338087243110763
12.302003999999998,10.43834174555391,0.09314212255397603
12.304384,10.495190066528632,0.09287492315428902
12.306788,10.554040488249774,0.09259597565517362
12.309176,10.604882506985243,0.0923687897069432
12.311556,10.655864295347573,0.09213847399358908
12.313956,10.711781450762519,0.09188257720968339
12.316344,10.775055382857072,0.09157738103553072
12.318724,10.838049775697902,0.09128493738878189
12.321127999999998,10.901695794844793,0.09099975988054752
12.323512,10.964550418058767,0.0907174260629556
12.325892,11.026613645339824,0.09043640326362383
12.328295999999998,11.088676872620875,0.09015801580763703
12.330683999999998,11.146224041729896,0.08989641938260812
12.333063999999998,11.20363144121206,0.08964087119550093
12.335468,11.263972107000416,0.08937073711726061
12.337851999999998,11.321659045736299,0.08910918418099245
12.340236,11.377763192606343,0.0888477968569909
12.342631999999998,11.427069641304222,0.0886198915675011
12.345016,11.477586794815595,0.08838313090426939
12.347395999999998,11.525170682020779,0.08816283833756618
12.349799999999998,11.570892238106405,0.08795083385223851
12.352187999999998,11.605811894527026,0.0877924746121581
12.354568,11.641942255761146,0.0876242108364493
12.356964,11.680354256995404,0.08743717811053525
12.359352,11.719045797483382,0.08724344442469885
12.361731999999998,11.753872906105387,0.08706847767568857
12.364135999999998,11.780691611741725,0.0869364250400621
12.366523999999998,11.80751031737806,0.0868056395820459
12.368904,11.830883900029,0.08667965798387842
12.371299999999998,11.854397252306807,0.08655099662042312
12.373688,11.878050374211472,0.08641917077286936
12.376067999999998,11.900120704250302,0.08628640204318458
12.378472,11.923122199848908,0.08615130941812453
12.380859999999998,11.944261364327959,0.08602247307872264
12.383235999999998,11.96554029843387,0.0858904756087741
12.385632,11.989612729219116,0.08575066962108818
12.388016,12.014616325564138,0.08560865084547303
12.390396,12.047488555267968,0.08543296123812241
12.392791999999998,12.077427518665605,0.08527102953958254
12.395176,12.108018108369299,0.08511441018257336
12.397555999999998,12.141262425125467,0.08495419386379656
12.399952,12.18409793673314,0.08475883074766953
12.402335999999998,12.224791577967535,0.08457781033800041
12.404716,12.268558255134986,0.0843828049807819
12.407108,12.312185162675577,0.08419294649359982
12.409496,12.355672300589307,0.08400742213843618
12.411876,12.401021769622592,0.08381647540210124
12.414288,12.441435871603264,0.08364670726736108
12.416676,12.486645571009692,0.08346088572967074
12.419052,12.52999293929656,0.08328193614929208
12.421447999999998,12.573340307583429,0.08310417844316324
12.423836,12.617339302176358,0.08293206546623037
12.426215999999998,12.658405030463088,0.08277179347049848
12.428632,12.704545895429293,0.08258914381817356
12.431019999999998,12.751757695582137,0.08240191955610124
12.4334,12.794173898309229,0.08223185292760549
12.435804,12.834727769916762,0.0820675328529808
12.438192,12.86862371297899,0.08192566054582963
12.440572,12.902519656041216,0.0817843469032352
12.442975999999998,12.934972576864467,0.08163773486517692
12.445364,12.963049209142547,0.081497010093486
12.447743999999998,12.985818387315677,0.08136504515365328
12.45014,13.01194014067558,0.08121283480101926
12.452528,13.034988858102428,0.08107584345197401
12.454908,13.05817734515614,0.08093615395596292
12.457304,13.08350770258313,0.08078558835425159
12.459687999999998,13.110048764823615,0.08062640886505378
12.462068,13.137800531877602,0.08045748757475898
12.464464,13.161548097438752,0.08030554265814596
12.466848,13.185155893373041,0.08015758145915747
12.469231999999998,13.206109962254857,0.08001337403496041
