Time,Force,Position
10.415060000000004,0.7193959226072189,0.01473781285111173
10.417459999999998,0.7160905692486863,0.01473781285111173
10.419848000000002,0.7098519495839585,0.01473781285111173
10.422232,0.7082691577181223,0.01473781285111173
10.424627999999998,0.7068261354791463,0.014737812851111733
10.42702,0.7024498469339749,0.014737812851111733
10.4294,0.6928586520824714,0.014737812851111733
10.431796,0.6831276876041076,0.014737812851111733
10.434188,0.6684613560731317,0.009880553783692458
10.436568,0.6548659597287944,0.0049117065594151445
10.438964,0.6459263911833485,0.0049117065594151445
10.441352000000002,0.6339137867048474,0.0
10.443736,0.6257656140923199,0.0
10.446136000000005,0.6216216429726261,0.0
10.448520000000002,0.6232044348384623,0.0
10.450904,0.6235765218907997,0.0
10.453304000000005,0.628744206368889,0.0
10.455692,0.6337721212201181,0.0
10.458072,0.6366581656980701,0.0
10.460472000000005,0.6376818790564655,0.0
10.46286,0.6475053913334464,0.0
10.465243999999998,0.6601224002897623,0.005255094527739681
10.467640000000005,0.6736705748058565,0.010448235495025056
10.470028,0.6844252526426156,0.015703330022764736
10.472411999999998,0.691175728986541,0.015703330022764736
10.474812,0.6999283060768835,0.021023186783251137
10.477196,0.713756019846698,0.026159817201324015
10.479576000000002,0.7285148991762911,0.03118296897959049
10.481992000000004,0.7459275055583587,0.03620538576194334
10.484376000000005,0.7642712775002047,0.04117543659847639
10.486760000000004,0.7798215527627158,0.04614548743500943
10.489156,0.7973739287716437,0.05106522123576343
10.491548000000002,0.8118532688475162,0.0561937059992582
10.493928000000004,0.824330508176972,0.06143412153111735
10.496324,0.8341540204539529,0.06661970960305857
10.498716000000002,0.8422549712382373,0.07192698251088463
10.501096000000004,0.8452807853430495,0.07192698251088463
10.503495999999998,0.8531021968736135,0.07722257190334207
10.505884000000002,0.8622740828445365,0.08246298743520124
10.508268,0.8740996958679343,0.08764154117203908
10.510663999999998,0.8792673803460236,0.09293713056449653
10.513056,0.8793599281446406,0.09322211944908279
10.515436,0.8766589792639227,0.0880289784817974
10.517832,0.874889195942983,0.08277388395405774
10.520220000000002,0.8791257148612939,0.08806947334651517
10.522604,0.8801494282196894,0.08828969999835472
10.525004000000004,0.8810333719512247,0.08856005911085571
10.527392,0.8788442797497045,0.08912471263458324
10.529772,0.8760035612421262,0.08963205825585344
10.532172000000005,0.8720919075479097,0.09024981272131441
10.53456,0.8661781531072761,0.08527976188478137
10.536944000000004,0.8584020675470859,0.08036002808402737
10.539344,0.8536990179199511,0.07523154332053258
10.541728,0.8519292345990114,0.07563735673177244
10.544111999999998,0.8508110775841298,0.07608586302140435
10.546512,0.8534175828083613,0.07627955470603849
10.548900000000003,0.8590971239656484,0.08171797930776926
10.551300000000005,0.8599810676971836,0.08197825462388994
10.553696000000002,0.8604457025481382,0.08240453058878328
10.556083999999998,0.8601189414661747,0.08282618468566726
10.558468000000005,0.8653791737428811,0.08288987898392693
10.560864000000002,0.8746436075124213,0.08260171930097393
10.563256000000004,0.8853510635209372,0.08799748158790306
10.565636000000003,0.9017852825149832,0.0930542737647071
10.568036,0.9116541207623381,0.09313016460779129
10.570428,0.9232455205023893,0.09309897679374744
10.572808000000002,0.9325552802423032,0.09334046132001006
10.575204,0.9427962055419954,0.09349540945566394
10.577596,0.9535489875208852,0.09374397114974332
10.579976000000002,0.9630910646862765,0.09413902728349911
10.582376000000004,0.9751470992772825,0.10020325310074521
10.584764,0.9887859257341245,0.10629925556332882
10.587148,1.0021452129372461,0.11242626934753769
10.589544000000004,1.014293795326869,0.11293732750619688
10.591932,1.0270940040225496,0.11347309847312462
10.594316,1.0405458390242883,0.11405013286097171
10.596712000000004,1.0557202355187234,0.11456389351634085
10.599104000000004,1.0735483590656332,0.11493578945565801
10.601488000000003,1.0932388137320996,0.11517363199200907
10.603896,1.1095766932117903,0.11574625542728674
10.606280000000003,1.1208394360120089,0.11674459479478685
10.608664000000005,1.1328935747451454,0.11771684179804567
10.611060000000002,1.1492314542248359,0.11829512866799415
10.613448000000004,1.157560930718859,0.11943222932702012
10.615832000000005,1.1713848527729351,0.12006066824718431
10.618232,1.1893527459467053,0.1203644837273198
10.620620000000002,1.2116043798670295,0.12032694290060375
10.623000000000005,1.2379999849070478,0.1200129882790391
10.6254,1.263324654760427,0.11975719850623506
10.627788000000002,1.2969372668531944,0.11897318504205269
10.630168000000005,1.3349733893193763,0.11791064936717219
10.632568,1.3748718429051148,0.1167900118687516
10.634956000000004,1.4158412316774915,0.11561316663176373
10.637340000000002,1.4568106204498683,0.11443137621157207
10.639736,1.496336986983269,0.11323700756463768
10.642124000000004,1.5321386912775563,0.1122107656396387
10.644508000000002,1.5639361940790102,0.11141461176299632
10.646908000000003,1.5970841713208233,0.11053743750788955
10.649296,1.6294407526297179,0.10968291887832005
10.65168,1.6682229450584438,0.10841434781275532
10.654076000000003,1.7112888782337239,0.10687050121888436
10.656468000000004,1.7511420058490883,0.10555234742058563
10.658848,1.7867113927178986,0.10455415361262098
10.661244000000003,1.823072175519627,0.10345466858250438
10.663636000000004,1.8574308575749388,0.10252461326510287
10.666024,1.8909981436973322,0.10168786630171144
10.668420000000005,1.9205612283268922,0.10107577471990406
10.670808,1.9451889459038396,0.10069224338215632
10.673192,1.9731692386675632,0.100123263733346
10.675592000000002,1.993001358818759,0.09994588824570824
10.677980000000003,2.0097604430368996,0.09992026618481054
10.680368,2.027078605762481,0.09981245415130333
10.682768000000005,2.045607473301561,0.09964808877656846
10.685156,2.0673491464005567,0.09936244936982605
10.687544000000004,2.0920240858057473,0.09900400430841252
10.689944000000004,2.1197720611439936,0.09853550059910177
10.692332,2.14793934536282,0.09797949201618657
10.694720000000004,2.172893824021732,0.09756777960146261
10.697120000000004,2.1962655108148073,0.0971543890241401
10.699508000000002,2.214422291301549,0.09694385235162988
10.701896000000003,2.230576971041875,0.0968059839258406
10.704296,2.249572369289779,0.09648322033750506
10.706684000000005,2.2720601123513187,0.09600443112909954
10.709076000000003,2.299390674666854,0.09528888321158382
10.711472,2.324858905862832,0.09461231568471366
10.713864,2.3455315396330585,0.09405916135373607
10.716260000000004,2.36355044635081,0.09352907394698697
10.71866,2.3829198275089207,0.09291474020982053
10.721052,2.399775251241417,0.09233570874871096
10.723452000000002,2.4171897534813547,0.09166602538006247
10.725860000000004,2.4311591327358983,0.0910335587682183
10.728248,2.4391222097511918,0.09057493698628558
10.730656000000003,2.442429458967593,0.09021021019096968
10.733056000000005,2.441220650011964,0.08991760881677752
10.735444,2.436287178817221,0.08969381466037096
10.737844000000004,2.4317730165030587,0.08941308881808832
10.740248,2.4315425949354506,0.08899536719084605
10.742644,2.4300089207557263,0.08852822207975027
10.745040000000005,2.433690152882335,0.08791757856846454
10.747432000000003,2.438721859449303,0.08723153161522057
10.749828,2.442031004523574,0.08655705487200809
10.752228000000002,2.4419875744110695,0.08600600351658283
10.754616,2.437008777245953,0.08556642371643342
10.757012000000003,2.4288171745209204,0.0852261643390653
10.759408,2.4214169677288067,0.08489035436798914
10.7618,2.4137372216829722,0.08458967229236562
10.764196000000004,2.4087112026896125,0.08426239537612974
10.766592000000005,2.402055170002173,0.08404563610172301
10.76898,2.3947002891804328,0.0839247492234134
10.771363999999998,2.3887884305976685,0.0838315039565041
10.773764,2.3849712205599385,0.0837904299905952
10.776152000000003,2.384087276828403,0.08368402634558697
10.778531999999998,2.3838549594029255,0.08360047301027367
10.780932,2.385065664216424,0.08354507284355506
10.783324,2.3892096353361176,0.08342469214514872
10.785704000000004,2.392003132015453,0.08338055958665536
10.788104000000004,2.3920956798140707,0.08348037849817534
10.790492,2.396564516157859,0.08354832311793839
10.792876,2.395119598061014,0.08385115496349309
10.795272000000004,2.396468176643503,0.08411084802147412
10.79766,2.3983286119051903,0.08441362227447353
10.800044,2.4013997519803767,0.08466718733067301
10.802444,2.4083353239215364,0.08484972344084861
10.804832000000005,2.4151311262358353,0.08505114538055268
10.807216000000004,2.4232774029904935,0.08518451941753942
10.809612,2.4366385860514845,0.08518031646110212
10.812000000000005,2.4550749057919474,0.08506464500214733
10.814384000000004,2.478865901465603,0.08480080397905615
10.81678,2.504938537139396,0.08446135515502648
10.819172000000002,2.5311509424400493,0.08410715767633878
10.821556,2.556991260688365,0.08369327686077178
10.823951999999998,2.585625075616016,0.08325095157417221
10.826344,2.6181233224096405,0.08274625153976681
10.828724,2.6499699428972066,0.08222218818601598
10.831124000000004,2.677253283384498,0.081846158776439
10.833512,2.700532422378956,0.08154505552127081
10.835896000000004,2.725441575067493,0.08115391230812
10.838292000000004,2.7486281662633343,0.08078046585184456
10.84068,2.7753071022728113,0.08028447569881564
10.843064000000004,2.8001237071627316,0.07982609991376605
10.845464,2.8261510168661506,0.07932219806857034
10.847852000000003,2.854971823248905,0.07879678454533555
10.850232000000004,2.8847237951914373,0.07827865774268426
10.852632,2.915406932693748,0.0777527280770961
10.855020000000003,2.946741696502116,0.07726062748841013
10.857404000000002,2.9759345899372076,0.07683392923260746
10.859804000000004,2.999260950759909,0.07650688315489294
10.862192,3.0185831100897764,0.07625530949988059
10.864576,3.034040837553671,0.07605521477218682
10.866972000000004,3.0507092698310636,0.07582182888784215
10.86936,3.0693798028548733,0.07556214905143419
10.871744,3.0866073136397065,0.07528327834095515
10.874144,3.102391802185564,0.07498493140929983
10.876532000000005,3.1209697874107563,0.07466958836035131
10.878912,3.143971283009363,0.07425014664722226
10.881312,3.1712565193545235,0.07373873454644761
10.883704000000002,3.1929075405127714,0.07336331040738042
10.886088,3.211625295364824,0.07302518086136137
10.888508000000002,3.225407683164265,0.07275333719386505
10.890896000000003,3.2391900709637063,0.07248527042751964
10.893280000000004,3.252320832457089,0.07219907208903725
10.895676000000002,3.26051622689786,0.07197918232696086
10.898064000000003,3.264055793539739,0.07179727717819491
10.900448000000004,3.2675953601816183,0.07161659168933018
10.902844000000002,3.267130725330664,0.07149214470838074
10.905232000000003,3.2666660904797094,0.07136839873939059
10.907616000000004,3.2680637867483115,0.07123036610917083
10.910016,3.2694614830169133,0.07109233347895107
10.912404000000002,3.2755150070844072,0.07091916777827224
10.914784000000004,3.2814287615250413,0.07076304384788462
10.917184,3.2819878400324813,0.07070860715008352
10.919572000000002,3.28305877521912,0.07068850188951503
10.921956000000002,3.2817083007787615,0.07073535732035502
10.924364000000004,3.2734203585393726,0.07086953485389832
10.926756000000005,3.265272185926845,0.07098708418511498
10.929136,3.2588465748070137,0.07110243084190404
10.931536,3.2577756396203754,0.0711218720109485
10.933924000000005,3.2624314674192667,0.07109102379689758
10.936304,3.2750956982038257,0.07096061810321178
10.938700000000004,3.28468689305533,0.07087394231797983
10.941088,3.2947899445860314,0.07082101413652722
10.943472,3.3099681327962047,0.07070029029591632
10.945868000000004,3.3307333143650477,0.07054699910924331
10.948256,3.350567330374113,0.07040029112560597
10.95064,3.375756022316371,0.07016224684687541
10.953036000000004,3.4001533183257107,0.06991925950077044
10.955424,3.4225485135886338,0.06969955825190459
10.957808,3.4438727736649177,0.06949658369270385
10.960204000000004,3.460401436315451,0.06933536970731378
10.962596000000003,3.4689216959803155,0.06926915025846057
10.964992000000002,3.484938501951651,0.06907235993328803
10.967392000000004,3.4932264441910386,0.06894573191418468
10.96978,3.501654156057287,0.06880460878638335
10.972164,3.5134344431103104,0.06858830234484901
10.974560000000004,3.518556801618026,0.06842908483547396
10.976948,3.5199544978866273,0.06829623444903452
10.979332,3.5189780063564755,0.06814259466808402
10.981728000000004,3.5105521903480965,0.06803583521189524
10.984120000000004,3.492535179488214,0.06801121989781513
10.986504000000004,3.4749374775089117,0.06794695275497323
10.9889,3.4551053573577164,0.0678453544714391
10.991288000000004,3.42968624384785,0.0677742084838867
10.993668,3.3960264099268396,0.06773659123284116
10.996064000000004,3.358130057087518,0.06768431783277072
10.998452,3.3117134445833316,0.06768885954503044
11.000832000000004,3.2618517090937518,0.06768281441045583
11.003232000000004,3.2069620587529437,0.06765621110575404
11.00562,3.148255198374405,0.06756653831976804
11.008000000000004,3.088524624637471,0.06739211795572475
11.010400000000004,3.0305638342214767,0.06712553642081907
11.012784000000003,2.963151618580839,0.06691116356208299
11.015168000000005,2.899231747753836,0.06660036891067628
11.017564,2.8329376891280798,0.06624866635097822
11.019956,2.7627791986363497,0.06592746330569661
11.022336000000005,2.695553974450815,0.0655609580571655
11.024736000000004,2.6235331528395287,0.06524167930177363
11.027120000000004,2.546297424921909,0.06501432175826205
11.029504000000005,2.469201466631151,0.06476038314083826
11.0319,2.3950387746465873,0.06445599861983341
11.034292,2.319805147475386,0.06416539857678799
11.036676,2.2394963836247106,0.06396674818758297
11.039072000000004,2.1582564542142584,0.06375847728880296
11.04146,2.0785993166696413,0.06358019371712258
11.043844,1.999454035804223,0.0634613183845801
11.046244000000002,1.9245452738571154,0.06338221915918893
11.048632000000003,1.8512193037758435,0.06331644185344146
11.051016000000004,1.7839921837324395,0.06325468998933788
11.053412000000002,1.721653208913405,0.0632392809168534
11.055800000000003,1.6612691130125434,0.0633356101106232
11.05818,1.604981766403133,0.06349117965226642
11.060580000000002,1.5518600035253947,0.06373273140856969
11.062968000000003,1.499250097326854,0.06404706615722731
11.065348,1.4500853141137067,0.06435800975758527
11.067744000000005,1.406507524259229,0.06460429260979224
11.070136000000003,1.3626501951510308,0.0649120815674122
11.072516,1.3257303338418613,0.06504957082515718
11.074916000000002,1.2934663003315836,0.0651562163332638
11.077304000000003,1.2658580946201978,0.06519093615954075
11.079688000000004,1.2390412848417298,0.06523534866486908
11.082084000000002,1.2110137702497632,0.06537545734109064
11.084472000000003,1.1917860545763823,0.06530776480359232
11.086856000000004,1.1722787996492805,0.06531112667231026
11.089256,1.1518403791624003,0.0653423570008507
11.091640000000003,1.135406160168354,0.06523876756887488
11.094024000000005,1.117528918935332,0.06503847368631677
11.096420000000002,1.098580742515671,0.06489074773987062
11.098808000000004,1.0769788390435358,0.061638076999102794
11.101188,1.0556564748251207,0.05838540625833496
11.103584000000003,1.0315406139273706,0.05508378432973187
11.105972,1.0090547667237,0.05174617921689568
11.108356,0.9877796243335281,0.048341260490562275
11.110756000000002,0.9717193882496887,0.044903122166346975
11.113143999999998,0.9536570514194324,0.041503672746852203
11.115524,0.9318700523500626,0.03815827251670393
11.117924000000002,0.910083053280693,0.03478125134313937
11.120311999999998,0.8841520830916296,0.031534664981157964
11.122692,0.8583608825294263,0.028274022898866928
11.125092000000002,0.8274945452877508,0.02510275187581614
11.127479999999998,0.7944863376727981,0.02195676555930333
11.129864000000005,0.7696263026703732,0.018717272769934373
11.132260000000002,0.7415534621080325,0.015624036796958623
11.134648,0.7170655141579451,0.012480351893723478
11.137032000000003,0.6983043291933878,0.009278323075465552
11.139428000000002,0.6801947705348883,0.006166361927610916
11.141820000000004,0.665670104488642,0.0031049447943217027
11.144200000000003,0.6539389351217305,0.0
11.146596000000002,0.6459324279939322,0.0
11.148984,0.6348528849330788,0.0
11.151368000000003,0.6288484785516975,0.0
11.153764000000002,0.6184205617969019,0.0
11.156152,0.6066421706017471,0.0
11.158536000000003,0.5885779379136216,0.0
11.160932000000004,0.5714448707852744,0.0
11.16332,0.5577569266423199,0.0
11.165704000000003,0.5439292128725054,0.0
11.168104,0.5327552261551656,0.0
11.170492000000005,0.5223726353707439,0.0
11.172876000000002,0.5167856420120739,0.0
11.175272,0.5141319149595992,0.0
11.177660000000005,0.5051923464141534,0.0
11.180044000000002,0.49625277786870775,0.0
11.182444000000004,0.4855906478305656,0.0
11.184832,0.4729264170460066,0.0
11.187216,0.4581203158881704,0.0
11.189612000000004,0.4393100132375007,0.0
11.192,0.4204997105868309,0.0
11.194384,0.40262057349593944,0.0
11.196780000000004,0.38925749457707937,0.0
11.199168,0.37361277565808204,0.0
11.201552,0.36183248860505823,0.0
11.203952,0.3523338415521716,0.0
11.206340000000004,0.3465598567383984,0.0
11.208724000000004,0.34371913823082034,0.0
11.211124000000003,0.3374332967378493,0.0
11.213512,0.33608282229749037,0.0
11.215892000000004,0.33701398785726866,0.0
11.218288,0.33901608860368554,0.0
11.220676000000005,0.3378053837901868,0.0
11.223060000000004,0.3355237437900495,0.0
11.225456,0.33417326934969055,0.0
11.227844000000005,0.33361419084224975,0.0
11.230228000000004,0.33864210569347886,0.0
11.232628000000004,0.3396658190518742,0.0
11.235016000000002,0.3419002372237684,0.0
11.237396000000004,0.3478593176347758,0.0
11.239795999999998,0.35395816767264343,0.0
11.242184000000002,0.3561925858445375,0.0
11.244564000000004,0.3576356080835134,0.0
