Time,Force,Position
14.538424,0.11145153973103543,0.0
14.540807999999998,0.10926244752951521,0.0
14.543204,0.11107755682082869,0.0
14.545592,0.11224103980608428,0.0
14.547971999999998,0.10632728536545077,0.0
14.550372,0.09788632032462924,0.0
14.552756,0.09183279625713554,0.0
14.555139999999998,0.08577927218964185,0.0
14.557536,0.07707202106967341,0.0
14.559919999999998,0.06998153046921081,0.0
14.5623,0.06368243580166633,0.0
14.564704,0.05952521150739891,0.0
14.567092,0.05243472090693632,0.0
14.569472,0.04720656142603037,0.0
14.571872,0.04118700601220632,0.0
14.57426,0.03544698985210267,0.0
14.576643999999998,0.031709074438415884,0.0
14.57904,0.0279711590247291,0.0
14.581428,0.026375113984319378,0.0
14.583808,0.025198377824490286,0.0
14.586204,0.02309047610488287,0.0
14.588596,0.0188407040119984,0.0
14.590976,0.01165766561291875,0.0
14.593372,0.007268123893174065,0.0
14.59576,0.005951618106484762,0.0
14.59814,0.005951618106484762,0.0
14.60054,0.0037039467600171383,0.0
14.602928,0.0005251098537711931,0.0
14.605308,0.0,0.0
14.607703999999998,0.0,0.0
14.610091999999998,0.0,0.0
14.612476,0.0,0.0
14.61488,0.0,0.0
14.617268,0.0,0.0
14.619652,0.0,0.0
14.622048,0.0,0.0
14.624436,0.0,0.0
14.626815999999998,0.000292792428293925,0.0
14.629212,0.00029279242829392495,0.0
14.6316,0.0017962896700865906,0.0
14.63398,0.0019493124715203054,0.0
14.636383999999998,0.0030335008327323394,0.0
14.638772,0.004117689193944374,0.0
14.641151999999998,0.004117689193944374,0.0
14.643548,0.004117689193944374,0.0
14.645936,0.004117689193944375,0.0
14.648316,0.005201877555156409,0.0
14.650716,0.006286065916368443,0.0
14.653104,0.008301419837358798,0.0
14.655484,0.012179104877905793,0.0
14.65788,0.015917020291592577,0.0
14.660268,0.020586101265057683,0.0
14.662651999999998,0.02311331186524573,0.0
14.665048,0.023638421719016922,0.0
14.667436,0.023883992319067696,0.0
14.669819999999998,0.02548003735947742,0.0
14.672223999999998,0.02548003735947742,0.0
14.674608,0.025187244931183496,0.0
14.676987999999998,0.02557258515809448,0.0
14.679391999999998,0.024069087916301815,0.0
14.681779999999998,0.0239160651148681,0.0
14.684164,0.022831876753656066,0.0
14.686559999999998,0.021760941567017536,0.0
14.688947999999998,0.02284512992822957,0.0
14.691328,0.024069087916301815,0.0
14.693732,0.027574685904511335,0.0
14.69612,0.0264904975432993,0.0
14.6985,0.025406309182087264,0.0
14.700895999999998,0.024754682876029367,0.0
14.703283999999998,0.02317189101019314,0.0
14.705664,0.02373096951763398,0.0
14.708059999999998,0.024569587278795237,0.0
14.710448,0.02741030578637335,0.0
14.712827999999998,0.032113355413508106,0.0
14.715227999999998,0.032440116495471676,0.0
14.717615999999998,0.03084407145506196,0.0
14.719995999999998,0.031136863883355886,0.0
14.722392,0.031136863883355886,0.0
14.72478,0.03304641683115568,0.0
14.727163999999998,0.0379950370583412,0.0
14.72956,0.04294365728552673,0.0
14.731944,0.050546004565187014,0.0
14.734327999999998,0.056924393856775043,0.0
14.736724,0.06316301352150286,0.0
14.739107999999998,0.06711999318609342,0.0
14.741504,0.06986626803718522,0.0
14.743899999999998,0.07919117680954194,0.0
14.746287999999998,0.08851608558189865,0.0
14.748668,0.09447516599290605,0.0
14.751072,0.10057401603077368,0.0
14.75346,0.10187726864288946,0.0
14.75584,0.10276121237442462,0.0
14.758235999999998,0.10578702647923686,0.0
14.760623999999998,0.11095471095732615,0.0
14.763008,0.12557382066005884,0.0
14.765403999999998,0.14490923316449983,0.0
14.767791999999998,0.15980788212095295,0.0
14.770172,0.17392838831906146,0.0
14.772567999999998,0.18296050466312427,0.0
14.774956,0.19027005951449064,0.0
14.777335999999998,0.18943144175332935,0.0
14.779735999999998,0.18500793137991503,0.0
14.782123999999998,0.1808639602602211,0.0
14.784503999999998,0.1739264924611922,0.0
14.786908,0.17006206059521872,0.0
14.789295999999998,0.1657783198486646,0.0
14.79168,0.1594924783556936,0.0
14.794076,0.1552087376091395,0.0
14.796464,0.1515766231686433,0.0
14.798844,0.14589518615348707,0.0
14.801244,0.1465449166016757,0.0
14.803627999999998,0.14751951227395874,0.0
14.806012,0.1486319817152327,0.0
14.808407999999998,0.15262859977658944,0.0
14.810795999999998,0.16053307981642428,0.0
14.81318,0.1738809918723304,0.0
14.815584,0.20771075452762106,0.01054104672615519
14.817968,0.25983327558077607,0.020507795123549624
14.820348,0.3333669169352247,0.030259150524770365
14.822752,0.4258902689639696,0.03986089959933163
14.82514,0.5584480524895745,0.048754019162753064
14.827519999999998,0.7181890452723769,0.05750381974422547
14.82992,0.9065562695513534,0.06613494562394531
14.832304,1.1263432220058383,0.07462553377749424
14.834687999999998,1.3726145355832198,0.08307714021758993
14.837084,1.6437874184176617,0.09153859883356426
14.839467999999998,1.940513496815222,0.09997971446174404
14.841848,2.2590681085367867,0.10845582677449529
14.844248,2.608438043956046,0.11682413470397694
14.846635999999998,2.98387492747549,0.12515847394588106
14.849016,3.3812820098036696,0.1334417456195732
14.851411999999998,3.800846282395687,0.1416914365766351
14.853799999999998,4.243174045587225,0.1498673996844943
14.856179999999998,4.701701814489464,0.1579975105792168
14.858576,5.168795169026944,0.16610497637184254
14.860967999999998,5.642686221736592,0.17417302113542674
14.863364,6.112527746983033,0.17169178821382333
14.865759999999998,6.576412087676335,0.1697647889173402
14.868147999999998,7.035691614114728,0.16795672655892727
14.870527999999998,7.481893288461589,0.16627020514489593
14.872927999999998,7.899094748402071,0.16528570601236361
14.875315999999998,8.291626956510967,0.1644361825195449
14.877695999999998,8.658326429803026,0.16368694739339462
14.880092,8.995608275665994,0.16307320858465135
14.88248,9.310969040406338,0.16242319373980307
14.884859999999998,9.603337788837422,0.1617207830899322
14.887256,9.868570549839552,0.16103271969450014
14.889644,10.114396187144672,0.16025011266749165
14.892024,10.334249320006096,0.15952519261214096
14.894424,10.531155762528632,0.1588075958338392
14.896812,10.701902709152368,0.15813987038850766
14.899192,10.853240636221225,0.15746732387780063
14.901588,10.977812767055596,0.15688523853790198
14.90398,11.083300743559183,0.1563274869570511
14.90636,11.170169200582942,0.15581511548579452
14.908756,11.239441851485267,0.15536019039697282
14.911143999999998,11.295634754438192,0.15491711905602332
14.913528,11.342844658733165,0.15446286756799735
14.915924,11.373899883287814,0.1541314955063999
14.918311999999998,11.398112083699921,0.15382818882708033
14.920708,11.42144034038049,0.1535098632013866
14.923104,11.445187905941642,0.15317840425093546
14.925491999999998,11.46628174445032,0.15286887281123743
14.927872,11.488306748518774,0.15255129304306064
14.930267999999998,11.500693335907481,0.15235680328925497
14.932655999999998,11.50958757848255,0.15221330155151214
14.935035999999998,11.522718339975935,0.15204218121133034
14.937435999999998,11.53235675665568,0.15192227180172974
14.939823999999998,11.537292123708292,0.15187039766048582
14.942208,11.539154454827848,0.15185355135997927
14.9446,11.544601678559658,0.15180806212390868
14.946988,11.547674714492713,0.15177365325434478
14.949367999999998,11.555450800052906,0.15167300294303093
14.951764,11.559130136321645,0.15159464967492492
14.954147999999998,11.565278104045625,0.151455754640226
14.956527999999995,11.57375493359799,0.15126117218640467
14.958943999999995,11.583210150538372,0.151033386951063
14.961328,11.589499783747078,0.15081989142373595
14.963708,11.595464551731693,0.1505694324155951
14.966111999999995,11.599753980051856,0.1503051065431957
14.968499999999995,11.597292932028093,0.1500819619321056
14.97088,11.592085609153235,0.14985824985401597
14.973283999999998,11.58678573847976,0.14961366263598744
14.975667999999995,11.578320284074616,0.14938235190413468
14.978048,11.576839519296744,0.14905387297558342
14.980451999999998,11.572844797093257,0.14873926068253118
14.982839999999998,11.560749124105486,0.14848894764177986
14.98522,11.543345997012764,0.14827813371234405
14.987615999999996,11.525850322121427,0.14804635881234912
14.990003999999995,11.511846992043724,0.1477654720852425
14.992384,11.49318783416713,0.14752588722727833
14.994787999999998,11.470105165917122,0.14734320144179971
14.997175999999998,11.444042009532675,0.14721492849479095
14.999556,11.422866998372596,0.1470611404258717
15.001947999999995,11.401504995757413,0.1469369682675497
15.004336,11.380607627993188,0.14684385270055367
15.006716,11.364039326945889,0.14674473532789034
15.009112,11.349658222242237,0.14666573567076732
15.011496,11.340118040934717,0.1465876720237049
15.013875999999998,11.335838091903902,0.14649658122482906
15.01628,11.338680706269349,0.14637658035564854
15.018668,11.34385028660531,0.14627242957419562
15.021048,11.351626372165502,0.14617477011413874
15.023444,11.364430372576921,0.14604914535948504
15.025828,11.373462488920985,0.14598053141631542
15.028207999999998,11.387941828996858,0.1458696404162157
15.030623999999998,11.409079097618037,0.14569900096689303
15.033007999999995,11.436594755530807,0.14547754416695943
15.035388,11.46620506198861,0.14525623211831218
15.037791999999998,11.494976750685252,0.14506530325696612
15.040179999999998,11.526402166434368,0.14485547951436534
15.04256,11.561831783676318,0.14460411649261742
15.044955999999996,11.59619046573163,0.14436437418451037
15.04734,11.626544946294107,0.14416596151759029
15.04972,11.656899426856581,0.14396828067324113
15.052123999999996,11.686742050739861,0.14376521050029184
15.054511999999995,11.708204184585139,0.14363216471091578
15.056892,11.727571669885378,0.14349888215913942
15.059291999999996,11.746567068133281,0.14335560174398265
15.061676,11.761977573768931,0.14323921534489786
15.064056,11.779157862725521,0.14308883424403268
15.066455999999995,11.794755359816277,0.14294464718943234
15.068844,11.812354957653447,0.14278206032886476
15.07122,11.82888362030398,0.14263276685880052
15.073616,11.848066010006988,0.14246587501423433
15.076004,11.871112831575967,0.14226740064319038
15.078383999999998,11.895183366503344,0.14208318129957165
15.08078,11.920696923669697,0.14189960412883929
15.083168,11.95086630863494,0.14168216899598335
15.085547999999998,11.979964758413544,0.14147691725028008
15.087939999999998,12.013858805617902,0.14123447565873923
15.090327999999998,12.050127040621014,0.1409859834476851
15.092708,12.093192973796294,0.1406817395894845
15.095124,12.142265209210825,0.14032458684858704
15.097508,12.19506210686447,0.1399432289133247
15.099887999999998,12.249581566010812,0.1395550857248512
15.102284,12.311690119262238,0.13910771039327122
15.104672,12.375661003633223,0.13864720202192404
15.107051999999998,12.439492118377343,0.1381940559804446
15.109448,12.503043693867747,0.13774899148684341
15.111835999999998,12.562451298238459,0.1373472766800329
15.114215999999995,12.624512629661643,0.13693131263509517
15.116611999999998,12.680567658845575,0.13656888805026635
15.118999999999998,12.73541198321601,0.13622290403876536
15.121383999999995,12.789976768332727,0.13588671201360633
15.123779999999998,12.836393380836912,0.13562646358419367
15.126163999999998,12.878433704795926,0.13539125590317894
15.128548,12.916749366515829,0.13518317964062362
15.13096,12.946824307824585,0.1350305556264615
15.133348,12.977458327640782,0.1348616967472261
15.135728,13.001434418911671,0.1347436953460863
15.138124,13.02145353051797,0.13463770774603487
15.140512,13.035373792086402,0.13456493846557416
15.142891999999998,13.041984498803469,0.13453907052306838
15.145288,13.043427521042444,0.13453883440846462
15.147676,13.039423319549611,0.13457215396710132
15.150059999999998,13.033324469511744,0.1346033939772747
15.152456,13.027505158727596,0.13462629317517197
15.154839999999998,13.019311660144695,0.1346553688417351
15.157223999999998,13.012236318576674,0.13465181554280556
15.15962,13.007722156262513,0.13461560527019703
15.162007999999998,13.000461719097261,0.13457537194803085
15.164387999999995,12.999674114880081,0.13445237899578405
15.166788,12.997350940625308,0.13431118125386438
15.169171999999998,12.9960533755868,0.13412010791687473
15.171552,12.99815560756331,0.13387271746360588
15.173968,12.999513665435146,0.13360456860158484
15.176356,13.002688728456164,0.13328448842885646
15.178736,13.008704509984758,0.13292361997017776
15.181132,13.013556808528103,0.13255506001611417
15.18352,13.016314458526407,0.1321830899084533
15.185899999999998,13.01627861184538,0.1318279766802844
15.188316,13.013449268485019,0.13148984079514434
15.190699999999998,13.012761795497932,0.13113077880943086
15.193083999999995,13.01114315695107,0.1307771953606184
15.195479999999998,13.015810359897175,0.13036751354810702
15.197863999999996,13.01619382209673,0.12999780763395005
15.200248,13.015925657990225,0.12962654779515595
15.202643999999998,13.015005867577663,0.12925264185165236
15.205027999999997,13.0128753723516,0.1288928827395342
15.207423999999998,13.003807409326509,0.12858627313623827
15.20982,12.994320137420837,0.12829151832718297
15.212208,12.976917010328116,0.12807833312836472
15.214587999999996,12.961748301407289,0.12786337280093943
15.216992,12.942388399538524,0.1277059122233236
15.21938,12.923400584722097,0.12755829037897357
15.221759999999998,12.906926727331285,0.12740086823831764
15.22416,12.888263777738953,0.12728485070100198
15.226548,12.866248252959846,0.12720166419099407
15.228927999999998,12.843813419300158,0.1271299732639797
15.231332,12.824172082319805,0.12704076375999757
15.23372,12.80974565164578,0.12690646164471994
15.2361,12.798252487277956,0.12675058338139583
15.238496,12.784896991790573,0.1266057419638023
15.240884,12.772891970743547,0.12644263950612977
15.243263999999998,12.752226920404798,0.12633857553073669
15.24566,12.734914445252823,0.12620085699762928
15.248048,12.713318229354295,0.1261019711637898
15.250427999999998,12.690651078269129,0.12601249439688017
15.252824,12.66984625830352,0.1259111163729485
15.255211999999998,12.651183308711186,0.12578986883512597
15.257595999999998,12.630518258372437,0.12568399585773465
15.26,12.612414387287545,0.1255457162958078
15.262388,12.588583753217126,0.1254461249142197
15.264772,12.566103593587062,0.12532805178247694
15.267168,12.538688066904385,0.12524705964206503
15.269556,12.509922065781353,0.12518381065943462
15.271935999999998,12.481295834285179,0.125116139224121
15.274332,12.46212102801365,0.12498598446963335
15.27672,12.441455977674902,0.12487795290064835
15.279099999999998,12.422094179948266,0.12477464848981017
15.281496,12.40203353408733,0.12469146568582848
15.283884,12.383695449719093,0.12460066458510966
15.286263999999996,12.368662718709388,0.12449933296057972
15.288668,12.354933240311798,0.12440286893585267
15.291056,12.352237979004686,0.12424292860408148
15.29344,12.352056675123189,0.12407487873569685
15.295836,12.359744004600502,0.12385034120623944
15.298224,12.37366995374254,0.12359585356435628
15.300608,12.3883872988175,0.1233412128819057
15.303004,12.409483033184046,0.12305335689862984
15.305392,12.43737646572276,0.12272045289552488
15.307776,12.468435481993147,0.1223828808572208
15.310172,12.508014757928397,0.12199309721879012
15.31256,12.54596402016957,0.12162808450494131
15.314944,12.591083067635248,0.1212283058409496
15.31734,12.6405784036461,0.12081156567038254
15.319728,12.694450028202121,0.12037852539133793
15.322112,12.74189604163831,0.12000484107102069
15.324508,12.793997882873391,0.119605256330489
15.3269,12.848101824854888,0.11919385135330053
15.329275999999998,12.902997162769303,0.11878339633973181
15.331672,12.959754831803279,0.1183659737035248
15.334056,13.01772320565075,0.11793801017298414
15.336452,13.0754120402445,0.11751941561823256
15.338844,13.126442946292944,0.11714373831308539
15.341228,13.172678254915633,0.11679844881041646
15.343607999999998,13.216911462791906,0.11647065845223686
15.346008,13.260493044362123,0.11614382513674898
15.348392,13.301932755559063,0.11583576988935508
15.350788,13.33843709970339,0.11556110701610216
15.35318,13.371216781608606,0.11530782517363891
15.355568,13.4044157723944,0.1150449814909281
15.357943999999998,13.436963136874136,0.11478233377285503
15.36034,13.474073781354146,0.11447915653574343
15.362723999999998,13.507367215796426,0.11417836175141304
15.365103999999995,13.537774605760756,0.1138754804232559
15.367499999999998,13.561803606433497,0.11360125278424785
15.369883999999995,13.587090533747977,0.11329414382875211
15.372264,13.611493517330926,0.1129720353717124
15.37468,13.63124067311498,0.11267287103601185
15.377064,13.650336202592978,0.11237192871803872
15.379439999999995,13.666638235391641,0.11208542351676513
15.381835999999998,13.682940268190304,0.11180034266719387
15.384219999999996,13.700732545056187,0.11149746278546906
15.3866,13.720526922668487,0.11118275467130934
15.388995999999995,13.747258768079814,0.11082879508788651
15.39138,13.771848743117864,0.11049158792517666
15.39376,13.793225912596,0.11017917007115384
15.396171999999998,13.815813786887635,0.10985601701268943
15.398559999999998,13.843337028231879,0.10950612251825419
15.40094,13.872303291815099,0.10915980884306292
15.403355999999995,13.900058850584825,0.10882630997183484
15.40574,13.925253230100688,0.10852036779290865
15.408119999999998,13.954032502228806,0.10820497310896267
15.410523999999995,13.985046192528822,0.10789277246050075
15.412908,14.018573840254449,0.10757769961995849
15.415288,14.057176624659547,0.10723305820193103
15.417691999999995,14.098293366490259,0.10688626978801948
15.420076,14.141924065746586,0.10653821513956854
15.422456,14.191840606495884,0.10615216908545629
15.424852,14.241105520939126,0.10576467416708765
15.427236,14.291441370569006,0.10537148467609625
15.429615999999998,14.340334197959908,0.10497767757709076
15.432027999999995,14.386713067925198,0.10459002779605509
15.434412,14.430438210838014,0.1042106345706412
15.436796,14.464432389272464,0.10387883273431055
15.439195999999995,14.496471688788741,0.10353755326924406
15.441583999999995,14.523343303826927,0.10320666005037131
15.443964,14.545838630319942,0.10288706116390894
15.446367999999998,14.562886733081148,0.10258684085913813
15.448751999999995,14.574487612110545,0.10230460390912416
15.451132,14.584505699274104,0.10202308824996899
15.453535999999998,14.594571008265909,0.10172198115959785
15.455919999999995,14.593322560913512,0.1014672297165213
15.4583,14.588628990575723,0.10121998004172324
15.460695999999997,14.576346326132846,0.10100409007499361
15.46308,14.560199229823999,0.10080550292946563
15.465475999999995,14.534972795342842,0.10065495564573554
15.467867999999998,14.499084230823543,0.10055260228337712
15.470252,14.453976558505081,0.10050131019592781
15.472636,14.409660282119535,0.10044894723473816
15.475031999999995,14.364552609801073,0.10039568557639612
15.477416,14.321167498975308,0.10033774415156259
15.4798,14.277502848895821,0.10028568036217045
15.482203999999998,14.233698429189474,0.10023657082499429
15.484587999999995,14.197111016535876,0.10014643609811852
15.486968,14.166762223547005,0.10003873197472501
15.489367999999995,14.146004625409638,0.0998905961597253
15.491752,14.129902855071164,0.09972546672793069
15.494147999999996,14.115151559173048,0.099546566555224
15.496543999999998,14.106965644021626,0.0993243011132884
15.498927999999998,14.097988332937282,0.09910159552658504
15.501308,14.085658446666162,0.09890164645801647
15.503703999999995,14.082128359313632,0.09866212964246728
15.506088,14.08246270382707,0.09840654426631965
15.508472,14.090525912072458,0.09811850154732281
15.510868,14.103384717743598,0.09781184727975814
15.513252,14.120527264161291,0.09747736960193086
15.515647999999995,14.14539867431093,0.09710930430827892
15.518043999999998,14.17748709151332,0.09670164884254338
15.520431999999998,14.205571307222877,0.09631359744408259
15.522812,14.231373882932294,0.09594215188609206
15.525207999999996,14.253172257148881,0.09559093166141631
15.527595999999996,14.276832962485022,0.09523408456656654
15.529976,14.305289265246916,0.09485911853222193
15.532368,14.330392992822032,0.09450819280308578
15.534756,14.350561353344538,0.09418089521083184
