Time,Force,Position
12.902503999999997,0.03241601240857047,0.0
12.904888,0.03567609192949278,0.0
12.907272,0.04079850256997174,0.0
12.909668,0.04429084738360775,0.0
12.912056,0.04377899070441006,0.0
12.914435999999998,0.04121775931778879,0.0
12.916832,0.04163706819836942,0.0
12.91922,0.04484987375828501,0.0
12.921599999999998,0.04699174413156208,0.0
12.923996,0.04992501043775726,0.0
12.926384,0.0544882904380318,0.0
12.928763999999996,0.062264375998221926,0.0
12.931159999999998,0.07083185749133018,0.0
12.933547999999998,0.07818863417093969,0.0
12.935927999999995,0.0850335541713515,0.0
12.938327999999998,0.09537087111816289,0.0
12.940711999999998,0.10771028881139114,0.0
12.943108,0.11706916623741749,0.0
12.945511999999995,0.12307546847666803,0.0
12.947899999999995,0.13108387146233544,0.0
12.95028,0.13858041776880517,0.0
12.952679999999996,0.14528556814235677,0.0
12.955067999999995,0.14705535146329635,0.0
12.957451999999996,0.14789396922445763,0.0
12.959847999999996,0.14994329179911764,0.0
12.962235999999995,0.15432152833492163,0.0
12.964616,0.1534375846033864,0.0
12.967015999999996,0.14752377802998937,0.0
12.969403999999995,0.14254113701637058,0.0
12.971784,0.1366273304429735,0.0
12.974183999999996,0.12936304942921753,0.0
12.976571999999996,0.12088806360196278,0.0
12.978952,0.1114819122149297,0.0
12.981347999999995,0.10314669601453516,0.0
12.983739999999996,0.09560287574705872,0.0
12.98612,0.08526555880024733,0.0
12.988515999999995,0.07292614110701907,0.0
12.990903999999995,0.06137811934670895,0.0
12.993284,0.052903133519454186,0.0
12.995679999999997,0.0433572125055609,0.0
12.998067999999996,0.032460817051308655,0.0
13.000452,0.022495587156834737,0.0
13.002847999999997,0.015603393195416196,0.0
13.005235999999996,0.0105735303535543,0.0
13.00762,0.006474833071470723,0.0
13.010012,0.0020965965356667254,0.0
13.0124,0.0,0.0
13.014784,0.0,0.0
13.01718,0.0015375180282258846,0.0
13.019568,0.00521690642972883,0.0
13.021947999999998,0.007825359644593244,0.0
13.024348,0.010433812859457658,0.0
13.026732,0.012250870141403964,0.0
13.029115999999998,0.014859323356268378,0.0
13.031512,0.016536611011354473,0.0
13.0339,0.016536611011354473,0.0
13.036295999999997,0.016536611011354473,0.0
13.038691999999998,0.016536611011354476,0.0
13.041079999999996,0.016536611011354476,0.0
13.04346,0.016536611011354476,0.0
13.045859999999998,0.016536611011354476,0.0
13.048247999999996,0.016536611011354476,0.0
13.050628,0.016536611011354476,0.0
13.053023999999995,0.016536611011354476,0.0
13.055415999999996,0.016536611011354476,0.0
13.057796,0.016536611011354476,0.0
13.060195999999998,0.016536611011354476,0.0
13.062583999999998,0.016536611011354476,0.0
13.064964,0.014999092983128593,0.0
13.067359999999995,0.011319704581625645,0.0
13.069747999999995,0.00871125136676123,0.0
13.072132,0.01237921248828513,0.0
13.074527999999995,0.026053885626154814,0.0
13.076915999999995,0.054251328952401666,0.0
13.0793,0.10116083955709348,0.011875119813572848
13.081695999999996,0.16948341845371176,0.02256826402797358
13.084083999999995,0.2612192183980406,0.03245882118170931
13.086464,0.3759489305094992,0.04195225798417153
13.088863999999996,0.5161865122137023,0.05108787419945082
13.091251999999995,0.6865877913095413,0.05979848420925271
13.093632,0.8854302063043199,0.06825375659666029
13.096031999999996,1.1109911957053418,0.07655332919166587
13.098419999999996,1.359266558019773,0.08483984742029017
13.1008,1.634819573247888,0.09297365977529427
13.103199999999998,1.9369986150836294,0.10098084755752942
13.105583999999997,2.261706934235546,0.10892617036857845
13.107968,2.606151034024303,0.11686220862651377
13.110363999999995,2.969958827397563,0.12477315210283652
13.112751999999997,3.352758227302988,0.13264551664618046
13.115136,3.750964341128326,0.1405267852052064
13.117539999999998,4.167929744060353,0.1483525336427142
13.119927999999998,4.593001733217509,0.15617261835939272
13.122311999999996,5.022869319800418,0.16397357329566292
13.124707999999998,5.447476674106621,0.17178091404899118
13.127095999999998,5.864683821620708,0.1676759544264697
13.129475999999997,6.269649838946557,0.16472404164651294
13.131875999999998,6.653157514142868,0.16257854134761116
13.134268,7.016604543478246,0.16079308708558543
13.136647999999996,7.351098580235484,0.15939537686746236
13.139048,7.652403105496275,0.15843526123621995
13.141431999999998,7.922380450380175,0.15773727499255027
13.143815999999998,8.161961780446962,0.15720660028399966
13.146211999999998,8.378596420174862,0.15666968231987016
13.148599999999998,8.565020140682883,0.15632387346594853
13.150983999999998,8.724817834583277,0.1561046891847958
13.15338,8.864320669339392,0.15593903769495565
13.155767999999998,8.990046803869673,0.1557318508780331
13.158147999999995,9.100366224480037,0.15552682307029997
13.160543999999998,9.192298443036055,0.15539236452411226
13.162931999999998,9.271849761776975,0.15523657303456795
13.165315999999995,9.336086914396596,0.15510665535299237
13.167716,9.387012001641336,0.15496639914502633
13.170103999999998,9.425556189070978,0.15480636254189778
13.172483999999995,9.454745290790331,0.15461129113208497
13.174884,9.46945694829168,0.15448084185879155
13.177272,9.47830396903851,0.1543404041216519
13.179651999999995,9.48375308862819,0.1541990035741622
13.182052,9.485477545978755,0.15409900284778164
13.18444,9.489436421501214,0.1539907950957851
13.186819999999996,9.496932967807687,0.1538772063254311
13.189224,9.508479041577363,0.15376541107920794
13.191612,9.526309060982143,0.15364753972057443
13.193991999999998,9.548048838223268,0.15353867038787253
13.196395999999996,9.574816530315625,0.15338983836353048
13.198784,9.60568097169943,0.1532140279897755
13.201164,9.636824952336955,0.15302833988224487
13.203567999999995,9.662381939615813,0.15290606361974346
13.205955999999995,9.684913112789857,0.15279695786768863
13.208336,9.711263391859502,0.15258957288778374
13.210731999999997,9.731794360144999,0.15242339041470754
13.213119999999996,9.750230679885462,0.15226063177937502
13.2155,9.769737934812563,0.15208380984673112
13.217896,9.786823780112666,0.15194988252978514
13.220284,9.804421482091966,0.15182414785445306
13.222663999999998,9.830120134855553,0.15162264510975287
13.22506,9.853537147619004,0.15145847031485898
13.227443999999998,9.87853695224829,0.1512859985417152
13.229827999999998,9.905399087997132,0.15109453161200811
13.232224,9.93561379893275,0.15085219417550866
13.234607999999998,9.964804796509972,0.1505956118579442
13.236991999999995,9.990318353676322,0.15034712305530976
13.239396,10.013132857819826,0.15006976737725342
13.241784,10.029244107447647,0.14981232598969638
13.244163999999998,10.044239095918458,0.14951835957640378
13.24656,10.054905017672338,0.1492333576876724
13.248948,10.062684894948266,0.14895396184000773
13.251331999999998,10.066135705507264,0.14868047492050626
13.253728,10.067072558640652,0.14842423600900675
13.256116,10.062794505467703,0.14823804524954057
13.258495999999996,10.06494206341459,0.14796267610938318
13.2609,10.062154254308863,0.14774466847255258
13.263288,10.05764388371044,0.1475402496551938
13.265667999999998,10.05699794497799,0.147293578104751
13.268064,10.055281071058902,0.14706192120617953
13.270452,10.04890836934092,0.1468767443349372
13.272835999999998,10.046260329862054,0.14665536170926086
13.275232,10.044683225569825,0.1464197355124079
13.27762,10.043385660531316,0.14617383058599337
13.279999999999998,10.041296699559892,0.14593226431192693
13.282404,10.0420012352678,0.14566441331317057
13.284792,10.046570202841682,0.14535539847459408
13.287171999999998,10.051231718214181,0.14506971488113274
13.289572,10.059058817318354,0.14476912576721335
13.29196,10.065907529034504,0.14450662113408197
13.294339999999998,10.070055291869936,0.14429322469376346
13.296736,10.075646076944347,0.14407848721330105
13.299119999999998,10.089058273549318,0.14380581448472857
13.301499999999995,10.106334902020263,0.14349308881137246
13.303895999999998,10.126405027170543,0.1431547161579666
13.306283999999998,10.14535699530594,0.14286231530998358
13.30868,10.171618518292705,0.1425060690118589
13.311076,10.199323063518447,0.14215012026490745
13.313467999999997,10.221533163184137,0.14186914386209074
13.315848,10.24732815546208,0.141561185676433
13.318243999999996,10.27363500441922,0.14126016705497263
13.320632,10.295518343002946,0.1410203465304602
13.323012,10.320846804572064,0.1407599514606317
13.325408,10.347338749126438,0.1405107473797531
13.327796,10.375133946292927,0.14026772860828687
13.33018,10.403161460884892,0.14004455863516316
13.332576,10.434494328835392,0.13980727786524194
13.334964,10.469412089398144,0.13954447586278435
13.337343999999998,10.506843807386511,0.13926925233349585
13.33974,10.543716446867437,0.13901346532944728
13.342128,10.585105144520394,0.1387212615939406
13.344511999999998,10.629007799598966,0.1384180057956646
13.346908,10.671839519490899,0.13813206185926732
13.349296,10.715043326435168,0.13786154000177644
13.351679999999998,10.756245032633023,0.1376129058715854
13.354076,10.795212320658983,0.1373692012037025
13.356464,10.833527982378886,0.1371271130392798
13.358843999999998,10.867839442605955,0.1369250519607629
13.361244,10.908856053206575,0.13663877227688054
13.363628,10.942423339328968,0.1364134908757791
13.366011999999998,10.97906366138442,0.13615694958362118
13.368408,11.020267263440143,0.13584177780425202
13.370796,11.054952706577417,0.1355809290744071
13.373175999999996,11.08633279635616,0.13533621701536205
13.375576,11.111194727216454,0.13514334202565673
13.377964,11.135964110278131,0.1349308092308435
13.38036,11.15435510404822,0.13476638091145635
13.382755999999995,11.169161205206056,0.1346274738246056
13.385143999999997,11.184107075990752,0.1344849964393382
13.387528,11.202964600469665,0.1342833861450073
13.389923999999995,11.224383304202435,0.1340456419148957
13.392315999999996,11.241425719390033,0.1338351218108308
13.394692,11.256745573084938,0.13363528473293737
13.397099999999998,11.270203095660285,0.13345038863767325
13.399483999999998,11.286593884541826,0.1332406200020618
13.401867999999997,11.304707234916062,0.1330223979687587
13.404263999999998,11.321749650103659,0.13281743322185327
13.406647999999995,11.344006971597594,0.1325598534136909
13.409028,11.363842883464526,0.1323367483116806
13.411427999999995,11.390336723876771,0.13206121213158095
13.413815999999995,11.416970333915877,0.13178380198777662
13.416196,11.442533008768342,0.1315201535973901
13.418591999999997,11.472891281046557,0.13121926732666722
13.420979999999997,11.50604305000411,0.13089923201456688
13.42336,11.550136488253523,0.13048602698754894
13.425763999999996,11.59287945206258,0.13009566758566116
13.428151999999995,11.639347078110745,0.1296795975576731
13.430535999999996,11.687165178599273,0.1292448415578497
13.432931999999996,11.731538156102406,0.12882876807009136
13.435315999999997,11.773629493605402,0.12844225319360558
13.4377,11.809854298496008,0.12810473067289171
13.440095999999995,11.849152139319669,0.12774049367441745
13.442483999999997,11.886727418650635,0.12738507238071667
13.444864,11.926072481302542,0.12699910851898807
13.447267999999998,11.961832651342196,0.1266353638724166
13.449655999999996,11.996661655822068,0.1262796003552088
13.452036,12.027905767689688,0.1259447668554433
13.454435999999998,12.056496152504835,0.1256260538453291
13.456823999999996,12.08085001840167,0.12532500440069314
13.459204,12.102969466126611,0.12502668464331415
13.461599999999995,12.120572855679521,0.12475521837292623
13.463987999999995,12.135382748553095,0.12450250469306705
13.466368,12.150100093628053,0.124232006563509
13.468763999999997,12.163653955717754,0.12395308284621939
13.471151999999996,12.168687558142588,0.12373277162246221
13.473536,12.170136267955172,0.12353125869766088
13.475931999999997,12.17000218590192,0.12333328906800393
13.478316,12.170007873475528,0.1231315530311219
13.480695999999998,12.17322636660905,0.1229003569227237
13.483103999999996,12.175793233436517,0.12266677862351866
13.485491999999995,12.181433136197038,0.12240769508262914
13.487872,12.181066736718307,0.12219506481148171
13.490271999999996,12.182842207612856,0.12196283704451233
13.492659999999995,12.182336038507266,0.12175501815591998
13.49504,12.182761034961455,0.12154151940203939
13.497439999999996,12.180532304363167,0.12134056822320034
13.499823999999997,12.1790949696978,0.12113781056512159
13.502204,12.179240426898268,0.12093261854243796
13.504603999999995,12.185904043017183,0.12068880589524926
13.506991999999997,12.193731142121356,0.12045546158631125
13.509372,12.20486359458406,0.12021271052141684
13.511767999999996,12.219441170032159,0.11995690063814016
13.514156,12.231038257345817,0.11974612059854446
13.516551999999995,12.243519288391012,0.11955415074104282
13.518947999999998,12.257443341675181,0.11936353114951476
13.521335999999998,12.274812517944746,0.11915918978771213
13.523715999999997,12.294044025333864,0.11894500971008712
13.526111999999998,12.312064827909488,0.1187452071999592
13.528499999999998,12.324451415298196,0.1186010515940194
13.53088,12.33842079455274,0.11845501113659135
13.533279999999998,12.35518367048662,0.11829439376817333
13.535667999999998,12.381817280525722,0.11806576807061991
13.538048,12.409893912803799,0.11784061351859602
13.540443999999995,12.436899609895239,0.11762476970914272
13.542831999999995,12.46511601180018,0.11739661348187365
13.545212,12.497336615197952,0.11714051009472713
13.547615999999998,12.529836757849447,0.11687619776149531
13.550003999999998,12.560893878261963,0.11661133179041243
13.552387999999995,12.588086566808506,0.11637265561293204
13.554783999999998,12.613976002742932,0.1161290438479593
13.557167999999995,12.639493351625022,0.11587574732582706
13.559551999999996,12.660122555282744,0.1156329129760031
13.561956,12.683592477448045,0.11535335319941081
13.564343999999998,12.702034484762116,0.11508718917807419
13.566723999999995,12.71996463539699,0.11481402596125269
13.569119999999998,12.737382929352664,0.11453440101187841
13.571507999999998,12.752938892188782,0.11426561789993521
13.573891999999995,12.765561588718707,0.11401496967426847
13.576287999999998,12.781025003756211,0.1137258880578555
13.578675999999998,12.791320734315622,0.11345422024047845
13.581059999999995,12.793096205210167,0.113230744015993
13.583455999999998,12.78621164681299,0.11305962785082525
13.585839999999996,12.772157303191307,0.11291923648601453
13.588223999999997,12.758522268450204,0.1127666908868815
13.590628,12.74395606814932,0.11261881882357266
13.593016,12.724454500795828,0.11250267066994533
13.595399999999998,12.70802596937539,0.1123639349709169
13.597796,12.688803941275616,0.11223908901380127
13.600184,12.66413468944403,0.11213867526147543
13.602567999999998,12.63853427205267,0.1120425196222748
13.604964,12.607067322048918,0.1119826735928841
13.607352,12.573318732045031,0.11194439894849116
13.609731999999996,12.530630573495696,0.11196525413378848
13.612127999999998,12.489944515692777,0.1119725035102284
13.614515999999998,12.450748701957078,0.11195770273431481
13.616899999999998,12.409178700422622,0.11194454756747611
13.619296,12.3620217055295,0.11196047133886815
13.621683999999998,12.31849682507687,0.11193702136711768
13.624063999999995,12.276974045370661,0.11189844621500213
13.626468,12.240526402343923,0.11182293024299314
13.628856,12.210504370437015,0.11169393445421422
13.631235999999998,12.18011025147777,0.11155295919424947
13.633632,12.150787067705162,0.11140260547391845
13.636024,12.121743423186276,0.11124329332115139
13.638403999999998,12.09297931792111,0.11107506230869538
13.640804,12.066776391909801,0.1108762206654257
13.643188,12.03670903403252,0.11069971479765228
13.645571999999998,12.007433072088155,0.11052190492282706
13.647968,11.984954808315962,0.11030207100797045
13.650356,11.96075398305107,0.1100868165683374
13.652735999999996,11.939765963346096,0.10984407362576959
13.655131999999998,11.923713310693733,0.10956846669439048
13.657519999999998,11.911525089907345,0.10926778988182193
13.659899999999997,11.900268034680735,0.10896168236855153
13.662295999999998,11.886729339453986,0.10867719462538766
13.664683999999998,11.876635767212631,0.10838148336929436
13.667067999999997,11.872408727583666,0.10804759660580426
13.669463999999998,11.866691443887483,0.1077351155332952
13.671851999999998,11.858832289818023,0.10744053263868826
13.674235999999995,11.848411956494704,0.1071760940472415
13.676631999999998,11.836221839850444,0.10694119235020053
13.679019999999998,11.829199407684278,0.10669060621498143
13.681403999999995,11.828834904063417,0.10640366479629466
13.683799999999998,11.828982257121753,0.1061245942669492
13.686187999999998,11.827359826859151,0.1058747635862304
13.688571999999995,11.824898778835385,0.10564945592669764
13.690967999999998,11.825370997117819,0.1054065207935688
13.693355999999998,11.832920452826139,0.10511696383342663
13.695735999999997,11.840190369280737,0.1048365474764996
13.698131999999998,11.851696804653649,0.1045465853378182
13.700523999999998,11.865577427825313,0.10425598015295741
13.702903999999997,11.881040842862815,0.10396586544828951
13.705303999999998,11.901811712005266,0.10365828176046091
13.707691999999998,11.924025603386694,0.1033547772084518
13.710088,11.949544848126655,0.10304681819824638
13.712487999999995,11.973573848799395,0.10276010792011142
13.714875999999997,12.000768433203808,0.10247451024598768
13.717256,12.032339306153393,0.10217742546074329
13.719655999999995,12.068146698021287,0.10187325519406994
13.72204,12.106607816941656,0.10156146999122038
13.724424,12.144649626981446,0.10126180955416719
13.726819999999996,12.183343063327293,0.1009684088462294
13.729208,12.221197881911978,0.10070139605868207
13.731592,12.262497823482057,0.1004281394280121
13.733987999999997,12.304728930611912,0.10015053388087443
13.736375999999996,12.350684699980881,0.09985799208992745
13.73876,12.395662081961833,0.0995941052776399
13.741155999999997,12.43472570950215,0.09938737022483538
13.743543999999996,12.471507697042325,0.09920053526991457
13.745928,12.50507687902259,0.0990374102247079
13.748323999999997,12.541579327309048,0.09886062836137084
13.750715999999995,12.57621944447595,0.098692508702623
13.753096,12.611139100896573,0.09851861335449119
13.755491999999997,12.648200627690471,0.09833104910768739
13.757879999999997,12.68740402485765,0.09813052653486355
13.760264,12.732893263517797,0.0978915237031182
13.762663999999996,12.776799710312105,0.09765470946187335
13.765047999999997,12.816190098934385,0.09743341986120314
13.767432,12.850924659757771,0.09723100269655548
13.769827999999997,12.885938759834879,0.09702263364898651
13.772219999999995,12.922163564725485,0.0968035911010715
13.774603999999997,12.954943246630698,0.09659217311200931
13.777008,12.986419675923797,0.09637417836031861
13.779395999999998,13.012309111858228,0.0961775992830743
13.781775999999995,13.04262205816607,0.09595039401888712
13.784171999999998,13.070281277421437,0.09573077997316348
13.786559999999998,13.096777013691549,0.09549984586591936
13.788943999999995,13.124251137349683,0.09524374068105086
13.791339999999998,13.159873433620342,0.09494484238900797
13.793727999999998,13.199779470637559,0.09461903959236533
13.796111999999995,13.237962946162078,0.09429919345318596
13.798507999999998,13.279079687992793,0.09396764601689847
13.800895999999998,13.318473868330809,0.09364131966208293
13.803279999999996,13.355214321616351,0.09332293878026325
13.805675999999998,13.386228011916366,0.09302831323335238
13.808063999999998,13.40937306885757,0.09277107587182401
13.810443999999997,13.42958485949258,0.09252730817247322
13.812843999999998,13.451938520500866,0.09227083646172105
13.815231999999998,13.474711490389735,0.09200380588306847
13.817611999999995,13.49282863247971,0.09175237350903816
13.820011999999998,13.509782291584433,0.09149003256026143
13.822399999999998,13.527667116248933,0.09122487051511442
13.824779999999995,13.545971249794011,0.09095035775774295
13.827179999999998,13.56897843296623,0.0906402591734819
13.829567999999998,13.585187917966273,0.09035873926177149
