Time,Force,Position
11.852356,0.11421415517209885,0.0
11.85474,0.11616903409027254,0.0
11.857136,0.11719274744866795,0.0
11.859524,0.11942716562056208,0.0
11.861908,0.12380345416573323,0.0
11.864304,0.12510670677784905,0.0
11.866688,0.1250594849496059,0.0
11.869072,0.12501226312136274,0.0
11.871475999999998,0.1251048109199798,0.0
11.87386,0.12026199166598482,0.0
11.87624,0.11155474054601638,0.0
11.878639999999995,0.10578075573224308,0.0
11.881028,0.10443028129188413,0.0
11.883408,0.10443028129188413,0.0
11.885804,0.11029681390427448,0.0
11.888192,0.11779336021074419,0.0
11.890576,0.12570921539779453,0.0
11.892972,0.13748950245081837,0.0
11.89536,0.1503407246904807,0.0
11.89774,0.16533381730342014,0.0
11.900136,0.17846457879680291,0.0
11.90252,0.19452860659638088,0.0
11.904916,0.21073240402281904,0.0
11.90732,0.22800713663589575,0.0
11.909703999999998,0.24313999887569543,0.0
11.912084,0.258272861115495,0.0
11.914488,0.2724745577955163,0.0
11.916875999999998,0.2846741537291208,0.0
11.919255999999995,0.30073818152869874,0.0
11.921647999999998,0.31745383563433466,0.0
11.924032,0.33202761936669345,0.0
11.926412,0.3453906982855535,0.0
11.928815999999998,0.3592656338836112,0.0
11.9312,0.37165032541444976,0.0
11.933584,0.37937918914639684,0.0
11.935987999999998,0.38575757843798486,0.0
11.938371999999998,0.3930671332893512,0.0
11.940752,0.3926478244087706,0.0
11.943144,0.39208874590132975,0.0
11.945532,0.39166943702074913,0.0
11.947927999999996,0.395114560006142,0.0
11.950328,0.3953468774316193,0.0
11.952716,0.39250615892404117,0.0
11.955095999999998,0.38151726780393547,0.0
11.9575,0.37360141261688506,0.0
11.959888,0.3638232263102781,0.0
11.962267999999998,0.35711807593672645,0.0
11.964668,0.35320642224250987,0.0
11.967056,0.3432884663090427,0.0
11.969435999999998,0.3336500496292959,0.0
11.97184,0.32587396406910574,0.0
11.974228,0.3075755180976336,0.0
11.976608,0.2861741018994031,0.0
11.979011999999996,0.26598339051467146,0.0
11.981399999999995,0.24658407506285793,0.0
11.98378,0.22718475961104437,0.0
11.986183999999998,0.20860677438585193,0.0
11.988567999999995,0.19109972434729797,0.0
11.990948,0.17356274001504104,0.0
11.99334,0.1549548204961456,0.0
11.995728,0.13448456985769353,0.0
11.998107999999998,0.11522502403274015,0.0
12.000504,0.09796757895420363,0.0
12.002892,0.0867164361149177,0.0
12.005271999999998,0.07346319252921489,0.0
12.007676,0.06207228006306874,0.0
12.010064,0.04867926685050572,0.0
12.012439999999998,0.034494857705024605,0.0
12.014848,0.02338348449259887,0.0
12.017232,0.013203276839951447,0.0
12.019612,0.0031628388141642385,0.0
12.022008,0.0019221997069625457,0.0
12.024396,0.0019221997069625457,0.0
12.026775999999998,0.0019221997069625457,0.0
12.02918,0.002650982134966549,0.0
12.031568,0.003379764562970552,0.0
12.033948,0.0014874991497109582,0.0
12.036344,0.003908908776708441,0.0
12.038732,0.007291418257187194,0.0
12.041111999999998,0.011605093297444271,0.0
12.043508,0.015918768337701346,0.0
12.045896,0.02209477449751506,0.0
12.048275999999998,0.028131011030468566,0.0
12.05068,0.03216514681700522,0.0
12.053068,0.03699067853645999,0.0
12.055447999999998,0.04060550544241601,0.0
12.057852,0.04328916678859371,0.0
12.060236,0.049045864067826794,0.0
12.062615999999998,0.05415093504100199,0.0
12.06502,0.06018717157395549,0.0
12.067408,0.0630106025469934,0.0
12.069784,0.06741682538586753,0.0
12.072188,0.07182304822474167,0.0
12.074576,0.07636904069047602,0.0
12.076956,0.07939485479528824,0.0
12.079359999999998,0.08228089927324027,0.0
12.081747999999996,0.08310222949986132,0.0
12.084128,0.08161198543264217,0.0
12.086531999999998,0.08147221580578197,0.0
12.088915999999998,0.0825431509924205,0.0
12.091296,0.08375385580591924,0.0
12.093691999999995,0.08524409987313838,0.0
12.09608,0.08915575356735504,0.0
12.098464,0.09772323506046329,0.0
12.100856,0.10400907655343425,0.0
12.103244,0.11252933621829934,0.0
12.105624,0.1255184322269527,0.0
12.108027999999996,0.13627121420584265,0.0
12.110415999999995,0.15009513625991874,0.0
12.1128,0.166990198389181,0.0
12.115195999999996,0.19375409876579802,0.0
12.11758,0.2244730829491364,0.0
12.11996,0.2642676135890422,0.008937145568105355
12.122356,0.31295069923041213,0.018377885696630406
12.124744,0.37419978028411627,0.02808361475347163
12.127123999999998,0.4494578789891306,0.03790367323333753
12.129528,0.5487808250479134,0.0473922152422715
12.131912,0.6719816270053611,0.0566285626991406
12.134292,0.821387250831985,0.06560638111761385
12.136699999999998,0.9990923450728192,0.07440560495633627
12.139084,1.2082624934595358,0.08309075775472824
12.141468,1.4492697830444725,0.09165655585045572
12.143864,1.7210432786409908,0.10015178206923611
12.146248,2.0237699717041937,0.10855461671741912
12.148628,2.36601734372719,0.11677969912838175
12.151031999999995,2.739172587246497,0.1249356291285196
12.153416,3.1394184922243844,0.13303119358496535
12.155796,3.573507430862647,0.14098309082275606
12.158199999999995,4.0364114883100575,0.14884220083851804
12.160588,4.520309253036049,0.15667797348177243
12.162968,5.022035141308952,0.16448628017537043
12.165371999999998,5.542754531971887,0.17224334380121847
12.167756,6.075764170509179,0.17103131989736858
12.17014,6.620878961323587,0.16927101710419798
12.172535999999996,7.174189146578767,0.16719742355409467
12.174923999999995,7.733227990677348,0.16495443170084031
12.177304,8.284913849812055,0.16301703132393405
12.179707999999998,8.82361440465385,0.16131081195969527
12.182091999999995,9.342394083261567,0.15983417929674268
12.184472,9.83576033593303,0.15851029679210638
12.186875999999998,10.300594800764804,0.15727150870057732
12.189263999999998,10.728424439920268,0.15615954883583535
12.191644,11.123253454892257,0.15509666074668474
12.194048,11.482939975307492,0.15411036544011256
12.196431999999998,11.800918620419282,0.1533080011371159
12.198815999999995,12.088875233624167,0.1525392866278713
12.201211999999998,12.345551888280406,0.15182969369271762
12.203599999999998,12.564475751439918,0.15129276749157933
12.20598,12.751745673140578,0.15086093645205065
12.208379999999998,12.921189367152198,0.15040516787760916
12.210763999999998,13.070245654220917,0.14995888340991906
12.213148,13.194723341398802,0.14958521653613113
12.215543999999998,13.302351292417796,0.1492136010134807
12.217931999999998,13.391639263210683,0.14886653833442673
12.220312,13.46323888008352,0.14854256812937897
12.222707999999995,13.51514804228989,0.14825654807419916
12.225096,13.55439676542744,0.14796092892156298
12.227476,13.580286201361867,0.147673059279618
12.229872,13.592861676063547,0.1474298319560072
12.232256,13.597383421809187,0.1472190363186472
12.234635999999998,13.597389109382796,0.14703852823807817
12.23704,13.602562481434493,0.1468292550539983
12.239424,13.609690732404363,0.1466242997890219
12.241803999999998,13.621799676397218,0.14641687893742067
12.244208,13.638889313413063,0.1462060471969042
12.246596,13.651508218227248,0.14606359403151617
12.248976,13.667292706773106,0.14591062291481302
12.251372,13.690014663117992,0.1456987087814566
12.25376,13.717020360209428,0.1454448756685954
12.256139999999998,13.73392300577017,0.1452614737775881
12.258544,13.748219146106676,0.1450739905496026
12.260928,13.765263457152148,0.14482904799934398
12.263312,13.777838931853825,0.14459316049705315
12.265715999999998,13.79032185875689,0.14434168091923294
12.2681,13.799359662674561,0.1441085864364848
12.270484,13.810120028084928,0.1438671418239656
12.27288,13.819110610174354,0.14365586367572208
12.275264,13.832709798234433,0.14343402588351384
12.277648,13.852547605959236,0.14317508558775652
12.280051999999998,13.873968205549877,0.14291028077939974
12.282436,13.897810214767512,0.1426174234743666
12.28482,13.918346870626618,0.1423388847620606
12.287215999999995,13.934647007567412,0.14208043010581903
12.2896,13.945686912231498,0.14183163078983924
12.29198,13.955610555738572,0.14155542820262856
12.294383999999996,13.967211434767966,0.1412315874539635
12.296771999999995,13.977556283013495,0.14088503959931456
12.299152,13.981942050848012,0.14056726134712902
12.301555999999998,13.98358154383144,0.14024846923926848
12.303943999999998,13.984197323456472,0.13991720889085227
12.306324,13.981507749722967,0.13959905399103545
12.308719999999996,13.975093513750354,0.13930584097344823
12.311104,13.968120199270295,0.13902787967023733
12.313484,13.955140582550989,0.13879808408325858
12.315887999999998,13.944814692884155,0.1385536015827269
12.318275999999996,13.929413666537851,0.13835090901933475
12.320656,13.914012640191546,0.1381479444081822
12.323052,13.89395578604635,0.13797527783545896
12.325436,13.872967766341374,0.13780839805463116
12.32782,13.854773243315735,0.13762308184802136
12.330216,13.835740102528932,0.1374606185843801
12.3326,13.81735858804819,0.13729946451761996
12.334996,13.80177057024678,0.13711986295708434
12.3374,13.78748580505749,0.13694319115781986
12.339788,13.774364522853451,0.13677356315926692
12.342167999999996,13.765479759567725,0.13658555739209471
12.344568,13.752683342587783,0.13644581170219322
12.346951999999998,13.742261113406594,0.1362995113774528
12.349335999999996,13.730208870531326,0.1361781341406399
12.351731999999998,13.726397348067206,0.13600730463551805
12.354115999999998,13.727334201200593,0.13582429521592873
12.356496,13.730365702879013,0.1356428860165133
12.358891999999996,13.735911161983047,0.13545185287989137
12.361279999999995,13.747974780005531,0.13522007675448894
12.36366,13.76190072914757,0.1349780262133338
12.366056,13.783835081275276,0.13467526907840424
12.368444,13.808842469336039,0.1343487784787554
12.370839999999998,13.83943685075547,0.1339886593106711
12.373244,13.871893563294458,0.13361888280391107
12.375628,13.900765383221193,0.13326809031713766
12.378007999999998,13.93126721684201,0.1328939659130393
12.380408,13.96377115120924,0.13250569103403848
12.382791999999998,13.999208351882668,0.13209926823556106
12.385171999999995,14.033574617369458,0.13170161478961961
12.387576,14.065426925430632,0.1313137721021098
12.389964,14.095556671999109,0.13093582346043578
12.392343999999998,14.128899224127501,0.13052964171580272
12.39474,14.163732020323113,0.13010450400709248
12.397128,14.198564816518726,0.12967933992931346
12.399507999999996,14.229672950475226,0.12927857071233753
12.401912,14.255613399953635,0.1288996751580448
12.4043,14.282112927939485,0.12850732297217185
12.406679999999998,14.303444771447246,0.12813587499670018
12.409084,14.320120787156117,0.12779198195041877
12.411472,14.329859335065958,0.1274965245919114
12.413852,14.336524847042744,0.1272258667956535
12.416248,14.341048488646253,0.12697371152114356
12.418636,14.339333510585035,0.12675078323889336
12.421015999999998,14.332962704724922,0.12655378281903382
12.423412,14.331387496290564,0.12632722777199332
12.4258,14.327670417482928,0.1261184054329529
12.428179999999998,14.322230777182595,0.12591627345512424
12.43058,14.313857870576067,0.125733344719942
12.432968,14.308557999902593,0.12552791163135774
12.435347999999998,14.304561381841237,0.12532665172945692
12.437752,14.298283123779743,0.12514635638012517
12.44014,14.29093393053161,0.12497460559363889
12.442519999999998,14.280092392469841,0.1248358071601199
12.444924,14.269111084781212,0.12470044449535757
12.447308,14.257198611532806,0.12456990345140437
12.449687999999998,14.246868930150233,0.12443631978103067
12.452084,14.235188774327304,0.12431848430845902
12.454472,14.228024676676405,0.12417917628596244
12.456851999999998,14.221651974958425,0.12403828747161352
12.459256,14.221145805852835,0.12386015346873237
12.46164,14.218497766373968,0.12369926305358592
12.464023999999998,14.214499252454743,0.12355410351921538
12.466416,14.214457718200107,0.12340200093298254
12.468804,14.220654803610202,0.12322272891205455
12.471187999999998,14.226153040885992,0.12306216186407577
12.473584,14.231883595587261,0.12291465101838181
12.475967999999998,14.240500194766483,0.12276952455762066
12.478348,14.247626549878484,0.12264364579168029
12.480743999999998,14.257406632042962,0.12250761949163173
12.483131999999998,14.27133068532713,0.12234246931998946
12.485528,14.290050336037053,0.1221507325222572
12.487924,14.311563483426307,0.12194538083555134
12.490312,14.34094526417437,0.12169307803752027
12.492691999999998,14.37326031122863,0.12142396206852304
12.495096,14.408089315708505,0.12114880752432136
12.497484,14.445711816867714,0.1208604627848756
12.499864,14.483334318026923,0.12057259151413456
12.50226,14.525612646985023,0.12026466611269905
12.504648,14.569893076689542,0.1199447843445494
12.507027999999998,14.612171405647642,0.11963880973405115
12.509424,14.65524113053866,0.11933183538338156
12.511812,14.699661329870034,0.11900997187810927
12.514191999999998,14.748505039574827,0.11865559292375517
12.516596,14.79069082073431,0.11833680415204156
12.518984,14.831293810027958,0.11802095584616705
12.521363999999998,14.87538914413524,0.1176759805658889
12.52376,14.919252160817047,0.11732045005503486
12.526148,14.967119378991686,0.11694153440813636
12.528531999999998,15.009771690859994,0.11659946441501688
12.530936,15.050002593101302,0.11628210509560713
12.53332,15.0840874234765,0.11600490907598376
12.5357,15.119894815344399,0.11572469363129634
12.538096,15.150627070532822,0.11547794091062509
12.540484,15.181871182400442,0.1152384494700924
12.542863999999998,15.215629251693677,0.11499499289192953
12.545268,15.248176616173412,0.11476315088899679
12.547656,15.283237938078765,0.11452649536587965
12.550036,15.309219921811808,0.1143436771560596
12.552432,15.340509359649802,0.11414498428105924
12.554816,15.377246021219607,0.1139270841848914
12.557199999999998,15.417567575401662,0.11369755756435797
12.559596,15.460123547755613,0.11347003429529773
12.561979999999998,15.496114139362874,0.11328985411688433
12.564376,15.54048522100814,0.11307533317358778
12.566772,15.588301425638798,0.11285286199534086
12.569156,15.637281113254714,0.11264096402920189
12.571535999999998,15.683699621616771,0.1124534241606877
12.573932,15.727045094045767,0.11228451203019053
12.57632,15.77532593352738,0.11209094676873586
12.578699999999998,15.822675607449217,0.11190184631051378
12.581104,15.875240187677383,0.11168174558903074
12.583492,15.924591962345634,0.11148368848665122
12.585871999999998,15.97180186664061,0.11129939603082155
12.588276,16.019431079816165,0.11110736676485143
12.590664,16.061473299633047,0.11093838056344205
12.593044,16.107659490569628,0.11074690832352521
12.595447999999998,16.153054285573287,0.1105571677373109
12.597835999999996,16.20459515244306,0.11033323383213543
12.600216,16.247615759647964,0.110146261017148
12.602619999999998,16.283047272747783,0.10999201738721996
12.605007999999998,16.31489389323535,0.10984975509625931
12.607388,16.347299592230357,0.10969636011294454
12.609783999999998,16.385059967158558,0.10951065927880452
12.612171999999996,16.419235449474506,0.10933766051082894
12.614552,16.451036743991697,0.10916711732854076
12.616947999999995,16.4759477925381,0.10901266003462397
12.619336,16.502349085151724,0.10884300886505709
12.621716,16.531963183325267,0.10865472916524428
12.624112,16.560274028886695,0.10846273828184046
12.626496,16.588212787395783,0.10826266301511753
12.62888,16.612147344412037,0.10808259789081143
12.631276,16.636640979935734,0.10789109078429118
12.633664,16.66062275878023,0.10769362822477459
12.636043999999998,16.679808940198978,0.107516337654283
12.63844,16.700764904938666,0.10731808012065978
12.640824,16.717996207439235,0.10713429211953995
12.64322,16.732993091767916,0.10694901610398491
12.645616,16.745615788297837,0.10676542875900948
12.648004,16.7617308296414,0.10655744620599891
12.650384,16.779475884679037,0.10633129831339568
12.65278,16.797640248597254,0.1060965952574905
12.655168,16.81422182064964,0.10586356722171852
12.657547999999998,16.826287334529987,0.10564444613772501
12.659944,16.833045394305394,0.10543861157220408
12.662332,16.83915182777474,0.10523049218815742
12.664728,16.848191527550277,0.10500975485539356
12.667123999999998,16.858581701766177,0.10477788899322694
12.669511999999996,16.862733256317345,0.10456231761560236
12.671892,16.863160148629404,0.1043594581468588
12.674287999999995,16.860653774635267,0.10416861606094321
12.676676,16.858426939894848,0.10397182116450847
12.679056,16.85633987478129,0.1037724318702222
12.681452,16.861469816720483,0.10353761226364372
12.68384,16.872745830525783,0.10327352710938213
12.686224,16.882671369890726,0.103021293488514
12.68862,16.88794108145678,0.10278396992242919
12.691008,16.896283828955895,0.10253237885161837
12.693388,16.908630777947835,0.10226422290735668
12.695788,16.918044460633578,0.1020080102473399
12.698176,16.930391409625518,0.10174070902019007
12.700556,16.941807193057688,0.10147650532299868
12.702959999999996,16.95122087574343,0.10122132256796457
12.705344,16.960634558429177,0.10096612170687033
12.707724,16.974564299286953,0.1006990659388756
12.710127999999996,16.98621240014459,0.10044629188330037
12.712515999999995,16.998931436188872,0.1001883313827975
12.714896,17.006854874807402,0.09994777917009053
12.717292,17.018363206038185,0.0996983742076387
12.71968,17.029452228388383,0.09945713814261849
12.72206,17.046547552977835,0.09919073050056727
12.724452,17.06378264719414,0.09892149198691401
12.72684,17.079295179917757,0.09865550885906182
12.729236,17.085728374469063,0.09842939001760467
12.731635999999998,17.086015497154264,0.09823167187950749
12.734019999999996,17.088304720585874,0.0980257386589532
12.736404,17.09152510957727,0.09781634335410895
12.738799999999998,17.091253153755023,0.09762960952878742
12.741187999999998,17.0797599893872,0.09749262270204094
12.743568,17.072131256885346,0.09734182861153624
12.745963999999995,17.059147848450298,0.09721863624950884
12.748348,17.047235375201893,0.09708977557489297
12.750743999999996,17.035183132326626,0.0969635593150494
12.753139999999998,17.02406205501114,0.09683452591683772
12.755527999999998,17.01308074732251,0.0967027416772793
12.757908,17.007174576313357,0.09654928081069822
12.760303999999998,16.997915830117424,0.09641489970099625
12.762691999999998,16.99396453802644,0.09627025497954819
12.765072,16.99294651224165,0.09611525646576288
12.767467999999996,16.993790817576418,0.09595491375817601
12.769855999999995,16.989420216604856,0.095818867850982
12.772236,16.989984982685904,0.09566467956064109
12.774639999999998,16.99027020951323,0.09551597044098226
12.777027999999998,16.99749290413959,0.09534109789447155
12.779408,17.00564676432573,0.09516345752053469
12.781803999999998,17.01352108525814,0.09499173277983312
12.784191999999996,17.02991566585542,0.09479508321467767
12.786572,17.046170476825836,0.09460105958795197
12.788968,17.07443789227476,0.09436026685085408
12.791356,17.097490401417343,0.09414328263699905
12.793751999999998,17.126688982426046,0.09390059887628999
12.796148,17.153326384180886,0.09367669009610097
12.798531999999998,17.182897052241923,0.09344316801805531
12.800915999999996,17.212188181049235,0.09321554816397594
12.803311999999998,17.239477209110138,0.09299605455502084
12.805699999999998,17.263832970864843,0.0927876327958873
12.80808,17.293403638925877,0.09255663159259862
12.810475999999998,17.31696800474766,0.09234854095969558
12.812863999999998,17.335177694636258,0.09216654589168402
12.815244,17.357671125271406,0.09196498193913645
12.817647999999998,17.38416875739938,0.09174879872529618
12.820035999999998,17.40559125284789,0.09155348049668474
12.822416,17.427153517923255,0.09135553076910055
12.824811999999998,17.442849250386235,0.09117736921737996
12.827199999999998,17.458033126170015,0.09099333704232637
12.829584,17.4697718789684,0.09081316787989901
12.831979999999998,17.47434084654228,0.09064673435205309
12.834367999999998,17.479468892623604,0.09046944857987911
12.836748,17.479661571652315,0.09030955840774967
12.839143999999996,17.487071257733774,0.0901207245655807
12.841531999999996,17.490616511949263,0.08994393067621494
12.843927999999998,17.5008669165383,0.08973290437768315
12.846328,17.507113119634507,0.0895362020823523
12.848716,17.513638861984433,0.08933432994891707
