Time,Force,Position
15.583663999999995,0.010645996074385893,0.0
15.58606,0.012497767895275964,0.0
15.588447999999996,0.012497767895275964,0.0
15.590827999999998,0.012497767895275964,0.0
15.593231999999997,0.012497767895275964,0.0
15.59562,0.012497767895275964,0.0
15.598004,0.012497767895275964,0.0
15.600399999999995,0.012497767895275964,0.0
15.602788,0.012497767895275964,0.0
15.605167999999995,0.012497767895275964,0.0
15.607564,0.009947147940084842,0.0
15.609951999999996,0.007805277566807781,0.0
15.612332,0.010495667148859113,0.0
15.614727999999996,0.013325826357770656,0.0
15.617116,0.01894948224601716,0.0
15.6195,0.02671500850754073,0.0
15.621895999999996,0.03342015888109233,0.0
15.624284,0.04068438776208477,0.0
15.626663999999996,0.05087132365060582,0.0
15.629063999999996,0.05999788365115491,0.0
15.631452,0.06712234290528712,0.0
15.633831999999996,0.07238447103986274,0.0
15.636228,0.08150047174174527,0.0
15.638615999999995,0.09168740763026631,0.0
15.640995999999998,0.10280550907856567,0.0
15.643396,0.11313221459394693,0.0
15.645783999999995,0.12639218641552336,0.0
15.648163999999998,0.1405833237968781,0.0
15.650559999999995,0.15263259080495578,0.0
15.652948,0.159466951506701,0.0
15.655331999999998,0.16122617552897403,0.0
15.657727999999995,0.1627164195961932,0.0
15.660116,0.16136594515583427,0.0
15.662499999999998,0.16066709702153323,0.0
15.664895999999995,0.15504344113328672,0.0
15.667287999999996,0.14727791487176314,0.0
15.669667999999998,0.13844145342360104,0.0
15.672063999999995,0.13039638790835703,0.0
15.674452,0.12020945201983599,0.0
15.676835999999998,0.11016228575817516,0.0
15.679236,0.10118605468315287,0.0
15.681623999999996,0.09407215472768721,0.0
15.684007999999997,0.08495615402580467,0.0
15.686404,0.07476921813728364,0.0
15.688796,0.06365111668898428,0.0
15.691175999999995,0.05443011303194889,0.0
15.693575999999997,0.041170141210372456,0.0
15.695959999999996,0.026979003829017707,0.0
15.698343999999995,0.014929736820940016,0.0
15.70074,0.00920107797754064,0.0
15.703127999999996,0.007476620626974969,0.0
15.705507999999998,0.0057173966047019565,0.0
15.707908,0.004377481463009575,0.0
15.710292,0.0022461703883990833,0.0
15.712675999999998,0.0022461703883990833,0.0
15.715071999999996,0.0022461703883990833,0.0
15.71746,0.0022461703883990833,0.0
15.719855999999996,0.0022461703883990833,0.0
15.722252,0.0022461703883990833,0.0
15.724639999999996,0.0022461703883990833,0.0
15.72702,0.0022461703883990838,0.0
15.729415999999995,0.0022461703883990838,0.0
15.731807999999996,0.0022461703883990838,0.0
15.734188,0.0022461703883990838,0.0
15.736583999999995,0.0022461703883990838,0.0
15.738972,0.0011404685300532129,0.0
15.741351999999996,0.0011404685300532129,0.0
15.743748,0.0011404685300532129,0.0
15.746135999999996,0.0011404685300532129,0.0
15.748519999999996,3.4766671707341684e-05,0.0
15.750924,0.0,0.0
15.753311999999998,0.0,0.0
15.755692,0.0,0.0
15.758087999999995,0.0,0.0
15.760476,0.0,0.0
15.76286,0.0,0.0
15.765255999999995,0.0,0.0
15.767644,0.0,0.0
15.770028,0.0,0.0
15.772423999999996,0.0,0.0
15.774812,0.002310719098236886,0.0
15.777196,0.008623743831438244,0.0
15.779591999999996,0.019870239759382367,0.0
15.78198,0.03563089800148863,0.0
15.784359999999996,0.05748851042359328,0.0
15.786759999999996,0.08609470333175419,0.0
15.789148,0.12089039821853051,0.0
15.791527999999996,0.16494863101697763,0.013611314867503535
15.793932000000002,0.21864148877943307,0.02639057628194915
15.796319999999998,0.2761949866921235,0.03985846987666161
15.798703999999995,0.342544491807661,0.05299860109818493
15.801099999999996,0.418062091178383,0.06594426981949028
15.803487999999998,0.502468245550569,0.07882043818713845
15.805871999999995,0.5982769123498337,0.09140955231792255
15.808267999999996,0.7074901923225939,0.1035712773880695
15.810655999999998,0.835183222148322,0.11497625636861258
15.813039999999996,0.9782829658939622,0.12602567673521747
15.815435999999996,1.1395829202388497,0.1366437892854763
15.817823999999998,1.3173605236902883,0.1469828770676055
15.820204,1.5106846106884992,0.15712740936493816
15.822599999999998,1.717384231762106,0.1670914998212675
15.824988,1.932182907762128,0.1770112498315529
15.827367999999996,2.154429012382507,0.1868647965373666
15.829771999999997,2.3817483578244896,0.19674380226881297
15.832159999999998,2.6181923674091516,0.206427253754313
15.83454,2.862597558151238,0.2159277902120311
15.836935999999998,3.1111467200130187,0.2253568502431849
15.839324,3.361697982621216,0.22108613623320886
15.841703999999996,3.61085344481868,0.21760033332268103
15.844103999999998,3.8675998969791,0.21329171484690704
15.846492,4.1243482449973925,0.20923429170351623
15.848876,4.377001739582102,0.20537386960331017
15.851271999999998,4.62826132961395,0.20151279543846815
15.85366,4.875240970614981,0.19785494710110985
15.856039999999997,5.115286935532721,0.19454440728198574
15.858439999999998,5.337876863955889,0.19200676369031536
15.860828,5.548225662190816,0.18978986870799575
15.863207999999997,5.742236580946056,0.18797055579746047
15.865604,5.9207010161545215,0.18641353701415775
15.867996000000002,6.081616867069797,0.1850929248098385
15.870375999999997,6.22847647850552,0.18389460495912413
15.872775999999998,6.367518470126418,0.1826421865152646
15.875164000000002,6.497532137118991,0.18137565981142753
15.877543999999997,6.618237940229519,0.18006768165027306
15.879943999999998,6.720137232405117,0.1790110198974937
15.882331999999996,6.8063955973774535,0.17815341699741385
15.884711999999997,6.8843225899978995,0.17732702509535422
15.887111999999998,6.951264483213978,0.17657298900205487
15.889499999999996,7.012761048556117,0.17581864682507056
15.891879999999995,7.0650876237852005,0.1751435456309316
15.894279999999998,7.111829101513482,0.17447556193545513
15.896667999999996,7.156849913606937,0.17372908179975433
15.899047999999995,7.192793283385955,0.17306705717104953
15.901451999999995,7.220962463462651,0.17248830209469532
15.90384,7.239075813836889,0.17204216882996143
15.90622,7.256724529360173,0.1715485374740981
15.908619999999996,7.2689732429798894,0.1711038715223124
15.911008,7.278987538427712,0.17067665324505393
15.913388,7.286767415703641,0.17026509287420596
15.915787999999996,7.297388011487147,0.16976434307819174
15.918176,7.305075340964458,0.16932049512378744
15.920556,7.306244511523322,0.16898909276615418
15.922952,7.30475995502971,0.1686983107765949
15.925344,7.3056968081630975,0.1683462186920878
15.927724,7.312500193908873,0.16788546913963232
15.930123999999996,7.318000327042534,0.16742149509330884
15.932512,7.319263941257884,0.16701086505824364
15.934892,7.31801359804762,0.16662957918523616
15.937291999999996,7.311875109612985,0.16630117075510834
15.93968,7.300289397446543,0.16605650405294636
15.942063999999998,7.2813941304287315,0.16592618141643248
15.944459999999996,7.257051639679112,0.16587786639091961
15.946848,7.233268227436932,0.1657973337042617
15.949232,7.208181562582637,0.16571510652396335
15.951627999999996,7.186587242541978,0.16554644405225147
15.954016,7.163130591381763,0.16540748445665882
15.9564,7.140744875408185,0.16524438289265905
15.958795999999996,7.115425893128413,0.16513616954621888
15.961184,7.091317615662138,0.16499454824498083
15.963568,7.067069568569004,0.1648582989071698
15.965963999999996,7.040539881475733,0.16477880780616336
15.968352,7.012939259195822,0.16472482236812513
15.970731999999996,6.979332334676662,0.1647931697664024
15.973131999999996,6.939858877545113,0.16497175458592114
15.97552,6.895357505562333,0.16520996034228083
15.977899999999996,6.850856133579553,0.1654516231329529
15.980299999999996,6.807146157529691,0.16568823388350706
15.982688,6.765298512599384,0.16589297752778348
15.985067999999997,6.72317132841536,0.1661180512550275
15.987467999999996,6.682766705724029,0.1663225285958145
15.989856,6.650090946764647,0.16637458325358168
15.99224,6.620348454111458,0.16636655197751177
15.994635999999996,6.589395256644773,0.16639212809791856
15.997024,6.557882980670647,0.1664541374814033
15.999403999999997,6.5273018702562995,0.1664953454701868
16.001803999999996,6.497791695028591,0.16651008912089563
16.004192,6.469864311666719,0.16650759793705164
16.006571999999995,6.4459411297976805,0.16642128809467932
16.008968,6.422529804607839,0.16634242966407814
16.011355999999996,6.3989787097911375,0.16626960977352967
16.013739999999995,6.378500650907491,0.16613115183911048
16.016139999999996,6.3666826213155705,0.16582652049276148
16.018528,6.361802059522679,0.16537955158654624
16.020912,6.362648260715317,0.1648249579926673
16.023307999999997,6.3675912111994055,0.1642224569810128
16.025696,6.3770502198555254,0.1635475911745551
16.02808,6.389442494817842,0.16281595473952185
16.03048,6.402765935339937,0.16206937368928703
16.032867999999997,6.422887074034199,0.16119735812560404
16.035251999999996,6.445941479034657,0.16027013299239176
16.037648,6.461499337728644,0.1595158137093001
16.040035999999997,6.474356247541914,0.15884461359398372
16.042419999999996,6.4945227122065505,0.15806102800771035
16.044816,6.5205557094835775,0.1571688514524553
16.047203999999997,6.547100563439802,0.15629350309130094
16.049584,6.57723031000828,0.15537395796172673
16.051979999999997,6.605497725457201,0.1544845010690355
16.054368,6.631995357585182,0.15366164527910875
16.056752,6.657422054526525,0.15286330888800223
16.059147999999997,6.681498277027509,0.15210640078124701
16.061536,6.709438931394466,0.15128762556954994
16.06392,6.731093744268453,0.1506087574370207
16.066315999999997,6.752049709008139,0.14997633933662927
16.068707999999997,6.771375660053744,0.1494054365563972
16.071088,6.791353237405407,0.1488417452982259
16.073488,6.808397548450876,0.14833134938482953
16.075875999999997,6.826373025056124,0.14781274161611668
16.078256,6.8448603583405685,0.14730725355138677
16.080651999999997,6.857061850132043,0.14692688427943348
16.08304,6.868983802669795,0.1465652577722344
16.085424,6.8882625318871575,0.1460622626339469
16.087819999999997,6.91368733297063,0.14545120021263705
16.090208,6.932314435881936,0.14495337273473774
16.092592,6.9467975676735465,0.14453449679230737
16.094987999999997,6.960069994651659,0.14414591074325458
16.097376,6.968267284950299,0.14384635019080738
16.09976,6.980049467861193,0.14350450725995448
16.102155999999997,6.995463765212581,0.143079866727611
16.104544,7.012600624056668,0.14263852835780552
16.106928,7.0317395836471706,0.14216517981989765
16.109323999999997,7.045803406558201,0.14177967610707903
16.111712,7.0594951424168935,0.14137446398974152
16.114096,7.072535251969528,0.14096754982573084
16.116491999999997,7.087996771149161,0.14050953487242832
16.118883999999998,7.09987339771654,0.1400935663974842
16.121264,7.11761655689631,0.13959457039431328
16.123659999999997,7.133078076075942,0.13914526251444473
16.126051999999998,7.14574609857624,0.1387313304458036
16.128432,7.159904365143756,0.13827386576181938
16.130832,7.174062631711274,0.13781902366875595
16.133219999999998,7.183005991972458,0.13745499649208737
16.1356,7.188084920367669,0.13714804321281646
16.138004,7.19930992062899,0.1367449080352097
16.140391999999995,7.214678892010005,0.1362769792195524
16.142771999999997,7.233120899324075,0.13576446184664887
16.145167999999995,7.256498273690757,0.13518394917340754
16.147555999999998,7.2800154176843,0.13460227572394384
16.149939999999997,7.3043239576107615,0.13402544615979806
16.152335999999995,7.329051806417803,0.1334311667002418
16.154723999999998,7.3537796552248444,0.132840458693513
16.157104,7.380649374405165,0.1322137540634149
16.159499999999998,7.410824446944014,0.13156821188129894
16.161888,7.444212325042783,0.13087708407274834
16.164272,7.470662735342522,0.1302800241115077
16.166667999999998,7.502048512694871,0.12962119091917718
16.169056,7.527567757434831,0.12904388831025787
16.17144,7.553366541428511,0.12845411067083534
16.173835999999998,7.583169526915025,0.12781206045296023
16.176224,7.616417635386932,0.12714901479043186
16.178608,7.649665743858838,0.1264901383912672
16.181003999999998,7.685707349010079,0.12580150247626717
16.183387999999997,7.7216091845344605,0.1251219696702733
16.185771999999996,7.750294013006092,0.12454760943415431
16.188168,7.77683697110445,0.12401209003428557
16.190555999999997,7.799515497336831,0.12352437174529991
16.192939999999997,7.821123088382573,0.12305822289805189
16.195339999999998,7.84086834830876,0.12261350009205564
16.197728,7.857261033048171,0.12222533841047085
16.200112,7.872303243347224,0.12186745986192966
16.202511999999995,7.886414288086497,0.12151978400876348
16.2049,7.909185362117496,0.12108831507250399
16.20728,7.930885500961857,0.1206743089080634
16.209684,7.949884690925498,0.12031918946813425
16.212068,7.976612744621087,0.11988510119683415
16.214451999999998,8.002921489436096,0.1194759987051844
16.216847999999995,8.0309527957438,0.11905760021194942
16.219231999999995,8.06149805947712,0.11863080041306916
16.221611999999997,8.092974488770219,0.11820179196436706
16.224015999999995,8.122448817316899,0.11779881547595793
16.226404,8.15285431142336,0.11739140176100804
16.228784,8.187403776649512,0.11694102154690918
16.23118,8.224746738555,0.11647165241569131
16.233563999999998,8.267956233072876,0.11594539944075924
16.235944,8.310886188337037,0.11543396251897974
16.238339999999997,8.356190331399949,0.11491939133852773
16.240728,8.398281668902944,0.11444670887873455
16.243107999999996,8.442747194204697,0.11397355378666406
16.245504,8.489354589879726,0.11347634016765587
16.247891999999997,8.540478043726786,0.11295374223879273
16.250275999999996,8.59532615981296,0.11240808247594486
16.25268,8.638161671420631,0.11199041555593993
16.255064,8.6834185926553,0.11154026805202244
16.257443999999996,8.730025988330329,0.11106880634235176
16.259843999999998,8.774351744005221,0.11063448475684258
16.262232,8.817606564493474,0.1102169356914913
16.264611999999996,8.864865586474561,0.10976764576338005
16.267008,8.912916004388565,0.1093235244627117
16.269395999999997,8.96054711342199,0.10890196619682802
16.271792,9.012042654321387,0.1084553504570569
16.274188,9.061536094474366,0.10802953329406062
16.276575999999995,9.10767695944057,0.10765068747732125
16.278955999999997,9.154609220339692,0.10727699053920589
16.281351999999995,9.20140171161196,0.1069136869255927
16.283739999999998,9.253269339563692,0.10651088662592977
16.28612,9.305556276396008,0.1060955689965923
16.288515999999998,9.363058119534656,0.10563340105467912
16.290904,9.421630897859943,0.10516636539125639
16.293288,9.481134841745009,0.10469930270601341
16.295683999999998,9.53733343227154,0.10424494170770686
16.298067999999997,9.592740626865154,0.1037980472358185
16.300451999999996,9.65308318851138,0.103313099870132
16.302848,9.712075275717247,0.1028545800878221
16.305235999999997,9.771207132549975,0.10239594927429795
16.307631999999995,9.832620629382836,0.10191759681638295
16.310028,9.893522269536502,0.10143301138340356
16.312415999999995,9.947486441891142,0.10100245352700067
16.314795999999998,9.99614316014083,0.10059450474582937
16.317191999999995,10.042425690591763,0.10018972251427635
16.31958,10.083912623616948,0.09981844644276251
16.32196,10.127261887761687,0.09943894759251876
16.324355999999998,10.16916812966745,0.0990566459753513
16.326744,10.203625047094985,0.09871379472681338
16.329123999999997,10.235707776723764,0.0983734837221771
16.331527999999995,10.26048095150118,0.09806951854166505
16.333916,10.284602499972538,0.09776287115626763
16.336296,10.303788681391284,0.09749057999936209
16.338691999999998,10.318738343891718,0.09722866930927747
16.341084,10.331965444899456,0.09697284396667268
16.343464,10.34333021478764,0.09672654839696691
16.345868,10.348688682436569,0.09652126628598014
16.348255999999996,10.354606228592942,0.09629859495390895
16.350639999999995,10.359872148443257,0.09607195514708478
16.353036,10.3612736364276,0.09586752325317092
16.355423999999996,10.35122159844088,0.09572381275483004
16.357803999999998,10.337305128588188,0.09560175518763717
16.360199999999995,10.321945636496517,0.09547402463609796
16.362588,10.309007554031844,0.09531848623671078
16.364968,10.295138306007392,0.09516695674779754
16.367372,10.27903463981105,0.09500926205315222
16.369759999999996,10.258694454696391,0.09485876584507852
16.372139999999998,10.2343500680889,0.0947343537970686
16.37454,10.212287321481547,0.09458665911116036
16.376927999999996,10.186871999687417,0.09447033215825883
16.379307999999998,10.159175037893151,0.09437640592072087
16.381703999999996,10.127334104979195,0.0943135729861781
16.384092,10.09204804907984,0.09425869081822057
16.386476,10.055691057993851,0.09421213408280821
16.388871999999996,10.014678239108969,0.09418678435180607
16.39126,9.970732153917892,0.09417921533193971
16.39364,9.925203276860977,0.09417197741419155
16.396039999999996,9.870455292004895,0.09423426305970328
16.398428,9.809049378603508,0.09433309913936751
16.400808,9.747783234828976,0.09442694233431524
16.403204,9.696387825159674,0.09445615271288088
16.405596,9.64499241549037,0.09448591669313029
16.407976,9.59625073287354,0.09450695345379045
16.410372,9.542666231002716,0.09458613447164982
16.412759999999995,9.483075426892638,0.09471010960955707
16.415139999999997,9.421854609088486,0.09486530454257341
16.41754,9.362216583150166,0.09502096352816775
16.419923999999998,9.30378926202535,0.0951634757708849
16.422304,9.24480286239309,0.09532686726980312
16.424703999999995,9.189029268320747,0.09546091090466376
16.427092,9.136188940554597,0.09557655326980703
16.429472,9.082417447228668,0.09569917038677908
16.431871999999995,9.034093177634553,0.09579790621468526
16.43426,8.986280764719627,0.09590764195116978
16.43664,8.938700669230187,0.09604106127825444
16.439039999999995,8.895636631912772,0.09615537393355868
16.441428,8.858299357580893,0.09623483332377974
16.443811999999998,8.828970486234681,0.09625445444989593
16.446207999999995,8.803878133806778,0.09626606146060404
16.448596,8.781159969177631,0.09627834204465058
16.450979999999998,8.755601086040905,0.09633729061116714
16.453375999999995,8.73469803070307,0.09637090518295148
16.455764,8.716169163163991,0.09640535091185792
16.458144,8.7047175330508,0.09638382467878778
16.460539999999998,8.704439889654948,0.0963025495476458
16.462928,8.710540635550684,0.09619150670484763
16.465324,8.71594253331212,0.0961069537234719
16.467719999999996,8.726372345924785,0.09601383862144992
16.470108,8.744531022269397,0.09587107670092009
16.472487999999995,8.765063886412765,0.09573063705343823
16.474892,8.788902103914664,0.09558717913607635
16.477279999999997,8.821912207387486,0.09540097431117861
16.47966,8.857436268285923,0.09521312269917065
16.48206,8.894822660303914,0.09501562792034916
16.484447999999997,8.937935815307439,0.09478304432182252
16.486828,8.980629661430381,0.09456689277794209
16.489223999999997,9.025697695352077,0.09435518495443777
16.491612,9.07286037781881,0.09415783991177486
16.493996,9.126820758457708,0.09391966220996187
16.496391999999997,9.186507902082136,0.0936531652375919
16.49878,9.248336916079843,0.09336761547635905
16.501164,9.312679887503165,0.09308349275026026
16.503559999999997,9.38102706041932,0.09277615057174127
16.505948,9.448954924454895,0.09248794694136074
16.508327999999995,9.514880687744052,0.09221772415809702
16.510724,9.581737616592989,0.09194635902617518
16.513111999999996,9.656602948427592,0.09162391315046702
16.515492,9.731468280262195,0.09130444177014715
16.517892,9.800978936163606,0.09103394881169141
16.520279999999996,9.871420757624792,0.09076318063460498
16.522663999999995,9.944004449459259,0.09047915757237292
16.52506,10.012072083121694,0.09021467183409353
16.527447999999996,10.079068781597488,0.08996204591558497
16.529828,10.14792781119284,0.08970357171668104
16.532223999999996,10.218277084855412,0.08942695240821072
16.534612,10.295051969637814,0.08910485704035764
16.537007999999997,10.372106393673937,0.088779006580995
16.539404,10.448788730657721,0.08844276416766178
16.541788,10.520023843909698,0.08812840626649492
16.544167999999996,10.580736596750395,0.08786421838461325
16.546572,10.644662155151003,0.08758007079398314
