Time,Force,Position
14.962708,0.014883448060064674,0.0
14.965103999999997,0.014883448060064674,0.0
14.967495999999995,0.014883448060064674,0.0
14.969876,0.014614628570094398,0.0
14.972276,0.010201837960430204,0.0
14.974663999999995,0.007651378470322653,0.0
14.977047999999996,0.004029983793576571,0.0
14.979447999999998,0.0005483587436906997,0.0
14.981836,0.0,0.0
14.98422,0.0,0.0
14.986615999999998,0.0,0.0
14.989004,0.0,0.0
14.991388,0.0,0.0
14.993792,0.0,0.0
14.996179999999995,0.0,0.0
14.998559999999998,0.0,0.0
15.000955999999997,0.0,0.0
15.003343999999998,0.0,0.0
15.005727999999998,0.0,0.0
15.008123999999995,0.0,0.0
15.010512,0.0,0.0
15.012892,0.0,0.0
15.015291999999995,0.0,0.0
15.01768,0.0010602154228883892,0.0
15.02006,0.007195567525249011,0.0
15.022464,0.016124416306944594,0.0
15.024848,0.024913495461779962,0.0
15.027231999999998,0.03384234424347555,0.0
15.029623999999998,0.043981897838669876,0.0
15.032012000000002,0.05291074662036545,0.0
15.034391999999997,0.0639814657753381,0.0
15.036788,0.07691451604986738,0.0
15.039175999999998,0.08784546557797983,0.0
15.041556,0.1007785158525091,0.0
15.043951999999996,0.11478250131367693,0.0
15.04634,0.12971765233462307,0.0
15.048724,0.14344209854207046,0.0
15.051116,0.15716654474951786,0.0
15.053503999999997,0.17196192614360378,0.0
15.055887999999996,0.18489497641813307,0.0
15.058284,0.19661732187916361,0.0
15.060668,0.20633756659377733,0.0
15.063052,0.21205360981555732,0.0
15.065455999999998,0.21484710649489228,0.0
15.067839999999997,0.21056336574833817,0.0
15.07022,0.20163451696664259,0.0
15.07262,0.1948368187944739,0.0
15.075007999999997,0.1897616821150017,0.0
15.077388,0.18240490543539217,0.0
15.079783999999997,0.17546743763636327,0.0
15.082172,0.1674590346506959,0.0
15.084551999999997,0.1557259694259152,0.0
15.086948,0.14799710569396823,0.0
15.089335999999996,0.13506405541943897,0.0
15.091715999999998,0.12198051575429927,0.0
15.094111999999996,0.10875720646229943,0.0
15.0965,0.09795530679729708,0.0
15.09888,0.08729317675915492,0.0
15.101279999999996,0.07635150746729234,0.0
15.103663999999997,0.0703452052280418,0.0
15.106048,0.0656893774291502,0.0
15.108452,0.06797101742928746,0.0
15.110839999999996,0.07546756373575716,0.0
15.113219999999998,0.0838952756020052,0.0
15.11562,0.09232298746825324,0.0
15.118007999999996,0.10139160587680904,0.0
15.120391999999995,0.10767744736978002,0.0
15.122796,0.11130956181027622,0.0
15.125183999999996,0.1137309714372737,0.0
15.127564,0.11773517293010742,0.0
15.129964,0.11866633848988574,0.0
15.132348,0.12532426703519417,0.0
15.134732,0.12876939002058704,0.0
15.137127999999995,0.13648753398878388,0.0
15.139516,0.14221429697431404,0.0
15.141895999999996,0.14635826809400795,0.0
15.144292,0.15115386551975976,0.0
15.146684,0.15594946294551157,0.0
15.149063999999996,0.15795156369192842,0.0
15.15146,0.15553015406493093,0.0
15.153847999999996,0.15511084518435028,0.0
15.156231999999996,0.14682290294496245,0.0
15.158628,0.13490284626507842,0.0
15.161015999999996,0.12498489033161124,0.0
15.163396,0.11800020070433923,0.0
15.165796,0.11250575514428633,0.0
15.168183999999997,0.10873387107692992,0.0
15.170564,0.10454267812899286,0.0
15.172964,0.10691686592774718,0.0
15.175351999999997,0.11050175854000026,0.0
15.177732,0.11809085264508702,0.0
15.180135999999996,0.11594898227180996,0.0
15.182524,0.11394688152539312,0.0
15.184908,0.10994268003255941,0.0
15.187303999999996,0.10714918335322443,0.0
15.189692,0.10500731297994739,0.0
15.192071999999996,0.0982096148077787,0.0
15.194468,0.09099260775502943,0.0
15.196855999999997,0.08513679490638922,0.0
15.199236,0.08063145649810798,0.0
15.201636,0.07398424771654967,0.0
15.20402,0.07027030524118653,0.0
15.206404,0.06897777239282088,0.0
15.208807999999998,0.06661430435781669,0.0
15.211196,0.06331967076303417,0.0
15.213575999999996,0.060524278225829974,0.0
15.215972,0.05601893981754872,0.0
15.218359999999995,0.05447957806421717,0.0
15.22074,0.04912111041528603,0.0
15.22314,0.04357565131125154,0.0
15.225524,0.039146453364229485,0.0
15.227903999999995,0.048357977731918654,0.0
15.230303999999997,0.06548346142878894,0.0
15.232692,0.08982405632053925,0.0
15.235071999999995,0.12189161908636732,0.0
15.237468,0.16075498416649484,0.009151397244115296
15.239855999999996,0.21009159197179184,0.018287533014533078
15.242235999999998,0.2655251539570872,0.027635864364678277
15.244636,0.3325847218890577,0.0366990626964379
15.247023999999996,0.40941868441189666,0.045712395115201566
15.24942,0.5029645093246329,0.0541338365029711
15.251812,0.6081470599477944,0.06247184048346132
15.254199999999996,0.7280393722144364,0.07055839654245663
15.256583999999997,0.8603598061244215,0.07858950257654959
15.25898,1.0035255698119139,0.08660789721938006
15.261367999999996,1.157968587779113,0.09454528317098992
15.263748,1.3264571254621154,0.10234977028117448
15.266143999999995,1.5055259651483932,0.11006801607660678
15.268532,1.6928808512161895,0.11779943755722512
15.270916,1.8871713092251456,0.12554287202598652
15.273311999999995,2.087653165070586,0.13324350716397976
15.2757,2.284595454274148,0.14106003791143562
15.278079999999996,2.4813507520226064,0.1488892359511082
15.280476,2.6784781368234016,0.15673035243148897
15.282863999999996,2.8723927160642813,0.16463910820680966
15.285244,3.0653761297453825,0.16342739573962742
15.287639999999996,3.259757239695087,0.16215063972474036
15.290028,3.455675815540253,0.16061584118122657
15.292428,3.646521150563816,0.15932921284321555
15.294823999999998,3.835785589579412,0.1579882864797587
15.297212000000002,4.0070802395633685,0.15733375962921545
15.299596,4.170974682755211,0.1567009270523779
15.301995999999995,4.322393782475467,0.15630596829315585
15.304384,4.4651094227914925,0.15589477196005877
15.306767999999998,4.5999129996362065,0.1554338305441142
15.309163999999996,4.723451937822834,0.15504658240276376
15.311555999999996,4.832513431791458,0.15482943510587002
15.313935999999998,4.92602654635544,0.15478165243477207
15.316331999999996,5.011440605993007,0.15472306550741508
15.31872,5.089547006637076,0.15464711167964637
15.321103999999998,5.15764479940693,0.15466437526627963
15.323499999999996,5.2230907609821795,0.15455012042861435
15.325891999999996,5.281181841735688,0.15447354317593814
15.328271999999998,5.334479220921314,0.15434923877519194
15.330667999999996,5.383262437792778,0.15414729116561318
15.333056,5.429813132350219,0.1538124710971375
15.335439999999998,5.4653315056750476,0.15355051525806612
15.337835999999996,5.491540119259961,0.153326861005366
15.340224,5.509090599411023,0.15313999178562465
15.342607999999998,5.512907809448753,0.1531108343537565
15.345008,5.516167836836911,0.15296931487450033
15.347395999999996,5.508952725642031,0.15299846487495175
15.349776,5.495546216610667,0.1530834375689271
15.352171999999996,5.472036656048601,0.15336836431780432
15.35456,5.444802433247421,0.15372497707599622
15.356944,5.414123087460849,0.15413967133610354
15.359339999999996,5.387727482420831,0.15443277455322887
15.361728,5.369619819620201,0.15451023449192308
15.364108000000002,5.3530024008867905,0.15452515189840155
15.366507999999996,5.334150563981484,0.15455374051080406
15.368896,5.31734804965084,0.1544805981259811
15.37128,5.2995218219617986,0.15438026820689613
15.37368,5.282162124981582,0.15419483857736038
15.376067999999997,5.260705678709916,0.15405834685227454
15.378448,5.237014814266353,0.15393435243342996
15.380848,5.207457417210399,0.15393676342043472
15.383232,5.180413977580062,0.15390280914806284
15.385616,5.156675891308257,0.1538248902852332
15.388011999999996,5.135823849514403,0.15373631411650815
15.390395999999996,5.122234140743673,0.1535678701676233
15.392779999999997,5.112042333130094,0.15340197325721558
15.395176,5.108740771487301,0.15313020378264908
15.397563999999996,5.110699442121213,0.1528222473369416
15.399947999999997,5.120759063539409,0.152360447858934
15.402344,5.131470311263663,0.15189993349084
15.404731999999996,5.146837386786809,0.15134247511302285
15.407115999999997,5.157129325630484,0.15091558369959063
15.409512,5.160344027048269,0.15066810287715723
15.411899999999996,5.1614168580927755,0.15048079315801263
15.414283999999997,5.16435202025684,0.1502563455190334
15.41668,5.16994090947338,0.1499909553200899
15.419067999999996,5.1786953824215916,0.14969920816089155
15.421451999999997,5.187402633541559,0.14946259501773743
15.423848,5.197924993952841,0.14924350129962094
15.426235999999996,5.217991327387386,0.14888746674444883
15.428619999999995,5.241735101232797,0.14851378341596344
15.431016,5.2682251499293,0.14814867214047003
15.433403999999996,5.293736811237784,0.14785789207452615
15.435783999999998,5.3225538259048,0.14753374238270245
15.438179999999996,5.3492289701985385,0.14726465981229886
15.440568,5.3791169200521916,0.14692367100860027
15.442951999999998,5.4132886106524,0.14648607883475975
15.445347999999996,5.450301019760187,0.14595718601572777
15.447736,5.48852413368147,0.14540261781991132
15.450116,5.5266074779758965,0.14485537296882192
15.452512,5.562129643016463,0.14439008209359427
15.454899999999997,5.602307635855922,0.1438454105941651
15.457284,5.643928650934358,0.14328938039095213
15.45968,5.6871324578786275,0.14272308022227215
15.462067999999997,5.72870625112882,0.142221058942214
15.464447999999996,5.76371466363232,0.1418845015586891
15.466848,5.797791910576041,0.14157419317968276
15.469235999999997,5.835873359012597,0.1411874999753051
15.47162,5.876888073755348,0.14074636933227247
15.474016,5.906961119206236,0.14052495229834305
15.476403999999995,5.935591142418148,0.14030553677239402
15.478788000000002,5.960915812271527,0.14012135524482766
15.481184,5.987870495818987,0.13987758240281337
15.483571999999995,6.013382157127469,0.13964172080723763
15.485951999999996,6.040244292876311,0.13936345972430605
15.48836,6.061100126385903,0.1392034221338413
15.490747999999996,6.076741053589161,0.13915432403781128
15.493131999999996,6.088098240045866,0.13919917174989244
15.495528,6.098244721689072,0.13927637619968394
15.497915999999996,6.114677044825248,0.13922950785441002
15.500299999999996,6.1324598424017855,0.1391421694442828
15.502699999999995,6.148380308858766,0.1390833631176545
15.505088,6.1679328897562415,0.13893360378937322
15.507472,6.184691973974382,0.13882357759761613
15.509867999999996,6.205083172633019,0.13862323948248234
15.512256,6.2312483561054295,0.13828774658846
15.51464,6.251826546219169,0.13803245270070977
15.51704,6.2705424052133525,0.13780823939310924
15.519424,6.288746407528337,0.1375750811748002
15.521808,6.3135157905900146,0.1372043046681579
15.524203999999996,6.341497979211606,0.13677332786154617
15.526592,6.369200628579478,0.13635815740424806
15.528976,6.395552803506991,0.13598380854541126
15.531371999999998,6.41762123768795,0.13569326352114808
15.533755999999997,6.441831542242188,0.1353650171190534
15.536139999999996,6.468043947542841,0.13500193484558604
15.538536,6.494535892097215,0.13462146266585065
15.540923999999997,6.521027836651588,0.134240142512618
15.543307999999996,6.544586514899766,0.13390523966415036
15.545704,6.559857250908557,0.13372423956023782
15.548096,6.5772698572906245,0.13350424441373515
15.55048,6.594542694045832,0.13329288327931538
15.552875999999998,6.609394121174042,0.13314089122528142
15.555264,6.627178814608446,0.13294381366805771
15.557648,6.641610932856075,0.13281723160998524
15.560043999999998,6.65255070629007,0.13276826372395056
15.562432,6.666656063455736,0.1327015706928588
15.564816,6.679690485434763,0.13265582642527762
15.567211999999998,6.6933765337198485,0.13261548989929486
15.5696,6.703710006818158,0.13264301359497935
15.571984,6.7117618399163295,0.1327180201849419
15.574379999999998,6.720884608201141,0.13277333577815364
15.576768,6.734291117232505,0.13275221780249824
15.579152,6.752912532570203,0.13264264138025514
15.581551999999997,6.7689727686540415,0.1325958743897617
15.583939999999998,6.785033004737881,0.132549387925908
15.586323999999998,6.805888838247472,0.1324411965941541
15.588719999999997,6.8295381684363985,0.1323005699161393
15.591111999999995,6.859845427170635,0.13207718323147244
15.593496000000002,6.8970901537039,0.13175546942884167
15.595892,6.9359176721030025,0.1314349942848053
15.598279999999995,6.97781822643516,0.13107183552524118
15.600663999999997,7.0207897159539545,0.13069248019514837
15.60306,7.067905176592443,0.13025910655977607
15.605447999999996,7.119956004283544,0.12976465817324082
15.607831999999997,7.174940098280842,0.1292343485628529
15.610228,7.234347702651553,0.12863420394144137
15.61262,7.292544602208765,0.12805741619148744
15.614999999999997,7.349530796952479,0.12750995165608486
15.617399999999996,7.411452358748804,0.12690412409854931
15.619788,7.476167417224464,0.12627491033373361
15.622172,7.54260503719282,0.12563723337437324
15.624572,7.603687981227984,0.12509069636925382
15.626959999999997,7.66248928526301,0.12458931279719586
15.629343999999996,7.723432459671315,0.12405793722318756
15.631743999999998,7.7863777348260355,0.12350565198761264
15.634132,7.845179038861063,0.12301927607251154
15.636508,7.905191047709588,0.12251931449541054
15.638911999999998,7.961897703199578,0.12204671472916688
15.6413,8.014879696450455,0.1216169601406458
15.643679999999996,8.064556336342802,0.12120987636708122
15.646076,8.110648083622895,0.12083551874671965
15.648463999999995,8.15715913978357,0.12044613356038121
15.650844,8.19780366333185,0.12012638901145473
15.653247999999998,8.233000963148324,0.11985374398467376
15.655631999999995,8.266755240725821,0.11958178462458888
15.658015999999996,8.294782755317787,0.11936769118058235
15.660412,8.326442384350251,0.11909384331690999
15.662799999999995,8.355076199277901,0.11882112842593265
15.665183999999996,8.376400459354187,0.11860792838448869
15.66758,8.390415164579103,0.11845259110277434
15.669967999999995,8.403266386818766,0.11828389079817896
15.672351999999997,8.416816457192729,0.11808444139409206
15.674748,8.43278793719369,0.11784626084392057
15.677135999999996,8.44238102790306,0.11765675045084967
15.679516,8.4486687652539,0.11748128355271348
15.681911999999995,8.451651149246208,0.11731847452855415
15.6843,8.446113273573651,0.11723262128965316
15.686679999999996,8.432706764542287,0.1172285982677824
15.689079999999995,8.418648629204863,0.11721993152929751
15.691468,8.398584191628192,0.11727805213868478
15.693852,8.3777283581186,0.11733778014854167
15.696247999999995,8.353939258302814,0.11742671808617766
15.698636,8.328287827367472,0.1175322822354908
15.701015999999996,8.30170523087235,0.11764655601030163
15.703412,8.272980764003952,0.11778876964082426
15.705799999999996,8.24574654120277,0.11789774678497579
15.708183999999996,8.215718821722257,0.11802790759295653
15.71058,8.18797274224188,0.1181230443435483
15.712967999999996,8.166232965000754,0.11815175886697257
15.715348,8.147566223692682,0.1181453507771796
15.717748,8.129039252011472,0.11813149834873635
15.720135999999997,8.107579014024065,0.11814732932161216
15.722516,8.08053178267799,0.11820924972328067
15.724916,8.05776829207847,0.11821562096302393
15.727303999999997,8.03258339185195,0.118263123981355
15.729687999999996,8.009121053118127,0.1183019660990789
15.732084,7.98752104550386,0.11832685314091582
15.734471999999997,7.972858505688624,0.11827656186197538
15.736852,7.953120829193915,0.11828707990921844
15.739247999999996,7.937387354192038,0.11825252974120634
15.741636,7.919791548070605,0.11823483721907001
15.74402,7.900333410829615,0.11823450348313626
15.746415999999996,7.880223647282568,0.11823039505828878
15.748807999999997,7.862115984481936,0.11820250285606758
15.751188,7.844287860935025,0.11816151821651677
15.753583999999996,7.8226878533207564,0.11819295296968661
15.755972,7.798666436079491,0.11826837292619517
15.758351999999997,7.773946170703926,0.11837568673848561
15.760751999999997,7.743079833462249,0.11856011563780436
15.76314,7.71407582734013,0.11872620016850574
15.765519999999997,7.6786462100981785,0.11898545102139943
15.767919999999997,7.646010089535561,0.119220037442119
15.770308,7.616958861585197,0.11942678573492972
15.772687999999995,7.5873485551273925,0.11965894927726144
15.775084,7.56374455090884,0.1198189988098404
15.777471999999996,7.540280316317145,0.11997308505509809
15.779851999999998,7.524544945457398,0.12004369993085208
15.782252,7.506667704224374,0.1201444241908275
15.784639999999996,7.496659096350158,0.12015681620699999
15.787019999999998,7.488512819595497,0.12015185283693715
15.789415999999996,7.485534227318926,0.12011523078946273
15.791807999999996,7.486140527654608,0.12005077063402932
15.794187999999998,7.49205428209524,0.11994807031272835
15.796583999999996,7.4983401235882114,0.11986350488016514
15.798972,7.504858282506661,0.11980329829043089
15.801352,7.516591347731443,0.11967295949663483
15.803748,7.529115808889142,0.11953931024282465
15.806131999999998,7.544293997099314,0.1193870473025892
15.808515999999996,7.5647796394144375,0.11919552960743462
15.810919999999996,7.586568534341674,0.11901515505105313
15.813308,7.61566698412028,0.11876954210769348
15.815692,7.647279391324501,0.11851307298766314
15.818087999999996,7.67940365520792,0.1182695215167336
15.820476,7.715252581330451,0.11799437252005528
15.822856000000002,7.748819867452845,0.11775902514594404
15.825255999999996,7.785972046187491,0.11749817723907148
15.827644,7.818840484175585,0.11730059131180548
15.830024000000002,7.8572959155223465,0.11705605778654092
15.832423999999996,7.894121333175032,0.11685467501046534
15.834812,7.936254204932665,0.11662291766876873
15.837196,7.978247307063439,0.11640043189687631
15.839599999999995,8.022894136246688,0.11616368766060212
15.841983999999997,8.068472130989715,0.11592411039251131
15.844364,8.115121060919382,0.11567164516460535
15.846759999999996,8.16591396196874,0.11537192294241289
15.849148,8.217358489324157,0.11508087232728675
15.851532,8.27266744854555,0.11475382255743777
15.853927999999996,8.327045242207161,0.114437676266643
15.856311999999996,8.378629539189436,0.11414465796011318
15.858691999999998,8.430493375425435,0.1138434971920295
15.861095999999996,8.481705585355375,0.11353998954830877
15.863484,8.529984528979119,0.1132654197775731
15.865863999999997,8.576261371856445,0.11301089715586336
15.86826,8.617323308427439,0.11281695972431038
15.870647999999996,8.660107806491132,0.11261575918096531
15.873027999999998,8.703543930860882,0.1124224911428523
15.875436,8.749913321536825,0.11220402956925656
15.87782,8.790276409973519,0.112046560966998
15.880204,8.827985771357739,0.11190347944106342
15.882599999999996,8.857174873077092,0.11183049452119763
15.884988,8.884361874050027,0.11177737318192851
15.887367999999997,8.909686543903408,0.11173926185915121
15.889764,8.930075846704176,0.111747091068052
15.892148,8.950325379878082,0.11176077219713662
15.894528,8.966570711559154,0.11181305048816499
15.896927999999996,8.984026748053727,0.1118479984509967
15.899311999999997,9.003624654921577,0.11185953825042132
15.901696,9.023362331416285,0.11186598777152407
15.904092,9.04724397903069,0.11183059665715009
15.906479999999997,9.068052590712037,0.11182574155998985
15.908876,9.089420280900827,0.11180005338889897
15.911271999999997,9.112929841462892,0.11175090754900133
15.91366,9.140071516465454,0.11165105672960408
15.916039999999995,9.173778572214708,0.11147683802855343
15.918436,9.207904936844542,0.11128879447841027
15.920823999999996,9.242730149608681,0.11107783183706446
15.923207999999995,9.273318843454504,0.11088299578325705
15.925604,9.31033314842016,0.1106220592554182
15.927988,9.35163119413237,0.11031709750145875
15.930368,9.395210879844715,0.10998286965827965
15.932764,9.4417710536915,0.10959784304842775
15.935156,9.484746334926033,0.10923131955315617
15.937536,9.527069989854507,0.10885786717960423
15.939932,9.568230161797727,0.10847187012342097
15.942319999999995,9.611951512994803,0.10804934589139321
15.944716,9.64887516601971,0.10767981464764939
15.947111999999995,9.680211825685948,0.10734863600373365
15.9495,9.707823823113072,0.10704108036407883
15.951884,9.728777891994888,0.1067805280941454
15.954279999999995,9.748428708264589,0.10651029299373413
