Time,Force,Position
19.21844,0.007883695895799922,0.0
19.220836,0.004402070845914051,0.0
19.223223999999995,0.0010602154228883892,0.0
19.225604,0.0,0.0
19.228008,0.0026902291169677607,0.0
19.230396,0.006451393420574051,0.0
19.232776,0.012214658470597193,0.0
19.23518,0.020119793893897394,0.0
19.237568,0.02830446857091802,0.0
19.239951999999995,0.03821170474063507,0.0
19.242348,0.048118940910352126,0.0
19.244732,0.05681547226657044,0.0
19.247116,0.06444106843615022,0.0
19.249512,0.06913339829953483,0.0
19.2519,0.07168385778964238,0.0
19.25428,0.07423431727974994,0.0
19.256676,0.07664500714299728,0.0
19.259063999999995,0.08105779775266148,0.0
19.261444,0.08346848761590882,0.0
19.263839999999995,0.08466847266565743,0.0
19.266228,0.08466847266565741,0.0
19.268612,0.08466847266565741,0.0
19.271016,0.08466847266565743,0.0
19.273404,0.08466847266565743,0.0
19.275784,0.08197824354868966,0.0
19.278184,0.07821707924508337,0.0
19.280572,0.07245381419506021,0.0
19.282951999999995,0.06454867877176002,0.0
19.285348,0.0563640040947394,0.0
19.287735999999995,0.04645676792502235,0.0
19.290116,0.03654953175530529,0.0
19.292511999999995,0.027853000399086964,0.0
19.2949,0.020227404229507185,0.0
19.29728,0.015535074366122576,0.0
19.299679999999995,0.012984614876015025,0.0
19.302068,0.010434155385907473,0.0
19.304448,0.008023465522660133,0.0
19.306844,0.0036106749129959396,0.0
19.309232,0.0011999850497485993,0.0
19.311616,0.0,0.0
19.314012,0.0001290498631100686,0.0
19.3164,0.00426230121905384,0.0
19.318784,0.009326718134775931,0.0
19.32118,0.01532230061027634,0.0
19.323568,0.023971610138251505,0.0
19.325952,0.0336918548528652,0.0
19.328348,0.04634536587367406,0.0
19.330735999999995,0.05792794170784439,0.0
19.333116,0.06951051754201473,0.0
19.335516,0.0821640285628236,0.0
19.337903999999995,0.09295520846407582,0.0
19.3403,0.10574848911174489,0.0
19.342696,0.11947293531919229,0.0
19.345088,0.1310555111533626,0.0
19.347468,0.1415671518008944,0.0
19.349868,0.15380135394112265,0.0
19.352256,0.16310228977515573,0.0
19.354636,0.1691904200492732,0.0
19.357036,0.17434738476361233,0.0
19.359424,0.18057528466459005,0.0
19.361804,0.1877450698890962,0.0
19.364204,0.18890855287435182,0.0
19.366588,0.18820970474005078,0.0
19.368972,0.18858179179238826,0.0
19.371368,0.18350665511291603,0.0
19.373756,0.17736058324680526,0.0
19.37614,0.17042311544777633,0.0
19.378536,0.1653479787683041,0.0
19.380924,0.16013307246197167,0.0
19.383308,0.14984302947616693,0.0
19.385704,0.14127554798305872,0.0
19.388092,0.12848226733538967,0.0
19.390476,0.11475782112794228,0.0
19.392872,0.10317524529377192,0.0
19.39526,0.09266360464624013,0.0
19.397644,0.08042940250601188,0.0
19.40004,0.07112846667197883,0.0
19.402428,0.06610055182074975,0.0
19.404808,0.060943587106410596,0.0
19.407208,0.05656729856123941,0.0
19.409596,0.050188909269651374,0.0
19.411976,0.04489217492845202,0.0
19.414376,0.043728691943196424,0.0
19.416764,0.03736102241535854,0.0
19.419148,0.03391589942996568,0.0
19.421544,0.03219333793726925,0.0
19.423932,0.027909597190715122,0.0
19.426316,0.021623755697744145,0.0
19.428712,0.016501397190028765,0.0
19.431104,0.020131615772655743,0.0
19.433488,0.029441375512569704,0.0
19.435884,0.04581575705675338,0.0
19.438272,0.06661175311648213,0.0
19.440652,0.09248098999781386,0.0
19.443048,0.12207299326038966,0.0
19.445436,0.15683078514318546,0.0
19.447816,0.20015226680335108,0.009412823489401416
19.450216,0.2518611665495332,0.019080309260430698
19.452604,0.3173832685860413,0.028643035462507068
19.454984,0.392828358746159,0.038410025461000114
19.457384,0.4869382943564786,0.047941798120173504
19.459772,0.5996551338250066,0.057442186840324136
19.462156,0.7277402892910847,0.06698101542021358
19.464552,0.8839763216386317,0.07626913380389577
19.46694,1.0652644126338497,0.08542332694858908
19.469324,1.275458274378962,0.09431492410089404
19.47172,1.512416036500691,0.10315766341837755
19.474108,1.7789311956783718,0.11190552687362174
19.476488,2.071466081127995,0.12057674264654658
19.478884,2.38415416023717,0.12923879351895892
19.481272,2.72085986487187,0.13780936537616606
19.483652,3.083073439099315,0.14629542920163385
19.486056,3.472424896613583,0.1546818031396829
19.488444,3.8890540070415356,0.1629767944853659
19.490824,4.33524241038331,0.1711814681852346
19.49322,4.811828724400066,0.17927008369135183
19.495612,5.313739708270203,0.17783209740824368
19.497992,5.835715129717014,0.1760735726320437
19.500392,6.373286152396711,0.17435393800030632
19.50278,6.927198846271837,0.172355876365494
19.505164,7.489539252013211,0.1705223091494085
19.50756,8.05933087809068,0.16864470056491007
19.509948,8.634805837041174,0.16664478913977843
19.512332,9.207770630281793,0.16481027106107662
19.514728,9.77203385997605,0.16305825161231804
19.517116,10.31483874754077,0.161564898517581
19.519496,10.843961378536147,0.1600805185037427
19.521892,11.357259882588897,0.15865592639923765
19.524284,11.853616102684143,0.15729933922680503
19.526664,12.341457750688132,0.15589256854426525
19.52906,12.808400135070023,0.15457081854791843
19.531448,13.254071168777484,0.15331735060960283
19.533832,13.678470851810507,0.1521358112964364
19.536228,14.078154061183707,0.15103120346910484
19.538616,14.452748709844741,0.14998996642535317
19.540996,14.800112927420336,0.1490352035061082
19.543396,15.11954786577619,0.14817103597367237
19.545784,15.418130762338187,0.1473213330259521
19.548164,15.695162768972029,0.14649685386751055
19.550564,15.9491536416105,0.14571311991275568
19.552952,16.177122892119158,0.1449970761192561
19.555332,16.382236104229676,0.14433776618802635
19.557736,16.562164416113674,0.1437671136524302
19.560123999999995,16.721516433741808,0.1432721991858183
19.562508,16.867042633457988,0.14281742460390254
19.564904,17.00591280048673,0.14235835660834606
19.567291999999995,17.13621738188024,0.14192755815721528
19.569676,17.260377787265504,0.1415021559620324
19.572072,17.38216590070988,0.1410427764894514
19.574459999999995,17.490360513667788,0.14062913339558558
19.576844,17.59217863319198,0.14020420565211977
19.57924,17.688691194469094,0.13976183545558296
19.581627999999995,17.774683291192797,0.13933723344363183
19.584008,17.853227959296138,0.13890843370572434
19.586408,17.921764019525263,0.13849963035594076
19.588795999999995,17.979360306320395,0.13811495919703548
19.591176,18.026249137107015,0.1377626832489194
19.593576,18.062662829310597,0.13745479202941824
19.595963999999995,18.09125510998361,0.13717895551231585
19.598348,18.11267760543212,0.13693530305029689
19.600744,18.134519409761207,0.13668299454199925
19.603131999999995,18.154498882970742,0.13644062032499027
19.605516,18.17890186655369,0.1361656642418205
19.607912,18.201861827897666,0.1358915841769375
19.610299999999995,18.221795975136825,0.13562156851916374
19.612684,18.24233642271167,0.13532505110010895
19.61508,18.257384320584332,0.13502424931200482
19.617467999999995,18.26265592800825,0.13474871225253754
19.619848,18.257871705729716,0.13450410018604506
19.622248,18.247035855241556,0.13426567259564862
19.624635999999995,18.232662333969383,0.13402593151387632
19.627016,18.210327631539787,0.13381662883912537
19.629416,18.185386423885962,0.13360091009155955
19.631803999999995,18.157931258806528,0.1333918129443347
19.634184,18.131966337794307,0.13316599962032524
19.636579999999995,18.105210020849167,0.1329407379684055
19.638968,18.085019084650718,0.1326680449359915
19.641352,18.062174421399796,0.13240453914807757
19.643747999999995,18.037095339976972,0.13214157387745082
19.646136,18.0120634803824,0.13186150133565058
19.648516,17.986566985936868,0.13156022822286628
19.650915999999995,17.956881194401277,0.13125475499348677
19.653304,17.918070738723,0.13097254982839596
19.655684,17.873348424461955,0.13069146494512204
19.65808,17.826578683484122,0.1303909809566745
19.660468,17.771847761348866,0.13011909604786978
19.662848,17.715534047347777,0.12984829148725213
19.665248,17.65763754148085,0.12957866158687117
19.667635999999995,17.598018474121226,0.12931309481194242
19.670016,17.53853917638846,0.12904290632060078
19.672416,17.4761266123495,0.12878706831078773
19.674803999999995,17.415716149056955,0.12851788993966246
19.677188,17.354606837630115,0.1282621180718048
19.679584,17.29535985732283,0.1279960458382418
19.681976,17.233039841082483,0.12774740081781472
19.68436,17.17193052965564,0.12748676675940598
19.686755999999995,17.104395607108966,0.12726860774451057
19.689148,17.042075590868624,0.12701504286757495
19.691528,16.98254907130761,0.12674689028337252
19.693924,16.925676278799077,0.12646701425815765
19.696312,16.864100436663406,0.1262238438096533
19.698696,16.80461924307278,0.12598140493880375
19.701092,16.750026194706514,0.12572692455586165
19.70348,16.699762213057177,0.12547286661258633
19.705867999999995,16.648612391818435,0.12525313784247816
19.708272,16.602071176550343,0.12502803884279878
19.710664,16.559067632066263,0.12480513445057546
19.713044,16.523466190232163,0.12456437926379192
19.715444,16.49261312399557,0.12431556436333702
19.717832,16.46678797261021,0.12405269360554118
19.720216,16.447853067195634,0.12376752042292316
19.722615999999995,16.431524667005288,0.12348959538993141
19.725007999999995,16.421295116852814,0.12319097747542145
19.727391999999995,16.411158114498953,0.12290639535105478
19.729788,16.405117861436544,0.12261260503776698
19.732175999999995,16.399682012851947,0.12233763813790643
19.734556,16.399553618372305,0.12204296253831273
19.736956,16.398027527624055,0.12177939611437398
19.739344,16.39659398467443,0.12153014600431711
19.741724,16.392831579896416,0.12131594979538558
19.744124,16.39609919071605,0.12107751130152168
19.746512,16.404534486013773,0.12082395022334903
19.748892,16.416926760976096,0.12056593312979756
19.751292,16.43197276299088,0.12029897140606269
19.75368,16.45288529761806,0.12000135152993767
19.756063999999995,16.471795731498826,0.11971469740995769
19.75846,16.489914769446674,0.11942934684837679
19.760852,16.50565961959576,0.11914770151671089
19.763231999999995,16.519542138625297,0.11887425153751735
19.765628,16.533005348774253,0.1186109468473936
19.768016,16.542464357430372,0.11837015697701658
19.770399999999995,16.552202905340216,0.11812353666123476
19.772796,16.5600791221305,0.11788548464854907
19.775188,16.56916604373428,0.11763760527817016
19.777567999999995,16.58011529645762,0.11738265566997691
19.779964,16.595348289927514,0.11710040125928538
19.782352,16.61030174414369,0.11682463438095488
19.784735999999995,16.62753683836,0.11653244241877853
19.787132,16.648915903696004,0.11621696211635904
19.78952,16.672716378659004,0.11588170739420643
19.791903999999995,16.69479429212931,0.11555211802087684
19.794308,16.713007773733644,0.11524162016404658
19.796692,16.726984736419663,0.11494150482770762
19.799076,16.739239137612987,0.11464626451254299
19.80148,16.74790864619406,0.11436329779922504
19.803864,16.765377953693715,0.11403944765216122
19.806244,16.78405796600687,0.11370648399594172
19.80864,16.804181000559005,0.11337586822201244
19.811028,16.830170567723528,0.11301901497877663
19.813407999999995,16.852575242275798,0.11267368218028617
19.815808,16.876050852014707,0.11232171261327932
19.818192,16.89952646175361,0.11197044685146311
19.820576,16.91913763962655,0.11163600031565506
19.822972,16.93767788231284,0.11130850078605996
19.82536,16.951562297200248,0.1109989560542166
19.82774,16.964655316154726,0.11069119373262663
19.830136,16.98030951436307,0.1103627899584278
19.832524,16.993449755145804,0.11003926009510012
19.834903999999995,16.999652528129502,0.10974873404698408
19.837308,17.00799717148648,0.1094463714676114
19.839696,17.013688087790985,0.10915109514498156
19.842076,17.020589708908986,0.10884680362262521
19.844472,17.02921389151968,0.10853877914651928
19.84686,17.040119714130515,0.10821591941020693
19.849239999999995,17.053958803047546,0.10788064561271997
19.85164,17.056344365993517,0.10759110462529108
19.854028,17.057379454499127,0.10731364006993681
19.856407999999995,17.05697152076576,0.10703426434073204
19.858804,17.049905658487084,0.10678068085010399
19.861192,17.04484189695483,0.10651740551399068
19.863575999999995,17.042711401728766,0.10624199232943085
19.865972,17.03885834501001,0.10596995885614066
19.86836,17.041011590530502,0.10567027698811328
19.87074,17.043304605677857,0.10536770121506212
19.873135999999995,17.047599721571626,0.10505561939484959
19.875524,17.046028304853003,0.10476772711519193
19.877908,17.04059245626841,0.1044954116290525
19.880303999999995,17.034737298803236,0.10423128687010239
19.882692,17.031024011711335,0.10395453860011317
19.885072,17.01958186088749,0.10370784415272397
19.887468,17.012143911556485,0.10344292240077478
19.889855999999995,17.000981299986357,0.10318981497233039
19.89224,16.989446601363895,0.10292817521185742
19.894636,16.975909801995016,0.1026754445622527
19.897023999999995,16.957717174827245,0.1024373016533257
19.899404,16.946601785085363,0.10216617356332948
19.9018,16.936185243477784,0.10188052895244097
19.904188,16.926048241123926,0.10158898861257529
19.906572,16.915911238770065,0.10129667334109883
19.908968,16.90805587641634,0.10099006974646124
19.911356,16.89675539107723,0.10068949401642888
19.913736,16.887736545738257,0.10037444237702185
19.916136,16.874061872600386,0.1000736137390355
19.918524,16.861737673902873,0.09976134490828494
19.920904,16.85062418001886,0.09944053689730586
19.923303999999995,16.84458582281432,0.0990965791989591
19.925692,16.835474429676726,0.0987656419378416
19.928076,16.827713510979486,0.09842303215296512
19.930471999999995,16.821163297095747,0.09807166342977147
19.93286,16.8204796158244,0.09769713902199367
19.935244,16.812718697127163,0.09735263332542919
19.937648,16.808030814362983,0.0969935121043746
19.940031999999995,16.799990356412028,0.09665335769760927
19.942416,16.788876862528014,0.09632639755247169
19.944812,16.781488030883114,0.09598803296161629
19.947199999999995,16.7708863936783,0.09566635567283494
19.94958,16.758934282033124,0.09535554475277842
19.951975999999995,16.743629595201174,0.09506343423906974
19.954364,16.73032700911564,0.0947625918984531
19.956748,16.712740682283552,0.09448341274901624
19.959143999999995,16.696225290638104,0.09419827939648398
19.961532,16.67649709343274,0.09392898709881839
19.963912,16.661564493653128,0.09364373741699208
19.966308,16.641277217940324,0.09338478323423903
19.968696,16.6189878414811,0.09313331796195747
19.971076,16.599491961701215,0.09287440923832371
19.973472,16.588935650466773,0.0925816505068847
19.97586,16.57851910885919,0.09228587888454444
19.97824,16.565541387997754,0.0920085797740323
19.98064,16.550142257509318,0.09174716545089377
19.983024,16.54261176037969,0.09145733716673317
19.985404,16.538386616608594,0.09116679768030156
19.987812,16.53895707026325,0.09086122697715318
19.990196,16.544323121343655,0.09054073407505586
19.99258,16.548990324289765,0.0902345998278093
19.994976,16.55416938391507,0.08993430446226101
19.997364,16.561210774659934,0.0896293888877328
19.999744,16.576632655442797,0.08930415187374906
20.00214,16.596710364024553,0.08896881850445607
20.004528,16.621164361151482,0.08862794248532864
20.006908,16.647713006823444,0.08829531993976693
20.009308,16.680640041786994,0.08795083915711033
20.011692,16.70714146563072,0.0876366800913784
20.014088,16.7421631491393,0.0873002919760261
20.016484,16.781281581939336,0.08696509167151517
20.018871999999995,16.815045338806183,0.08665577122017289
20.021252,16.841964175672615,0.08638522612669343
20.023648,16.87111743071094,0.08612025254007477
20.026036,16.907068383921434,0.0858357803835834
20.02842,16.950236344184674,0.08552457169347795
20.03082,16.99377639150026,0.08522422458015821
20.033207999999995,17.03545410769628,0.08492974598849731
20.035592,17.07564157982509,0.08464900683226961
20.037988,17.115409743073307,0.08437751577654319
20.040375999999995,17.155597215202118,0.08409855443043326
20.042756,17.20179098957017,0.0838013367130024
20.045156,17.250358951736978,0.0835077972358756
20.047543999999995,17.294131316478037,0.0832284611656121
20.049924,17.331478070099266,0.08297754224414482
20.052324,17.367242031854655,0.0827260717574589
20.054711999999995,17.39979318805013,0.08248868178677538
20.057092,17.4244757108868,0.0822745558851354
20.059487999999995,17.456095701522493,0.08203981526209925
20.061876,17.484642656225134,0.08181713450680224
20.06426,17.512537984621716,0.08159226288628664
20.066655999999995,17.543366579324495,0.08135965687606213
20.069044,17.57889822365441,0.08110209525720265
20.071428,17.61149660167813,0.08085315199525474
20.073823999999995,17.641301483022513,0.08061096410725355
20.076212,17.663749587687285,0.08039747541711123
20.078596,17.68582560529972,0.08017657557596958
20.080991999999995,17.70575975253888,0.0799645905570119
20.08338,17.728255079031896,0.07973712282384554
20.085764,17.750098779218856,0.07950674810490867
20.088159999999995,17.773804810525373,0.07927386412624955
20.090548,17.791784078846355,0.07905438797446311
20.092932,17.807249389741727,0.07883539198054776
20.095327999999995,17.82192330470418,0.07861568177424869
20.097716,17.841300269293765,0.0783723192435625
20.1001,17.861748169069998,0.07812552837548274
20.102495999999995,17.8838260825403,0.07786478037188893
20.104884,17.913121003063353,0.07758095102677634
20.107268,17.94162452765349,0.07729769156429235
20.109663999999995,17.96868503000465,0.07701049702667159
20.112055999999995,17.994954136422894,0.07672346734860677
20.114436,18.021363012467994,0.0764348162955107
20.116831999999995,18.048563284446015,0.07614880331669814
20.11922,18.078836592357092,0.07585418799356781
20.1216,18.106036864335113,0.07556912141221851
20.123999999999995,18.136589711499912,0.07527024336612448
20.126384,18.163929753104792,0.07498383364758618
20.128768,18.192480499523178,0.07469141937582391
20.131164,18.21874960594142,0.07441012110160712
20.133551999999995,18.247020813106076,0.07412462292353254
20.135936,18.274640393964674,0.07383679577343145
20.138332,18.305193241129473,0.07354339796979963
20.140719999999995,18.33602562754799,0.07324589870173637
20.1431,18.368860114712923,0.07294409984439787
20.1455,18.398062487437358,0.07266147276439185
20.147884,18.424191824228746,0.07238789342732976
20.150284,18.449250225833488,0.07211842418158783
20.15268,18.472306526691813,0.07185510922007263
20.155068,18.493360726803726,0.07159744875599698
20.157447999999995,18.517208423594973,0.07133692555771623
20.159844,18.536120753333606,0.07108714972129701
20.162232,18.55317075195268,0.07084013964018201
20.164612,18.566356318705786,0.07060082385922221
20.167012,18.576888158406412,0.07036304543745207
20.1694,18.594637005159793,0.07010633322118776
20.171783999999995,18.612385851913167,0.06985040095864006
20.17418,18.63134540348004,0.06958894083465321
20.176568,18.651375890233552,0.06932467405517342
20.178951999999995,18.669544045867514,0.06906261201488631
20.181348,18.68463916556842,0.06880896842577473
20.183736,18.69852358045582,0.06856163657816147
20.186116,18.708264024223528,0.06832574152253186
20.188516,18.717585159110655,0.06809718270989572
20.190904,18.72569558918429,0.06787468786877164
20.193284,18.734365097765362,0.06764285238224796
20.195688,18.746759268585546,0.06740732773530064
20.198076,18.762878101644848,0.06716851952989852
20.200456,18.77685506433087,0.0669366317417298
20.202852,18.787898760710696,0.0667098403632484
20.20524,18.79493825559769,0.06649171178808207
20.207624,18.80677334791043,0.06626653960354441
20.21002,18.820331001715868,0.06604213772361295
20.212412,18.83789285701414,0.06581016925990907
20.214792,18.859179374551527,0.0655753860289906
20.217192,18.87445958984967,0.0653537124894325
20.21958,18.888808639588028,0.06513341919748754
20.22196,18.901946984512886,0.06491874997111431
20.22436,18.914014394251105,0.06470763998748247
20.226748,18.930086005482163,0.06448904071051373
20.229132,18.946576925593796,0.06426377893384816
20.231528,18.959203413839457,0.0640438139154128
20.233916,18.974251311712116,0.06381327474577009
20.2363,18.987576648092077,0.06358208107457511
20.2387,18.99838802704643,0.06334859729544916
