Time,Force,Position
19.105536,0.06570549873682202,0.0
19.107932,0.07832445568377068,0.0
19.110319999999994,0.09201434781735789,0.0
19.1127,0.10384190883138844,0.0
19.115096,0.11073410279280697,0.0
19.117484,0.12149072862019901,0.0
19.119868,0.13224735444759103,0.0
19.122264,0.14286421064812288,0.0
19.124652,0.15264239695472986,0.0
19.127036,0.15920777770142125,0.0
19.129432,0.1671236328884716,0.0
19.13182,0.17024389064977014,0.0
19.134204,0.17215344359756993,0.0
19.1366,0.17271252210501076,0.0
19.138988,0.1732716006124516,0.0
19.141368,0.16661367206714314,0.0
19.143767999999994,0.16223738352197195,0.0
19.146152,0.16600926758932838,0.0
19.148551999999995,0.16591671979071135,0.0
19.150948,0.16489300643231597,0.0
19.153336,0.1605167178871448,0.0
19.155716,0.14943527896842201,0.0
19.158112,0.1357453868348348,0.0
19.1605,0.12480371754297222,0.0
19.162884,0.12079951605013853,0.0
19.16528,0.11004289022274648,0.0
19.167668,0.10017215611752243,0.0
19.170048,0.09137235719893691,0.0
19.172448,0.08061573137154487,0.0
19.174836,0.07093004073079139,0.0
19.177216,0.06478396886468063,0.0
19.179612,0.057566961811931334,0.0
19.181999999999995,0.05142088994582057,0.0
19.18438,0.04834785401276518,0.0
19.18678,0.04327271733329295,0.0
19.189164,0.03973309855865022,0.0
19.191548,0.037451458558512944,0.0
19.193943999999995,0.031165617065541974,0.0
19.196332,0.02981514262518302,0.0
19.198716,0.024925049410181335,0.0
19.201116,0.02110589138181818,0.0
19.203503999999995,0.019568373353592298,0.0
19.205884,0.019568373353592298,0.0
19.208284,0.018682481631424313,0.0
19.210671999999995,0.015794489162839476,0.0
19.213055999999995,0.015794489162839476,0.0
19.21546,0.014908597440671491,0.0
19.217848,0.013091540158725188,0.0
19.220228,0.013091540158725188,0.0
19.222624,0.013091540158725188,0.0
19.225012,0.010483086943860773,0.0
19.227396,0.009876734475413209,0.0
19.229792,0.008339216447187324,0.0
19.23218,0.005870532859183118,0.0
19.234564,0.004333014830957233,0.0
19.23696,0.004333014830957233,0.0
19.239348,0.002935266429591559,0.0
19.241732,0.0024686835880042054,0.0
19.244128,0.0,0.0
19.246516,0.0,0.0
19.2489,0.0,0.0
19.251296,0.0,0.0
19.253684,0.0,0.0
19.256063999999995,0.0,0.0
19.25846,0.0,0.0
19.260852,0.0,0.0
19.263231999999995,0.0,0.0
19.265632,0.0,0.0
19.26802,0.0,0.0
19.270399999999995,0.0,0.0
19.2728,0.0,0.0
19.275188,0.0,0.0
19.277572,0.0,0.0
19.279968,0.0,0.0
19.282356,0.0,0.0
19.284735999999995,0.0,0.0
19.287136,0.0,0.0
19.289524,0.0,0.0
19.291903999999995,0.0,0.0
19.2943,0.0,0.0
19.296688,0.0,0.0
19.299071999999995,0.0,0.0
19.301476,0.0,0.0
19.303864,0.0,0.0
19.306248,0.0,0.0
19.308644,0.0,0.0
19.311032,0.0,0.0
19.313416,0.0008858917221679841,0.0
19.315812,0.000885891722167984,0.0
19.3182,0.000885891722167984,0.0
19.320584,0.0008858917221679841,0.0
19.32298,0.0008858917221679841,0.0
19.325368,0.0008858917221679841,0.0
19.327752,0.0008858917221679841,0.0
19.330148,0.0008858917221679841,0.0
19.332539999999995,0.0008858917221679841,0.0
19.33492,0.0008858917221679841,0.0
19.337316,0.0008858917221679841,0.0
19.339704,0.0008858917221679841,0.0
19.342084,0.0031675838550688272,0.0
19.344484,0.003167583855068827,0.0
19.346872,0.004842975652285678,0.0
19.349252,0.0080539374870956,0.0
19.351652,0.014802570105915448,0.0
19.35404,0.023598629441526044,0.0
19.35642,0.03602490735976363,0.0
19.358819999999994,0.05301256942040651,0.0
19.361208,0.07218547983406756,0.0
19.363588,0.10118195465747307,0.0
19.365987999999994,0.1382774844072938,0.0
19.368376,0.183704386509007,0.00965481100366716
19.370756,0.2431422021198997,0.018733796383439638
19.373155999999994,0.31789418385208773,0.02745574237915662
19.375544,0.4081926491310482,0.036039575359829525
19.377928,0.5173429513153139,0.04439767574770412
19.380323999999995,0.6440871637631428,0.05279924098184509
19.382712,0.7850254894595162,0.06153880946586392
19.385096,0.9474674832558003,0.07026932954034736
19.387491999999995,1.1326691759358676,0.07907141285276488
19.38988,1.345658430218184,0.08771954191142567
19.39226,1.5963060844735004,0.09613787892710518
19.394659999999995,1.870504781412755,0.10464286158344221
19.397048,2.1734694794750427,0.11309752139322357
19.399428,2.505572265712702,0.12148687039742544
19.401827999999995,2.8692345497527305,0.1298075527420058
19.404216,3.2627337701024315,0.138077989139457
19.4066,3.6860699267618044,0.1462935053050971
19.408995999999995,4.140221407118871,0.15445535866775584
19.411387999999995,4.620532383374741,0.16254909004566628
19.413768,5.1276091558650965,0.17056710948740084
19.416168,5.655120557126595,0.16891213631370053
19.418555999999995,6.193709605591078,0.16782696755074006
19.420936,6.741980500847813,0.1670744487197771
19.423331999999995,7.300260003978764,0.1664201465379076
19.42572,7.863939509013281,0.165953197330642
19.428104,8.43339299886157,0.1653934528341134
19.430499999999995,9.014349132367034,0.16440385290693948
19.432888,9.595681144640572,0.16334830393263808
19.435272,10.170965320420224,0.16217779522095738
19.437667999999995,10.73186839149623,0.16111075873563274
19.440056,11.268054988912407,0.16024745227210557
19.442436,11.79181725640098,0.15925327755738236
19.444835999999995,12.298219826909339,0.15826320939724658
19.447224,12.784376655959528,0.157289368262452
19.449604,13.247913555752795,0.1563378110503831
19.452003999999995,13.687387504050157,0.15539570756235543
19.454392,14.10107593935893,0.15447076819869576
19.456776,14.489630487985165,0.15355933388293005
19.459171999999995,14.845042746943191,0.15271923355788056
19.46156,15.170618069591546,0.15193617546712151
19.46394,15.47524880264743,0.151137505686672
19.466336,15.76354355208149,0.150306649609517
19.468723999999995,16.03280136901301,0.14947752311294674
19.471108,16.28539644124075,0.14864830277387084
19.473504,16.518767589510844,0.14784039404407662
19.475891999999995,16.73272782236819,0.14707267469295077
19.478276,16.92788154429061,0.1463705890255658
19.480675999999995,17.10390199419613,0.1457451723181777
19.483064,17.268657805443564,0.14513797608777035
19.485448,17.420099655458245,0.14457603112801543
19.487848,17.56725966058425,0.14401077833033593
19.490236,17.707623863395952,0.1434538854580287
19.492619999999995,17.83718806240052,0.14292851276424473
19.495016,17.955812487971095,0.1424363882721635
19.497404,18.065871327906432,0.14197042229791731
19.499787999999995,18.16815597813945,0.14152671622285587
19.502184,18.26317829534934,0.14110792094156827
19.504576,18.34786524360306,0.14073244265398957
19.506955999999995,18.437022924058432,0.14031073840678768
19.509356,18.52464503447621,0.13988085527336871
19.511744,18.608077847803926,0.1394553481102567
19.514128,18.687972990347625,0.13903596005692428
19.516528,18.76311975729382,0.13862956820003317
19.518916,18.82965371677653,0.13825768989146972
19.5213,18.89358117103501,0.1378836438411115
19.523696,18.959046091188952,0.13748188994586888
19.526087999999994,19.01804007425269,0.13709823615830652
19.528472,19.078990832092465,0.1366778648532403
19.530868,19.133330883215176,0.1362772626224525
19.53326,19.184133263553882,0.13587647134091602
19.535644,19.229535641989017,0.1354862258257235
19.538048,19.269490796692345,0.13512110324747534
19.540432,19.30814269878356,0.1347545901176081
19.542812,19.34800530568827,0.13437997873428717
19.54522,19.38414325035387,0.13402277533872423
19.547604,19.42000165576574,0.13367217465538198
19.549988,19.456139600431342,0.13331720291343999
19.552384,19.49749245140327,0.13293154062400497
19.554768,19.533118539389672,0.13257567500633988
19.557151999999995,19.567813461816293,0.13222582877324793
19.559548,19.598504182750077,0.13189867813664208
19.561936,19.624027219205775,0.1315889967138409
19.564316,19.651320038982416,0.13126044851848334
19.566711999999995,19.679591246147073,0.13091384652762053
19.5691,19.704696869580058,0.1305730297703514
19.57148,19.723563873348315,0.13025559127520894
19.57388,19.745690904504738,0.12990506667977872
19.576263999999995,19.762510481556205,0.129573520691907
19.578648,19.784544964914005,0.12921324303119275
19.581044,19.81114272827208,0.1288229385605647
19.583431999999995,19.83802003088388,0.12842839013061338
19.585812,19.865735951256838,0.1280190178284097
19.588207999999995,19.892940014950593,0.12760625743521786
19.590596,19.9160473293529,0.1272023425532365
19.59298,19.941855592635925,0.12677577198892404
19.595375999999995,19.962263854015386,0.126353747179412
19.597764,19.976992574237563,0.1259414950771176
19.600144,19.98403965255604,0.12554927008086275
19.602543999999995,19.98540718971722,0.12516616589280144
19.604928,19.97816191941492,0.12480584193139135
19.607312,19.96910153982131,0.12443758831868494
19.609708,19.955804641309385,0.12407883050639539
19.612096,19.937479827946234,0.12373119421290903
19.61448,19.91664105715747,0.12338874636819748
19.616876,19.895290429689503,0.12304135972186517
19.619264,19.87328817591548,0.12269162666476623
19.621644,19.845279619902204,0.12237068248463151
19.624044,19.816898976836594,0.1220420122624499
19.626428,19.782279714106256,0.12173230751987148
19.628812,19.743144393203888,0.1214367657939094
19.631208,19.69949301412948,0.12115502258656541
19.633596,19.65132557688305,0.12088686821333967
19.63598,19.60078395183786,0.12062008490077022
19.63838,19.54824022604626,0.12036155713070187
19.640764,19.491180442082623,0.12011629760816453
19.643148,19.439707651477654,0.11984920654180543
19.645544,19.39088858792516,0.11957312768010467
19.647932,19.347656517731338,0.11927541563625098
19.650312,19.30894050570955,0.11896199400570111
19.652708,19.27595125667329,0.11862415500012911
19.655096,19.246966209129862,0.118266705449866
19.657476,19.222916528639047,0.11788608166278686
19.659876,19.19951847445429,0.11750624808303002
19.662264,19.176120420269537,0.11712546230138716
19.664648,19.15244282683106,0.11674897613233669
19.667044,19.1319780389525,0.11635420146649593
19.669432,19.116588387753414,0.11593476700198158
19.671812,19.098637557300464,0.1155337456470554
19.674208,19.084830697967213,0.11511137052340197
19.6766,19.067671263447185,0.11470780353487704
19.678984,19.051582764113796,0.11429698813243094
19.68138,19.03628566071332,0.11388417626679231
19.683768,19.022571349178683,0.11346933734780953
19.686148,19.010998908017324,0.1130415815753563
19.688548,19.00086948909494,0.11261409973939204
19.690936,18.988877739053002,0.11219298098030656
19.69332,18.977956924197702,0.11176542556491426
19.695716,18.965034008595985,0.11134674189141235
19.698104,18.951971323367406,0.11093019592298889
19.700488,18.93956026444489,0.11051550383918346
19.702884,18.921654759962315,0.11013135516840565
19.705272,18.900396680292967,0.1097661953643515
19.707652,18.879929996556534,0.10939982835166526
19.710052,18.85797306875288,0.10904597337475777
19.71244,18.83480543613573,0.10869938574775985
19.71482,18.806934753891447,0.10838268994567322
19.717216,18.77128798608698,0.10811001485110566
19.719604,18.73922611089476,0.10782700569883916
19.721988,18.701902107567964,0.10758424729822458
19.724384,18.670676954279035,0.10732769057943335
19.726772,18.64140667990828,0.1070772386196622
19.729156,18.617164320388753,0.10681901947930936
19.731552,18.59301450866785,0.10657319072671094
19.73394,18.570540036611394,0.1063391550275857
19.736324,18.550579521980552,0.10610115763966999
19.73872,18.53136318145438,0.1058780777156619
19.741108,18.51582428133909,0.10565886177019898
19.743488,18.49930699383577,0.10545762073244534
19.745892,18.485955290064126,0.1052553138846407
19.74828,18.474698234837515,0.10505760399832663
19.75066,18.469400260021914,0.10485028734062979
19.753056,18.470992531177092,0.10463100667809233
19.75544,18.475331077183366,0.1044189885159267
19.757819999999995,18.48483730766773,0.10419808448064878
19.760224,18.50258425856324,0.1039554035029137
19.762612,18.526569829123478,0.10369891783584015
19.764992,18.56172938640105,0.10340992210132534
19.767388,18.600985692970077,0.10311894267083588
19.769776,18.64904179845769,0.10279672021904171
19.772155999999995,18.69896023506486,0.10247093610938778
19.77456,18.75553660021734,0.10212615657835186
19.776948,18.809831325369675,0.10179573762889407
19.779332,18.86799048238799,0.10145363555133471
19.781728,18.92922267533936,0.10110020482319403
19.784112,18.99497092646276,0.10073888500815709
19.786492,19.063000817586296,0.10036641721250915
19.788892,19.12916837759028,0.10000104679284387
19.79128,19.198129434273593,0.09962849518970185
19.793656,19.26494862058363,0.09926748254113926
19.796052,19.330045245400974,0.09891050688036661
19.79844,19.398634215031954,0.09853667852393543
19.800819999999995,19.461496421677406,0.09818138945832214
19.803216,19.52705957720357,0.09780896693766955
19.805603999999995,19.592762502356596,0.09743610841031639
19.807984,19.653530060457005,0.09708243283956411
19.8104,19.709641790758532,0.09674162411881149
19.812788,19.75658163508913,0.09642311917391524
19.815168,19.803428931621117,0.09609476429857833
19.817564,19.843618299607794,0.09578637850497213
19.819952,19.88022277498221,0.09548582228421353
19.822332,19.907096285878268,0.09521597252901895
19.824728,19.938533076774604,0.09492406606370514
19.827116,19.970389176551514,0.09462678696658783
19.829496,20.001733419649224,0.09432618430816392
19.831912,20.02777020864199,0.0940351322131898
19.8343,20.048871630582145,0.09375984433333652
19.83668,20.07053213102974,0.09347595146184576
19.839076,20.096755911477608,0.09317107264455197
19.841463999999995,20.124330166365834,0.09285771777395434
19.843848,20.154186061254197,0.0925342763576581
19.846244,20.177244257970393,0.09223108417800707
19.848631999999995,20.205657130619784,0.09190684924972842
19.851016,20.23006580177634,0.0915967085512309
19.853412,20.25289168106706,0.09128683019633599
19.855799999999995,20.27613686923836,0.09097055660530307
19.85818,20.3016636974098,0.09064365305018106
19.860575999999995,20.332125892633847,0.09030249376118939
19.862964,20.355510850432005,0.0899846953612691
19.865344,20.379966743416805,0.08966269981489335
19.86774,20.4073559027078,0.08933350097281881
19.870128,20.438237406812426,0.08898680621809459
19.872508,20.462181443118027,0.08866124804859171
19.874904,20.47825684606482,0.08835783051404789
19.877292,20.489536651585865,0.08806640163819238
19.879676,20.49909389561421,0.08777628960122524
19.882072,20.514005815575743,0.08746587032317564
19.88446,20.525844699604228,0.08716583377369144
19.886855999999995,20.528092388781204,0.08688884637910307
19.889252,20.526615415719068,0.08661899762749171
19.891639999999995,20.517269809298124,0.08636990129712084
19.894023999999995,20.505130706197846,0.08612545919280785
19.89642,20.48940671048532,0.08588599952529212
19.898807999999995,20.469026886973896,0.08565475841457665
19.901188,20.44999753790283,0.08541497139287456
19.903583999999995,20.429385396965934,0.0851738074560591
19.905972,20.409052795282758,0.08492802633832403
19.908356,20.38713740173374,0.08468098659095369
19.910751999999995,20.368295044117783,0.08442388609672577
19.91314,20.350663391315322,0.08416048650778303
19.91552,20.330657550714104,0.08389531526018104
19.917919999999995,20.313724746045942,0.08362088565641032
19.920303999999994,20.29693171100464,0.08334354616345084
19.922688,20.28642451745631,0.08304501951652883
19.925084,20.280061295027675,0.08273337950308877
19.927468,20.276351799651515,0.08241909747773658
19.929852,20.266775771662964,0.08211855695688675
19.932248,20.25747928292813,0.08181316794418714
19.934636,20.253118161245915,0.08149519430125554
19.937016,20.25210961475047,0.0811635964282946
19.939412,20.260180406427335,0.08080721088077981
19.941804,20.2711844644104,0.08044335105042211
19.944199999999995,20.27911548646041,0.08008813911649049
19.946596,20.292261414816743,0.07971629452929924
19.948984,20.301263372053388,0.07935730542830491
19.951364,20.310916955596085,0.07900138326849479
19.953768,20.321361935071703,0.07864703432604615
19.956156,20.330596209733823,0.0782986099849746
19.95854,20.339039088463025,0.07794936852443823
19.960936,20.34482824013975,0.0776021100465852
19.963324,20.348335751816343,0.0772641093050546
19.965703999999995,20.3478390620001,0.0769364077052703
19.9681,20.35055517774378,0.07659799858792829
19.970488,20.34898755274089,0.07627379933472533
19.972871999999995,20.344207122178094,0.07596031374607494
19.975268,20.338775065309235,0.07564382024654005
19.977656,20.337486979560072,0.07531535863609401
19.980036,20.338200994557333,0.07498225873820064
19.982436,20.337844074367943,0.07465283683937037
19.984824,20.332551787125947,0.07433354226454665
19.987204,20.322603672085066,0.0740206854999072
19.9896,20.318010232977368,0.07369139666934249
19.991988,20.315418894616087,0.07335697382288452
19.994367999999994,20.307752419575337,0.07303443920105708
19.996768,20.301156879721226,0.07270807129924427
19.999151999999995,20.291767843187777,0.07238457310010162
20.001535999999994,20.276652043668804,0.07206956512700871
20.003932,20.26260717933647,0.07175094102333454
20.006319999999995,20.25070418537741,0.07142562802499569
20.0087,20.241315148843967,0.07110118657550292
20.011104,20.233788443430075,0.07077421889984196
20.013492,20.22798429950888,0.07044726070535101
20.015876,20.22082968114733,0.07012798444697158
20.018272,20.21488576759927,0.0698028227351658
20.020664,20.20894185405122,0.06947729866694387
20.023044,20.202718401249445,0.06915608385444362
20.02544,20.19407353882067,0.06884546143757772
20.027832,20.18435774120526,0.06853803297082121
20.030212,20.173571008403215,0.06823346672515296
20.032612,20.170373369706255,0.06791918926019912
20.035,20.168618753248268,0.06760958429166299
20.03738,20.162440626416867,0.06731495808859234
20.03978,20.159195765891663,0.06701565980984975
20.042168,20.163539999471546,0.06670730606057866
20.044548,20.16867562898435,0.0664002040092106
20.046948,20.180748726296176,0.06608116042523914
20.049336,20.19761742103376,0.06575562920048324
20.05172,20.216488216517753,0.06542703557788604
20.054116,20.230935501628334,0.06511229300605367
20.056504,20.246593491552417,0.06479325568436574
20.058888,20.261599855170445,0.06447087987349255
20.061284,20.278748089161745,0.06414368725567658
20.063672,20.296827488712825,0.06381617408321436
20.066052,20.31676921938346,0.06348757993381805
20.068452,20.33978398598715,0.06315319759446264
20.07084,20.361867587031067,0.06281967590587137
20.07322,20.386093058448253,0.06248090750962747
20.075616,20.410178760238587,0.06214464560718154
20.078004,20.434264462028917,0.0618084097360387
20.080383999999995,20.452343861579998,0.061483001770019786
20.08278,20.46735022519802,0.06116369358167224
20.085168,20.47914378325613,0.06085219524088132
20.087551999999995,20.488795470940964,0.06054662636049956
20.089948,20.494582726759816,0.06024622025665963
20.09234,20.501301148138452,0.05994547970852977
20.094719999999995,20.50173372802412,0.05965888731382785
20.09712,20.50309747346956,0.05937221096320433
20.099508,20.499246312608665,0.05909636215582706
20.101887999999995,20.50140145398703,0.05881116353965869
20.104284,20.499272854618837,0.05853629894556493
20.106672,20.496445407116347,0.05827152630551798
20.109055999999995,20.48453862144155,0.058021012977391984
20.111452,20.47277160539361,0.05776850367307854
20.11384,20.460725050091952,0.05752020500999016
20.11622,20.444115214790017,0.05728588455614823
20.118616,20.43136981135406,0.05704780549628712
20.121004,20.421417904597433,0.056808882889262384
20.123388,20.41118645858709,0.056573929633792035
20.125784,20.405471070748767,0.05633929572722932
20.128172,20.40147824440315,0.056105656465006114
20.130556,20.398416583617305,0.055871243723397246
20.132952,20.399498893951158,0.05562896645763946
20.13534,20.400161895404437,0.055392815896572745
20.137719999999995,20.400405587977133,0.05516278499686332
20.14012,20.400229971669244,0.054939070477666774
20.142508,20.402196225734635,0.05471040325894001
20.144887999999995,20.400670134986385,0.05449296843964208
20.147288,20.403008476104112,0.054272053853407165
20.149676,20.401994242035062,0.05406047006299881
20.152055999999995,20.402842339085566,0.053848083562037706
20.154456,20.40662370244227,0.053632893444157025
20.156839999999995,20.417062994344285,0.05341330198976543
