Time,Force,Position
19.076792,0.0,0.0
19.079176,0.0020719788795269954,0.0
19.081572,0.004283727385914201,0.0
19.08396,0.008637346265578466,0.0
19.08634,0.012059799585464413,0.0
19.088736,0.015622022532210568,0.0
19.091124,0.018253079919178405,0.0
19.093508,0.02088413730614624,0.0
19.095904,0.02337542506625387,0.0
19.098292,0.02786881357277834,0.0
19.100676,0.03450407245257989,0.0
19.103072,0.040068396145742896,0.0
19.10546,0.04842621651824086,0.0
19.10784,0.05678403689073883,0.0
19.11024,0.06113765577040309,0.0
19.112628,0.06563104427692756,0.0
19.115008,0.06705139685039666,0.0
19.117412,0.0704738501702826,0.0
19.1198,0.07096303718397337,0.0
19.12218,0.07238338975744246,0.0
19.124576,0.07273280714427305,0.0
19.126964,0.07087047602471638,0.0
19.129344,0.06865872751832919,0.0
19.131744,0.06430510863866493,0.0
19.134132,0.060882655318779,0.0
19.136512,0.05732043237203284,0.0
19.138916,0.05468937498506501,0.0
19.141304,0.052058317598097176,0.0
19.143684,0.04956702983798955,0.0
19.14608,0.04507364133146507,0.0
19.148468,0.038438382451663526,0.0
19.150852,0.032874058758500524,0.0
19.153248,0.024516238386002545,0.0
19.155636,0.016158418013504573,0.0
19.158016,0.011804799133840308,0.0
19.160416,0.00731141062731583,0.0
19.162804,0.0058910580538467355,0.0
19.165184,0.0024686047339607894,0.0
19.167584,0.0021890654802403688,0.0
19.169972,0.0007687129067712735,0.0
19.172352,0.0004192955199407088,0.0
19.174752,0.0002096477599703544,0.0
19.17714,0.0002096477599703544,0.0
19.17952,0.004283727385914201,0.0
19.18192,0.008218037384997837,0.0
19.184304,0.014154448130498324,0.0
19.186688,0.02209295962241566,0.0
19.189084,0.030171240741193206,0.0
19.191472,0.03731835630019244,0.0
19.193856,0.04660734223246873,0.0
19.19626,0.05682749372452334,0.0
19.198648,0.06797881077635626,0.0
19.201028,0.07913012782818918,0.0
19.203424,0.08413537301391136,0.0
19.205816,0.08699874782635646,0.0
19.208196,0.09079328819857989,0.0
19.210592,0.09537922450372142,0.0
19.21298,0.09996516080886296,0.0
19.21536,0.10219957898075709,0.0
19.21776,0.10357270972598302,0.0
19.220148,0.10601677565784749,0.0
19.222528,0.10645874084329511,0.0
19.224932,0.10645874084329512,0.0
19.22732,0.10238466121735126,0.0
19.2297,0.09845035121826765,0.0
19.232096,0.09251394047276715,0.0
19.234484,0.0845754289808498,0.0
19.236868,0.07649714786207226,0.0
19.239264,0.06935003230307302,0.0
19.241656,0.06006104637079676,0.0
19.244036,0.04984089487874215,0.0
19.246436,0.038689577826909224,0.0
19.248824,0.027538260775076283,0.0
19.251208,0.022533015589354118,0.0
19.253604,0.019669640776909015,0.0
19.255996,0.01587510040468559,0.0
19.258376,0.011289164099544054,0.0
19.260776,0.006703227794402517,0.0
19.263164,0.004259161862538042,0.0
19.265544,0.0028860311173120982,0.0
19.26794,0.00044196518544762324,0.0
19.270328,0.0,0.0
19.272712,0.0,0.0
19.275108,0.0,0.0
19.277496,0.0,0.0
19.27988,0.0,0.0
19.28228,0.0,0.0
19.284668,0.0,0.0
19.287048,0.0,0.0
19.289448,0.0,0.0
19.291836,0.0,0.0
19.294216,0.0,0.0
19.296616,0.0,0.0
19.299004,0.0,0.0
19.301384,0.0,0.0
19.303784,0.0,0.0
19.306172,0.0,0.0
19.308552,0.0,0.0
19.310952,0.0,0.0
19.31334,0.0,0.0
19.315724,0.0,0.0
19.318124,0.0,0.0
19.320512,0.0,0.0
19.322892,0.004725705932001746,0.0
19.325288,0.00838047667736496,0.0
19.327676,0.012966412982506496,0.0
19.330056,0.016481414101009503,0.0
19.332452,0.019205019286594398,0.0
19.33484,0.021928624472179293,0.0
19.337224,0.021928624472179293,0.0
19.33962,0.021928624472179293,0.0
19.342008,0.021928624472179293,0.0
19.344392,0.021928624472179293,0.0
19.346788,0.021928624472179293,0.0
19.349176,0.021928624472179293,0.0
19.35156,0.021928624472179293,0.0
19.35396,0.021928624472179293,0.0
19.356344,0.021928624472179293,0.0
19.358728,0.021928624472179293,0.0
19.361124,0.021928624472179293,0.0
19.363512,0.021928624472179296,0.0
19.365892,0.021928624472179296,0.0
19.368288,0.021928624472179296,0.0
19.370676,0.01720291854017755,0.0
19.373056,0.016362404921147045,0.0
19.375456,0.020782123578822885,0.0
19.377844,0.030462074513205085,0.0
19.380228,0.04642597108268902,0.0
19.382624,0.06746310847377593,0.0
19.385012,0.10146477635014003,0.0
19.387392,0.1478020180712303,0.007804112225997253
19.389788,0.20978018699557943,0.015167308050238974
19.392176,0.2856294998022478,0.022538673509486
19.39456,0.3762339002227707,0.03002501535587105
19.396964,0.4843396631082398,0.03759511028261834
19.399356,0.6126930633097469,0.0452251311585993
19.401736,0.7611071093721887,0.05301556618247893
19.404132,0.9292550402136017,0.06104832735879699
19.40652,1.1217926836328773,0.06913162597622996
19.408904,1.3385330481749125,0.07733447730157425
19.4113,1.584923357571517,0.0855107132332183
19.413688,1.8609636118226898,0.09366605137896271
19.416072,2.171169869100463,0.1017275636278198
19.418468,2.512189554218062,0.10979277941006385
19.420856,2.884421215609067,0.11779616201197021
19.423236,3.2810425895779365,0.12578509037219598
19.425632,3.70712881280414,0.1337132609864602
19.428024,4.157140113757252,0.14162575380776923
19.430404,4.630192548705736,0.14952239405737733
19.432804,5.121957050932666,0.157372807339514
19.435192,5.627592697041916,0.1573787085181347
19.437572,6.139417845129783,0.1578226604214056
19.439972,6.659109730718587,0.15823603541568512
19.44236,7.18368976153176,0.15851526327786453
19.44474,7.710878193427035,0.15865665307114807
19.44714,8.23397177188873,0.15870362985864941
19.449528,8.754135875759966,0.15852829780237204
19.451908,9.270161696085115,0.1580365284770698
19.454308,9.770455937266258,0.15748305242053473
19.456696,10.259257014079575,0.15674365245003571
19.45908,10.72953491092742,0.1559721874811783
19.461476,11.176773569637762,0.15519281441890678
19.463864,11.59021831237384,0.15451600530745255
19.466248,11.974060332083594,0.1538215243090666
19.468644,12.322944952833828,0.15319527267484975
19.471036,12.643250563916128,0.15256692760162882
19.47342,12.92911063271811,0.15200193762884612
19.475816,13.187415405210558,0.1514399065056438
19.478204,13.42347233549842,0.1508485067833087
19.480584,13.632159065073978,0.15029832444696622
19.482984,13.815942329534609,0.14979097042735648
19.485372,13.97840702149256,0.14929140037859068
19.487756,14.12043708467937,0.14881664708549197
19.490152,14.247339973199988,0.14833392660679923
19.492544,14.35836961709187,0.14788577826687727
19.494924,14.45534112564633,0.14747215484197695
19.497324,14.540628686662119,0.14708798183343003
19.499712,14.61148412943028,0.1467840076867558
19.502096,14.679268432123258,0.146455658910837
19.504492,14.734994804367357,0.14619493940323594
19.50688,14.778523476535725,0.14600235755180319
19.509264,14.817443542733441,0.145823254517288
19.511664,14.861066658558293,0.14559568021508085
19.514052,14.904550004756285,0.14537278085745492
19.516432,14.954319192447247,0.14509740418208236
19.518832,15.003296984205294,0.1448259510741624
19.521224,15.056930603762229,0.14452599808142547
19.523608,15.110564223319166,0.1442276345271258
19.526004,15.158331310263709,0.14397449214365984
19.528396,15.206657475715696,0.1437084026434566
19.530776,15.255682489301984,0.1434254529077122
19.533172,15.30605797732863,0.1431266433772548
19.535564,15.357132313489577,0.14281112769994486
19.537944,15.403550821851631,0.14252615680171848
19.54034,15.443730710548962,0.142275006631461
19.542728,15.483026655514756,0.14201153735443586
19.545112,15.516083980815822,0.14178254306314775
19.547508,15.551470167945265,0.14151419022253425
19.549896,15.583039145036981,0.14125568998858332
19.55228,15.615306970262997,0.14098046995139454
19.554676,15.65013597474287,0.14067701901878907
19.557064,15.685524057730186,0.14036159771481257
19.559448,15.713602585866134,0.14008822589342732
19.561848,15.741169257322882,0.13981072465873137
19.564236,15.76380056172702,0.13956924980989519
19.566616,15.785780239825101,0.13932700920326646
19.569012,15.806456665311066,0.13908363549024907
19.571404,15.822756802251861,0.13886021062962844
19.573788,15.838265543259736,0.13863862274056946
19.576188,15.850980787588277,0.13843348374270567
19.578572,15.864115340797397,0.13821908397605692
19.580952,15.87874013807374,0.1379869821343132
19.583356,15.892853078670882,0.13775086419557633
19.58574,15.906593932215689,0.13750647832380072
19.58812,15.919683159454436,0.13725968347265585
19.590516,15.931049825200486,0.13702029403608046
19.5929,15.942835799827117,0.13677067027697457
19.59528,15.94768430665472,0.13656804007273898
19.597676,15.951042569415103,0.13638442802849005
19.600064,15.953469666615709,0.13620627678459618
19.602444,15.955756994189452,0.13603183862496812
19.60484,15.953620811389783,0.1358948500449688
19.607228,15.955069521202368,0.13574048329346475
19.609608,15.95623869176123,0.13559289193449708
19.612012,15.955126222319954,0.13546548336942063
19.6144,15.953734213624962,0.1353448027962355
19.61678,15.94926916899691,0.1352462316835771
19.619184,15.949739491421473,0.13511546066434912
19.621572,15.952351684219312,0.13496790637183942
19.623952,15.95589504257693,0.1348152449804015
19.626356,15.955294429814854,0.1346929557460993
19.628744,15.945894018134192,0.13462620512234125
19.631124,15.933560340147334,0.1345778817291372
19.63352,15.923508302160615,0.13450930621179966
19.635908,15.918950709733949,0.13439551888635243
19.638288,15.916534987680558,0.13426507671078147
19.640688,15.911837625627031,0.13415440820224586
19.643072,15.912075630626118,0.13401179007348682
19.645456,15.905935246333614,0.13390072242416615
19.647852,15.898491609428996,0.13378627597333345
19.65024,15.887602849538984,0.13368518023236325
19.65262,15.877692477036993,0.1335604848906166
19.655016,15.865268147109388,0.13344408491606635
19.6574,15.851261025315946,0.13333090691202737
19.65978,15.839954852403224,0.13318745176107927
19.662184,15.828276592438165,0.13303550784299778
19.664572,15.81380483579377,0.1328983198060796
19.666952,15.797890056910399,0.1327609641519117
19.669348,15.779740859855133,0.13262494011301693
19.671736,15.758426079068196,0.13249515884101953
19.674116,15.738881081602198,0.13234005100319854
19.676512,15.729765896748864,0.1321082593191044
19.6789,15.721070020776112,0.13186600884943675
19.68128,15.710232274430082,0.13164034638627325
19.683684,15.695530096218075,0.13143760925729034
19.686072,15.678313960580457,0.131242641217607
19.688456,15.667942744943252,0.13098842963538826
19.690852,15.657059672626847,0.13072923579348528
19.693236,15.657118269602305,0.13040012317623217
19.69562,15.656757557697185,0.13008050111495878
19.698016,15.661052673590953,0.12973697657651342
19.7004,15.66693058135056,0.12939055029392124
19.702784,15.672808489110164,0.129043664301431
19.70518,15.682970137616325,0.12866505691558655
19.707564,15.69033828944315,0.12830056991075858
19.709944,15.696775275710197,0.12794067286905886
19.712352,15.707356233096936,0.1275513989097255
19.714736,15.715935089737258,0.12717507095802505
19.71712,15.724234407123861,0.12680498768971518
19.719516,15.737189552309356,0.12641130860778485
19.7219,15.749353301561936,0.12601911456829262
19.72428,15.751506547082426,0.12569023600732732
19.72668,15.75566189334934,0.12534882653848944
19.729064,15.761447253310328,0.12498661482641127
19.73146,15.768303548457952,0.124616393807593
19.733856,15.777161944351999,0.12423397177481948
19.736244,15.775870066887098,0.12391661028501612
19.738624,15.771924462369723,0.12360939335781572
19.74102,15.759179058933759,0.12335270123895953
19.743408,15.7471325036321,0.12307905064725068
19.745788,15.73112896866585,0.12281119469354021
19.748184,15.714753346647262,0.1225344260737871
19.750572,15.70079913425567,0.12223535702027573
19.752968,15.683120259624966,0.121953776413754
19.75536,15.66851442092732,0.12165205915923012
19.757748,15.653117186296754,0.1213506960867381
19.760128,15.633203893494159,0.12106708931256263
19.762532,15.611707808825726,0.12078472459012539
19.76492,15.588768701918317,0.12050030605094422
19.7673,15.563315637585292,0.12022188609358009
19.769696,15.535720702878988,0.1199577025934614
19.772084,15.516273940785215,0.11964180216339969
19.774464,15.493893912385246,0.11934151086569868
19.77686,15.468440848052222,0.1190599325638549
19.779247999999995,15.443918949278979,0.11877360775307483
19.781628,15.415113309759178,0.11851662846498695
19.784028,15.395526778038542,0.11820094485757844
19.786412,15.379525138930159,0.11787123410573218
19.788796,15.366736305381695,0.11751787923641205
19.791192,15.354599098139289,0.11716644009614471
19.79358,15.341763042762578,0.11683045640057756
19.795976,15.328507678505291,0.1165040359635976
19.798372,15.312970674247866,0.11619542556511309
19.80076,15.295152029990302,0.11590400624594467
19.80314,15.273329184239904,0.1156349700417879
19.805536,15.253368669609065,0.11535698424326586
19.807924,15.238063982777117,0.11505767163270773
19.810304,15.224993714117062,0.11475848070496832
19.812704,15.217510438815674,0.11443456352171087
19.815092,15.212820660193623,0.11409857326023833
19.817472,15.21185554381069,0.1137459426681754
19.819872,15.207817391494695,0.11341251871457539
19.82226,15.209785541417954,0.1130459127475732
19.82464,15.214547188020548,0.11266734650600999
19.827036,15.217306733876722,0.11229996644990099
19.829424,15.224489790106315,0.11190024435876968
19.831808,15.22832027114913,0.11152620433621385
19.834212,15.228286320325969,0.11117084256221862
19.836596,15.235701693981039,0.11078659194128264
19.83898,15.244979398755662,0.11039554283648953
19.841372,15.255048499463205,0.11000316303747987
19.84376,15.266979931290305,0.10960400917622011
19.84614,15.280913463863818,0.1091944755758639
19.84854,15.29950282423623,0.10876625976263052
19.850928,15.32274801240753,0.10831962491060008
19.853308,15.347715762071523,0.10787004562677523
19.855712,15.374545842855078,0.10741518859933366
19.8581,15.405659664385185,0.10693506376832865
19.860479999999995,15.43649394666157,0.10646422966736867
19.862876,15.464115423378042,0.10601445702589661
19.865264,15.489595029721237,0.10557831652308007
19.867644,15.517728363116904,0.10513644373499778
19.87004,15.54036725095252,0.10473210930836062
19.872428,15.562447060280695,0.10434116064120072
19.874824,15.588391301474843,0.10393458529547694
19.87722,15.614567860094468,0.1035417325792178
19.879608,15.64153581464701,0.10314934299393769
19.881988,15.66808446031897,0.10276538871978991
19.884388,15.68462260225885,0.10243156699209151
19.886776,15.698599564944871,0.10212042944394129
19.889156,15.717791433937224,0.10178151153558246
19.891556,15.731116770317186,0.10146798581328632
19.893944,15.744022797816566,0.10116435942723483
19.896324,15.757068594942808,0.10085863622918007
19.89872,15.769043456882411,0.10055994523861503
19.901108,15.780087153262237,0.10026518725905369
19.903488,15.788988979268787,0.09998371455678232
19.905892,15.79374683415564,0.09972456195733949
19.90828,15.795571422736298,0.09947807541141626
19.91066,15.799258342436513,0.0992254989835751
19.913056,15.809231103629699,0.09894052562130104
19.915444,15.815339432956915,0.09867093338246763
19.917824,15.828664769336878,0.09836662694691113
19.92022,15.84362011941092,0.09804515849050804
19.922608,15.856293829484825,0.09773948828915781
19.924992,15.870318013999087,0.09742317431835311
19.927388,15.885413133699991,0.0971018583176545
19.929776,15.90865642601342,0.09674436037483077
19.932156,15.93897695575274,0.09635600194272137
19.934552,15.972929599932554,0.09594277634233757
19.93694,16.005811308925733,0.09553815740051118
19.939336,16.044419780904438,0.0951139933278364
19.94174,16.084238957696645,0.0946826381314867
19.944124,16.123126968929075,0.09425558091478392
19.946504,16.1620149801615,0.09382959533452931
19.948908,16.199412747326708,0.0934184823137034
19.951296,16.236019118559,0.09300790521684499
19.953676,16.274627590537705,0.09259033160361516
19.956072,16.31416722807619,0.09217092613131608
19.95846,16.354777800801312,0.0917475363643515
19.960844,16.391244402406745,0.09134573299099252
19.96324,16.43478824143806,0.09091726584063636
19.965628,16.467530180804378,0.09052844730882884
19.968012,16.498270019424282,0.09014871836882545
19.970408,16.53036033248454,0.08975921815468808
19.972792,16.559657148865465,0.08937837939379417
19.975176,16.58802279968661,0.08900115206928064
19.977572,16.611592853082005,0.08864080362990426
19.97996,16.631438244238286,0.0882910552234956
19.98234,16.64713966427487,0.08795958775593801
19.984736,16.663120623565177,0.0876242338915286
19.987124,16.6805918269227,0.0872769654363863
19.989508,16.694338368041116,0.08693866156442923
19.991904,16.70729351322661,0.08660019857388825
19.994292,16.72308937691968,0.08623942276642617
19.996672,16.742936663933833,0.085848523451165
19.999068,16.763994655761483,0.0854507195624413
20.001456,16.78547195646971,0.08504620310036967
20.00384,16.804435299752324,0.08464238333757299
20.006236,16.82381795191552,0.08423183568406369
20.008624,16.84026733777252,0.08382996002166104
20.011004,16.845914823964517,0.08346122134294648
20.013404,16.858779317209265,0.08306462390597208
20.015792,16.869501940080735,0.08267707870175013
20.018172,16.875568735153315,0.08229918674450118
20.020576,16.880704364666116,0.08192313359577179
20.022964,16.88546790712658,0.08153851380692892
20.025344,16.88543585216129,0.08116540437596735
20.027744,16.883681235703307,0.08079292352024034
20.030128,16.881414762566123,0.08041345975097107
20.032512,16.870068951256634,0.08006342401749553
20.034916,16.85606941289467,0.079716452263655
20.037304,16.84435151453284,0.07935715919230038
20.039684,16.83598619135779,0.07898218925135479
20.04208,16.820915717809186,0.07863906197420832
20.044468,16.7987680068347,0.07831818021532255
20.046848,16.774618195113785,0.0780029052737364
20.049248,16.747395347459822,0.07769761948843323
20.051632,16.720172499805855,0.07739121874965042
20.054016,16.68987661621884,0.07709461008756832
20.05642,16.661070976699037,0.07678462905500166
20.058808,16.637340473858714,0.07645730372067482
20.061188,16.60946599989869,0.07614386297825901
20.063584,16.584804331498585,0.07581698881507869
20.065972,16.56521779977795,0.07547368355120329
20.068356,16.54949569992329,0.07512160677907054
20.070752,16.533214521561188,0.07477993606468435
20.07314,16.52694384693117,0.07441032809674748
20.07552,16.524258064913408,0.0740375190513112
20.077916,16.526507649948257,0.07365257984868764
20.080304,16.535694702782134,0.07324862731372746
20.082688,16.54204103710843,0.07286583129396339
20.085084,16.54703689699437,0.07249238211196855
20.087472,16.54546737613362,0.07214586118045467
20.089852,16.54818159601942,0.071782868967342
20.092248,16.555411874077254,0.07141530759438305
20.094636,16.56236261288137,0.07105273775184273
20.09702,16.57024451724526,0.07068882413756362
20.099416,16.582922019034903,0.0703162978672652
20.101804,16.59159531933171,0.069953052475817
20.104184,16.60078047630772,0.06959658407659254
20.106584,16.60768399328359,0.0692503313200952
20.108968,16.61458751025946,0.06890335902752438
20.111364,16.62135125760847,0.06855965739209716
20.113764,16.622620559397426,0.06823778154493125
20.116152,16.615881458200718,0.06793548920948876
20.118532,16.606069321070954,0.06764130278037117
20.120928,16.587969241701803,0.0673725058341046
20.123316,16.566004730466673,0.06711042240206982
20.125696,16.540547874417914,0.0668647325400654
20.128096,16.515091018369148,0.06661876392439466
20.130484,16.493126507134022,0.0663558931950953
20.132864,16.475026427764874,0.06608612707503715
20.135264,16.460930549888552,0.06580641496360223
20.137652,16.445763736825594,0.06553019102822143
20.140036,16.43273879413591,0.0652470789239745
20.142432,16.421855721819508,0.0649565681668486
20.14482,16.407620074316323,0.06467864242409434
20.1472,16.39017162125323,0.06441147208817423
20.1496,16.379241327108584,0.06413717777964875
20.151988,16.37003359445663,0.0638637719293323
20.154368,16.365621459230436,0.0635833147866365
20.156763999999995,16.36679631736291,0.06329789614415876
20.159152,16.36475836993546,0.06302262318646125
20.161532,16.368586955120403,0.06273704203492811
20.163932,16.380144404037296,0.06243932111341778
20.16632,16.398499551126356,0.06213098933450287
20.1687,16.41964819489475,0.06182026267268783
20.1711,16.44424196164854,0.06151181607554798
