Time,Force,Position
26.64208,0.0871052438909002,0.0
26.644484,0.09581249501086865,0.0
26.646871999999995,0.10652184687725397,0.0
26.649255999999998,0.11737096837049948,0.0
26.651652,0.1338070832224149,0.0
26.654039999999995,0.15191858987154722,0.0
26.656423999999998,0.17175265801337597,0.0
26.65882,0.19051579096856616,0.0
26.661207999999995,0.20927892392375635,0.0
26.663588,0.2300441576253634,0.0
26.665983999999995,0.25202009614046916,0.0
26.668372,0.27706907058863034,0.0
26.670752,0.2992319484260759,0.0
26.673151999999995,0.3178099336512685,0.0
26.675536,0.3314525518238489,0.0
26.677916,0.3408114292498753,0.0
26.680319999999995,0.35203263779545824,0.0
26.682708,0.3563163785420124,0.0
26.685092,0.3575270833555111,0.0
26.687487999999995,0.3593894144750678,0.0
26.689876,0.3675375870875954,0.0
26.69226,0.374335285259764,0.0
26.694655999999995,0.3749869115658219,0.0
26.697044,0.3704236315655473,0.0
26.699428,0.35747986152726785,0.0
26.701823999999995,0.34253399074257157,0.0
26.704212,0.3229322921589837,0.0
26.706592,0.30547246394867295,0.0
26.708996,0.2867093309934828,0.0
26.711383999999995,0.2659440972918758,0.0
26.713764,0.24396815877677003,0.0
26.716159999999995,0.21891918432860885,0.0
26.718548,0.1949411450670862,0.0
26.720928,0.17268566729825996,0.0
26.723324,0.1524322902758506,0.0
26.725711999999994,0.13324984844007978,0.0
26.728092,0.11299647141767039,0.0
26.730487999999998,0.09688706551495496,0.0
26.732876,0.08077765961223951,0.0
26.735271999999995,0.0657391888961626,0.0
26.737676,0.04855884780680863,0.0
26.740064,0.0325892115309534,0.0
26.742444,0.01969261118815356,0.0
26.74484,0.009869046778409094,0.0
26.747228,0.0047013101675562295,0.0
26.749607999999995,0.0015356743031202155,0.0
26.752004,0.0013033047448793738,0.0
26.754392,0.0,0.0
26.756772,0.0,0.0
26.759167999999995,0.0,0.0
26.761556,0.0,0.0
26.763936,0.0,0.0
26.766332,0.0,0.0
26.768719999999995,0.0,0.0
26.7711,0.0,0.0
26.7735,0.0,0.0
26.775884,0.0003721391851010525,0.0
26.778268,0.0003721391851010525,0.0
26.780663999999994,0.0003721391851010525,0.0
26.783052,0.0003721391851010525,0.0
26.785436,0.0003721391851010525,0.0
26.787831999999995,0.0003721391851010525,0.0
26.79022,0.0003721391851010525,0.0
26.792615999999995,0.0003721391851010525,0.0
26.795012,0.002466839862898534,0.0
26.7974,0.006843180540833286,0.0
26.799783999999995,0.012430226032266782,0.0
26.80218,0.018948437083478598,0.0
26.804568,0.026537583321328936,0.0
26.806948,0.03626859993245635,0.0
26.809348,0.04534799023752586,0.0
26.811732,0.05750041647565074,0.0
26.814116,0.06606795010152255,0.0
26.816512,0.07384408779447627,0.0
26.8189,0.0832030173532662,0.0
26.821279999999994,0.08841797579236221,0.0
26.82368,0.0941919606061355,0.0
26.826068,0.10420251647098333,0.0
26.828447999999995,0.10927770528321913,0.0
26.830848,0.1132819589088164,0.0
26.833236,0.11649481660149556,0.0
26.83562,0.11998721354789516,0.0
26.838012,0.12347961049429473,0.0
26.840399999999995,0.12818271225419306,0.0
26.842783999999995,0.12608801157639557,0.0
26.84518,0.12171167089846083,0.0
26.847567999999995,0.11612462540702734,0.0
26.849948,0.10960641435581553,0.0
26.852343999999995,0.10201726811796519,0.0
26.854732,0.09228625150683778,0.0
26.857116,0.08320686120176828,0.0
26.859511999999995,0.07105443496364337,0.0
26.8619,0.06248690133777157,0.0
26.864284,0.054710763644817854,0.0
26.866679999999995,0.04535183408602793,0.0
26.869068,0.04013687564693191,0.0
26.871452,0.03399075164805757,0.0
26.873847999999995,0.023980195783209746,0.0
26.876236,0.01890500697097394,0.0
26.878632,0.01490075334537666,0.0
26.881028,0.011687895652697497,0.0
26.883416,0.008195498706297911,0.0
26.8858,0.004703101759898327,0.0
26.888196,0.00041936101334420344,0.0
26.890588,0.002980592399965468,0.0
26.892968,0.005402054159726522,0.0
26.895368,0.006752580732849045,0.0
26.897755999999998,0.00996543842552821,0.0
26.900136,0.017322267237901288,0.0
26.902532,0.02267699530385751,0.0
26.90492,0.027752184116093318,0.0
26.9073,0.03669180479430262,0.0
26.9097,0.04362932472609506,0.0
26.912088,0.04935613984438877,0.0
26.914468,0.05666574682851869,0.0
26.916864,0.06369581455892818,0.0
26.919252,0.07095819971481496,0.0
26.921631999999995,0.07808081524384153,0.0
26.924028,0.08813669707906326,0.0
26.926416,0.09777327003370437,0.0
26.928796,0.10512820298820819,0.0
26.931192,0.11313476224876994,0.0
26.93358,0.12086178225561124,0.0
26.935976,0.12775013236852772,0.0
26.938371999999998,0.13393963434714318,0.0
26.94076,0.14278286337823334,0.0
26.94314,0.15414004983493806,0.0
26.945536,0.16586932334398027,0.0
26.947924,0.17275577759902747,0.0
26.950304,0.1850894555858844,0.0
26.9527,0.1990059254385776,0.0
26.955088,0.20929028085077456,0.0
26.957468,0.2247423207410608,0.0
26.959864,0.2436394836167399,0.0
26.962247999999995,0.2642592079851154,0.0
26.964644,0.2851112497789682,0.0
26.96704,0.30717399638631976,0.0
26.969428,0.3314711611655654,0.0
26.971808,0.3527878378103727,0.0
26.974204,0.3776894070674331,0.0
26.976592,0.4076188911757226,0.0
26.978976,0.4353592830824919,0.0
26.981372,0.46612548909407336,0.0
26.98376,0.49805517809091054,0.0
26.98614,0.5312881196998634,0.009178943196766216
26.988536,0.5659640835477924,0.01799627949873553
26.990924,0.6038056311273936,0.026511399658104916
26.99332,0.6424385746399132,0.034871788943199956
26.995715999999994,0.685587576324464,0.04304929262632634
26.998104,0.7291086650613523,0.05106672131090399
27.000484,0.7731416104774383,0.059149320927120205
27.00288,0.8229013188790544,0.06685938072848258
27.005268,0.8755942935868657,0.07421961867138546
27.007652,0.9301495994142338,0.08142636544667743
27.010048,0.9822834956146044,0.0887587197144713
27.012436,1.0357678662553338,0.09611251861505846
27.01482,1.0909747983887597,0.103377448055504
27.017216,1.1463215001490459,0.11061126957751141
27.019604,1.2060917122827464,0.11765774796965293
27.021984,1.2658619244164468,0.12463488499615828
27.02438,1.3220472439378943,0.13178430647665926
27.026768,1.383354921967057,0.13877928631085326
27.029148,1.4432195777572436,0.14579647644848712
27.031544,1.5039228513085916,0.1527814136733569
27.033932,1.5616003107551273,0.15064129003653876
27.036328,1.612899380910075,0.14906241107984763
27.038723999999995,1.6575877443479574,0.1479089649364791
27.041112,1.6992502936810274,0.1469102496673849
27.043492,1.7377472592824252,0.14610331913777527
27.045888,1.769214209286177,0.14569500738657987
27.04828,1.8005886114913117,0.14514808639433627
27.05066,1.8247932284719404,0.14508431900805027
27.053059999999995,1.840617355414564,0.14556954743450243
27.055448,1.8542070641852935,0.14609891052115528
27.057828,1.8687751603440446,0.14639761384921676
27.060224,1.8866958316895712,0.14642948346980678
27.062611999999994,1.902102545609484,0.14655860464398324
27.064992,1.917788798783117,0.146636142208489
27.067387999999998,1.9265375841577208,0.1471293031022534
27.069776,1.9326326424798497,0.14772666356517938
27.07216,1.9425921326679523,0.14809910871745818
27.074555999999998,1.9554376673340068,0.14845448770564493
27.076944,1.9721004120377916,0.148744887415229
27.079324,1.9914622097644255,0.1491654440342121
27.08172,2.022043320178773,0.14934690879481485
27.084108,2.0663577007064484,0.14921772008770579
27.086488,2.1262204606387662,0.14885693170929057
27.088888,2.199861816654786,0.14845947814860072
27.091276,2.2850001287543704,0.14811927855646576
27.093672,2.3868030814156094,0.14760897585575855
27.096067999999995,2.50005576833217,0.147257790783302
27.098456,2.63099680916878,0.14682710616106923
27.100836,2.7804175998583576,0.14624674413979905
27.103232,2.9434753211469094,0.14587234449194547
27.105619999999995,3.1200302034075724,0.14569870511379412
27.108003999999998,3.3092908507074297,0.14581312163854945
27.1104,3.516052860472233,0.14595038130851162
27.112787999999995,3.7371034271420673,0.1462385665863307
27.115168,3.981242349635518,0.14630298764938632
27.117563999999994,4.246327757579308,0.14632328422931817
27.119952,4.529613376122345,0.14636466390514927
27.122332,4.824860585599901,0.14658470583703712
27.124728,5.133699399706058,0.14684098886228003
27.127116,5.46046078101561,0.14693008411522374
27.129512,5.789267693184085,0.1472694848388324
27.131908,6.123240393972781,0.14772156537957065
27.134296,6.452695140731573,0.14836298361134279
27.136675999999994,6.780752191221767,0.14906670181537426
27.139072,7.111882277645016,0.14967135525049488
27.141459999999995,7.446132621829563,0.15015166226181292
27.14384,7.780058100790016,0.1505290535957009
27.146235999999995,8.110772670048421,0.1508439520314948
27.148624,8.438555868858503,0.15107944078831215
27.151008,8.764665623861998,0.15117085224975638
27.153403999999995,9.086587977633297,0.1511402567717017
27.155792,9.404043390918675,0.15103081841895452
27.158172,9.71451790629252,0.1508660123388079
27.160568,10.022435034128247,0.15057914683206458
27.162955999999998,10.3242098818136,0.1502320976821321
27.16534,10.615186621549688,0.1498683397894638
27.167736,10.895318031508273,0.14951913017869561
27.17012,11.166326673182043,0.1491569123209197
27.17252,11.430866273623481,0.14877208682199103
27.174916,11.680509120966331,0.14846802059180791
27.177304,11.928618294129457,0.14807327462438422
27.179683999999995,12.169978886806527,0.1476606396111726
27.182084,12.4172551297821,0.14710634826185093
27.184472,12.658154879323957,0.14653534757175257
27.186851999999995,12.89197928729779,0.14598704349346048
27.189248,13.119379980009661,0.14546955940913706
27.19164,13.342498827832848,0.14494914707271292
27.194019999999995,13.558123025207435,0.14445715974663983
27.19642,13.765600945827362,0.1439908016368567
27.198808,13.964513280812051,0.14356424062603326
27.201192,14.16016748426645,0.14314345140672047
27.203588,14.348327037272249,0.14274809474182348
27.205976,14.529923105389226,0.1423682677016357
27.208355999999995,14.701091256751408,0.1420357215906805
27.210756,14.8588982250526,0.14176826626378658
27.213144,15.007999838091694,0.14153086686135227
27.215523999999995,15.15295937586896,0.1412801858549991
27.21792,15.293264981705203,0.141009325243641
27.220304,15.423841518920954,0.14075865754711794
27.222684,15.551114598636039,0.14046950505180572
27.22508,15.66921768823807,0.1401860558637623
27.227467999999995,15.780524975525806,0.13990048444783051
27.229864,15.880240863073487,0.13964778092780952
27.23226,15.980377955359618,0.1393374924125043
27.234648,16.07371924533145,0.13902305221954817
27.237027999999995,16.15640030112301,0.1387290571009978
27.239432,16.23079531053305,0.1384488992318385
27.24182,16.301839640614183,0.13814942466649885
27.2442,16.369113982485832,0.1378400038875283
27.246596,16.433269962454048,0.13752245264359605
27.248984,16.49193339272008,0.13720346307023004
27.251368,16.54854939626933,0.13686870634392578
27.25376,16.60349006015412,0.136525522920475
27.256148,16.65410165732198,0.13618424422892866
27.258528,16.70303791482539,0.1358319890221964
27.260924,16.7533718685974,0.13544949577310858
27.263312,16.796815576398625,0.1350957140098086
27.265691999999994,16.836022765281538,0.13475873595008012
27.268088,16.870341808940083,0.134435207026664
27.270475999999995,16.8989340896131,0.1341447968075886
27.272859999999994,16.928457535845894,0.13385125905898518
27.275256,16.95639819021285,0.13356229726781343
27.277643999999995,16.979915334206392,0.13330878999197404
27.28004,16.996355240774044,0.13310234875031657
27.282436,17.013726312901476,0.13289197854342027
27.28482,17.035101586521744,0.13265746336185497
27.2872,17.05754779532865,0.13241567664591775
27.289607999999998,17.078923068948914,0.1321826039431878
27.291992,17.10043811219604,0.13194722076728577
27.294372,17.119439198017552,0.13171994201163092
27.296772,17.136717722346365,0.13149950995991702
27.29916,17.147198548503017,0.131317116943184
27.301536,17.156515891674406,0.1311291870203098
27.303943999999998,17.166624630778717,0.13093984797039088
27.306328,17.17966663618922,0.13073429914962423
27.308708,17.187913044173975,0.1305545476717947
27.311111999999994,17.197090617718505,0.13037033261916592
27.3135,17.20799075275573,0.13018067592291627
27.31588,17.22168438447229,0.12997749968829317
27.318276,17.240872461748907,0.12973444084369362
27.320664,17.25447354566685,0.12951818271783436
27.323044,17.265560672159182,0.12930924283661657
27.32544,17.27469291973334,0.12909474721019465
27.327828,17.285175641747855,0.12886682211748934
27.330208,17.29221324077698,0.1286506875574456
27.332608,17.293384307193712,0.12846710132954156
27.334992,17.29204141618483,0.128290578373213
27.337376,17.290186668496748,0.128109526970437
27.339772,17.284467488942695,0.12794873299106815
27.34216,17.27981924457528,0.12778055104400388
27.344539999999995,17.273308669088312,0.12762088821458242
27.346944,17.273083935094313,0.1274201845541458
27.349328,17.270857100353894,0.12723123240474676
27.351712,17.26639584744158,0.12704285579342772
27.354108,17.26156250747693,0.12684705065093366
27.356496,17.259010807512425,0.12663363654760965
27.358875999999995,17.25836866049571,0.1263952790478765
27.361272,17.25069649788135,0.12618125825332785
27.36366,17.244374809707356,0.12595419081413134
27.366056,17.232977984853882,0.12575711039796075
27.368452,17.225864900746966,0.12553126091141553
27.370839999999998,17.21674971589363,0.12531616270326001
27.373224,17.208845235853794,0.1250902446358566
27.37562,17.195074223201573,0.12489487342193477
27.378004,17.17944087942979,0.12470736831746268
27.380388,17.16422684453859,0.12451029479072052
27.382784,17.149292348901106,0.12430675678504004
27.385172,17.128351551024377,0.12413701947741557
27.387552,17.107969831655087,0.12395463326778466
27.389948,17.08400321967354,0.12378560470907891
27.392336,17.061107542878638,0.12360890958309946
27.39472,17.030203463098065,0.12347757405530979
27.397116,16.996505886638158,0.12335841942640534
27.399504,16.963459936484306,0.12324075516121985
27.401883999999995,16.925618388904706,0.1231465159204495
27.40428,16.88298124389935,0.12307585521700405
27.406664,16.834058257401026,0.12304498765341235
27.409064,16.789930868328458,0.12298983037654278
27.41146,16.74300998257655,0.1229463719629496
27.413847999999994,16.696228866451502,0.12289946846647255
27.416228,16.647445649580042,0.12286287227550594
27.418628,16.605739670134465,0.12278416795385601
27.421012,16.568270209607203,0.12269337110405364
27.423396,16.53573611613255,0.12257560283434625
27.425791999999998,16.507718080829928,0.12243988788480638
27.42818,16.4831451685127,0.12229345312213749
27.43056,16.45694224250139,0.12216610174467465
27.432956,16.435534913915838,0.1220146908530886
27.435344,16.418224334621733,0.12185472216185722
27.437728,16.4040793390593,0.1216902852754149
27.440124,16.38816456017593,0.12154825601053326
27.442512,16.37783677465123,0.12138106389730183
27.444892,16.36988317692528,0.12121037413999937
27.447292,16.36844773811778,0.1210111111407204
27.44968,16.37418208453479,0.12078541671100806
27.45206,16.38801738173608,0.12052924443516683
27.454456,16.40902246416188,0.12024652290347058
27.456844,16.43412429587913,0.11995698933232546
27.459239999999998,16.459458445021852,0.11967863833759318
27.461636,16.48916888270975,0.11938706126796468
27.464023999999995,16.51897186819626,0.1191101532565973
27.466407999999998,16.54672553110812,0.11886347848030084
27.468804,16.57219755401984,0.11863466297906668
27.471191999999995,16.602185635103584,0.11839037721452264
27.473572,16.630963011373833,0.11815674297277484
27.475972,16.660392013950137,0.11792629636950458
27.478359999999995,16.698201506564452,0.11766187160726083
27.48074,16.741318453283714,0.11738186444011856
27.483135999999995,16.78708912705545,0.11709569362706783
27.485524,16.83472213194674,0.11680287716616568
27.487904,16.889292604637063,0.11647580252801758
27.490308,16.95024146661897,0.11612821755395757
27.492695999999995,17.01598592602663,0.11576070362299846
27.495076,17.079588515061015,0.11541002918704547
27.497476,17.138627824095128,0.11509316407273502
27.499863999999995,17.198458529062155,0.11477888851012397
27.502244,17.258149464402326,0.11446965164184215
27.504644,17.316629694928995,0.11417200584386103
27.507028,17.380557149187478,0.1138572647526576
27.509412,17.442854589751875,0.11356200574009
27.511807999999995,17.50915623180911,0.11324841393156801
27.514199999999995,17.575457873866345,0.11293601531528746
27.51658,17.646555113349326,0.1126053482707496
27.51898,17.71495140395159,0.1123007179755923
27.521367999999995,17.788794918285667,0.11198061513177819
27.523751999999995,17.866363094858862,0.11165004739335851
27.526148,17.940206609192938,0.111335970366247
27.528532,18.013118957967237,0.11102844207773942
27.530916,18.0832378100622,0.11073330375809277
27.533311999999995,18.15601038920964,0.11043352593567157
27.5357,18.224918536491103,0.11015169074919119
27.53808,18.2882396904139,0.10989152841603508
27.540476,18.350350139523197,0.10964206954299592
27.542863999999994,18.412460588632488,0.10939444500603585
27.545244,18.476061281809002,0.10913316043737023
27.547644,18.53379544237313,0.10889703482528773
27.550031999999995,18.588596336631056,0.10867360320306892
27.552412,18.641023043090236,0.10845227005318399
27.554807999999998,18.69014439619088,0.10823660763190363
27.557196,18.737171100746487,0.10801705003609562
27.559576,18.781544078249624,0.10780525371449974
27.561972,18.82461380314064,0.10758956120232685
27.56436,18.862887930605908,0.10739255720548492
27.566759999999995,18.902931841392114,0.10717774627230196
27.569156,18.935666197326952,0.10698483036895891
27.571544,18.961090998410427,0.10681364302220189
27.573927999999995,18.983862072441422,0.10664897285121946
27.576324,19.001977318673532,0.10649935317372743
27.578708,19.01944093859958,0.10634795069977061
27.581092,19.03280780923418,0.1062012419620118
27.583488,19.045523053562725,0.10605248859204106
27.585876,19.057866210838927,0.10589658263905873
27.58826,19.06504168363704,0.10575007287246765
27.590656,19.069051572703483,0.10560486512075509
27.593044,19.074691475464004,0.1054444351824041
27.595428,19.081030226358823,0.10527111777458115
27.597824,19.08727642945503,0.10508524870914447
27.600212,19.093150545498897,0.10489203497089544
27.602596,19.09786117855751,0.10469179961126714
27.604996,19.105924386802894,0.10447346288512009
27.60738,19.111473637622666,0.10425831473837328
27.609764,19.114369161389963,0.10404866067098714
27.61216,19.117451676612365,0.10382142974685257
27.614543999999995,19.115506276983538,0.10360044813620024
27.616927999999994,19.116401595862293,0.10335624924924695
27.619324,19.116924827688706,0.10310414387538316
27.621711999999995,19.120009238768976,0.10283421110599084
27.624095999999994,19.12407203723727,0.10254649331498548
27.626492,19.12282738160061,0.10226929149642688
27.628879999999995,19.11706666779192,0.10200232925527244
27.63126,19.110933866930896,0.1017278568076244
27.633655999999995,19.103078504577176,0.10145599088231877
27.636044,19.095642451104034,0.1011758639828883
27.63844,19.085692440205275,0.1008979976549935
27.640836,19.068293104828292,0.1006405589811805
27.643224,19.04744864646592,0.10038774950760324
27.645604,19.02301929549129,0.1001420714326132
27.648,18.995656678210466,0.09990608721284658
27.650388,18.965221024996584,0.09968229609438026
27.652772,18.929338148050896,0.09947083164685179
27.655168,18.89373481035893,0.09925363251736534
27.657556,18.86055288229396,0.09902041802746284
27.65994,18.828162350161904,0.09878668870313802
27.662336,18.794700882843212,0.09855713024065149
27.664724,18.758306149218324,0.09833694629515376
27.667103999999995,18.722842581153216,0.09811349708148616
27.669504,18.681652250102577,0.09790677512235245
27.671888,18.63459538643955,0.09771901790466575
27.674271999999995,18.590611558709575,0.09751776388706873
27.676672,18.55170286765907,0.09729556950426538
27.67906,18.507579270302234,0.09709514470817342
27.681439999999995,18.460103097758626,0.096911698919761
27.68384,18.415420421894353,0.09672006289455964
27.686228,18.37017866752264,0.09653790439185675
27.688607999999995,18.329592740949817,0.096342550665024
27.691008,18.295944282176023,0.09612151357911093
27.693396,18.2661602552682,0.09588730140909532
27.695775999999995,18.24131159541299,0.09563524911619162
