Time,Force,Position
28.482912,0.18796187750418392,0.0
28.4853,0.189359573772786,0.0
28.48768,0.189267025974169,0.0
28.490076,0.18945401742927237,0.0
28.49246,0.18936146963065528,0.0
28.494844,0.19192264888451296,0.0
28.49724,0.1955547633250092,0.0
28.499628,0.1998385040715633,0.0
28.502008,0.1998385040715633,0.0
28.504408,0.19369243220545257,0.0
28.506796,0.18782589959306223,0.0
28.509176,0.18568402921978516,0.0
28.511572,0.1874065907124816,0.0
28.51396,0.1829830803390673,0.0
28.51634,0.17734886515215423,0.0
28.518744,0.17450814664457612,0.0
28.521132,0.1668604733945419,0.0
28.523516,0.15800209533100898,0.0
28.525912,0.14914371726747605,0.0
28.5283,0.13921440401730456,0.0
28.53068,0.12714322039385606,0.0
28.533076,0.11442041046434964,0.0
28.535464,0.10383947090812029,0.0
28.537848,0.09311876172503072,0.0
28.540244,0.08146688698216284,0.0
28.542632,0.06902361630637684,0.0
28.545028,0.055509410443952314,0.0
28.547428,0.04320590939502651,0.0
28.549816,0.03397544427915611,0.0
28.552196,0.027818015096341072,0.0
28.554592,0.022591751473304368,0.0
28.55698,0.015503156730711022,0.0
28.55936,0.007483396428339352,0.0
28.561756,0.004538772805439918,0.0
28.564144,0.0026650843691790166,0.0
28.566524,0.0,0.0
28.568928,0.0,0.0
28.571316,0.0,0.0
28.573696,0.0,0.0
28.576092,0.0,0.0
28.57848,0.0,0.0
28.58086,0.0,0.0
28.583264,0.0,0.0
28.585652,0.0011748403019598518,0.0
28.588032,0.005143177283254667,0.0
28.590436,0.005898708704633885,0.0
28.592824,0.005898708704633886,0.0
28.595204,0.005898708704633887,0.0
28.597604,0.007166096805210794,0.0
28.599988,0.010016276771623926,0.0
28.602372,0.017662054163788864,0.0
28.604768,0.029032493795067088,0.0
28.607152,0.0402631637994851,0.0
28.609532,0.05214546010996103,0.0
28.611932,0.06761264903269001,0.0
28.61432,0.08680450019453227,0.0
28.6167,0.1086500784088493,0.0
28.619096,0.13100751330236401,0.0
28.621484,0.1530854089421583,0.0
28.623868,0.1759547005148707,0.0
28.626264,0.19947561839364097,0.0
28.628648,0.2248588673919679,0.0
28.631032,0.24688954120351903,0.0
28.633428,0.2634616339665562,0.0
28.63582,0.2789627915429549,0.0
28.6382,0.2975369850524089,0.0
28.640604,0.31872904110279876,0.0
28.642992,0.3384308530859695,0.0
28.645372,0.3556545721550646,0.0
28.647768,0.3700847945448247,0.0
28.650156,0.3826526858150281,0.0
28.652536,0.3913561452192581,0.0
28.654936,0.40192193574304463,0.0
28.65732,0.4104856255204144,0.0
28.659704,0.4154644226855311,0.0
28.6621,0.41550785279803576,0.0
28.664488,0.41261801660434516,0.0
28.666884,0.40921632373145694,0.0
28.66928,0.40702533567206756,0.0
28.671668,0.4008301461198444,0.0
28.674048,0.3938435606347032,0.0
28.676444,0.38485487440314503,0.0
28.678832,0.3820122600376977,0.0
28.681216,0.3905306238446936,0.0
28.683612,0.3961157213454943,0.0
28.685996,0.401700818846295,0.0
28.68838,0.4044924196677607,0.0
28.690784,0.41077636530286243,0.0
28.693172,0.4212042820576581,0.0
28.695552,0.43284290362595246,0.0
28.697948,0.43726451814149747,0.0
28.700336,0.4407549670972643,0.0
28.702716,0.44238308493347434,0.0
28.70512,0.4452219075831833,0.0
28.707508,0.45085422691222715,0.0
28.709892,0.45690585512185156,0.0
28.712288,0.4612349218387796,0.0
28.714676,0.4682177156081824,0.0
28.717056,0.4741295741909467,0.0
28.719456,0.48632727426668193,0.0
28.72184,0.5015980102754726,0.0
28.724224,0.5159375807244849,0.0
28.72662,0.5276234241210224,0.0
28.729008,0.5290192245317552,0.0
28.731388,0.5306945641962084,0.0
28.733784,0.5363741053534954,0.0
28.736172,0.5477804094963125,0.0
28.738556,0.5558341384523539,0.0
28.740952,0.5608148314753397,0.0
28.74334,0.5665869204312438,0.0
28.74572,0.5794362468130368,0.0
28.748116,0.5920060339411095,0.0
28.750504,0.6062983825618787,0.0
28.752888,0.6215218967424263,0.0
28.755284,0.6338121446167786,0.0
28.757672,0.6452637747299697,0.0
28.760056,0.6613712326420522,0.0
28.762452,0.6744056546210795,0.0
28.76484,0.6891626380928031,0.0
28.767232,0.7033605430570858,0.007680036250332391
28.769628,0.7129951680210941,0.015814446252226687
28.772016,0.7271458511571338,0.023599635574130848
28.774396,0.7425997869052894,0.031349379201074466
28.776792,0.7628493200791967,0.03900764297287942
28.77918,0.7881267681043331,0.046408745974568566
28.781564,0.8068388353827781,0.05433262600095496
28.783968,0.81991668747431,0.06260513611697337
28.786356,0.837929906618454,0.07051233517750043
28.788736,0.8573861480015739,0.07843819581477139
28.791132,0.8774940156907517,0.08633038585722193
28.79352,0.8908967330063778,0.09496622297148466
28.7959,0.9101659829343943,0.10313049450096007
28.798296,0.930226628795329,0.1111639461808508
28.80068,0.9537323976416566,0.11891128794744249
28.803064,0.9785414191001,0.12672187350078498
28.805464,1.0104276779844323,0.13413261216322359
28.807852,1.0418946279881842,0.14150066162353062
28.810236,1.076155074671271,0.14879131371702425
28.812632,1.1098564428469166,0.15617966225923113
28.81502,1.1442094373286205,0.15578953199466186
28.817404,1.1842891947958545,0.15479947758279794
28.819804,1.224880808942286,0.15405848014926649
28.822188,1.2667756757008337,0.15337047010812066
28.824572,1.3094147165640562,0.15287981070989085
28.826972,1.3480023341062017,0.1529372139368035
28.82936,1.3959941550447477,0.15237528168861492
28.83174,1.4471043378867228,0.1517000076748576
28.834136,1.4980728552439686,0.15165274182156738
28.836524,1.5521125126764,0.15178303221263365
28.838908,1.612668433169411,0.15196411249842584
28.841304,1.6908220556417235,0.15114809141030422
28.843692,1.774001697107396,0.15079903278407894
28.846076,1.8632782927530671,0.1506301045363074
28.848472,1.9538562451529844,0.15091054572563178
28.85086,2.053324648412235,0.151131602257154
28.853244,2.156608365851347,0.15176997656762112
28.855648,2.2659890374704568,0.15249600041040137
28.858036,2.383328994389122,0.15326941307823205
28.860416,2.5062540488085876,0.15402472703600745
28.862816,2.633413726288495,0.1549403952071016
28.865204,2.7677412931350402,0.15594472725142333
28.867588,2.905232547855388,0.1571314059180413
28.869984,3.051754023061929,0.15826042402362928
28.872368,3.208656193195023,0.1592256240076052
28.874752,3.3798034901206426,0.15982889058089997
28.877148,3.5544865619724026,0.1606160898673218
28.879536,3.7433675387884455,0.16113707231472496
28.88192,3.9496592261286874,0.16130044623916548
28.884316,4.1738734806723246,0.16117905316319792
28.886704,4.409212604247189,0.1610306478361515
28.889088,4.649810064240892,0.16113444088225115
28.891484,4.900181918825463,0.16125743793099157
28.893876,5.165403304680374,0.16128049173647585
28.896256,5.4493386536715995,0.16108346140532995
28.898652,5.743607475761135,0.16088172012382126
28.90104,6.049280706135618,0.1606499906866938
28.903424,6.368360445541465,0.16034613002756254
28.90582,6.698425284351681,0.16006347390605086
28.908208,7.045062215924935,0.15967470091793434
28.910588,7.405058434701309,0.1592370166788443
28.912984,7.77534090474775,0.1588645176053416
28.915372,8.163918029049926,0.158380169602626
28.917752,8.566413519062664,0.15789989281754682
28.92016,8.97896294291999,0.15747086926701176
28.922548,9.400961896144095,0.15707812148630224
28.924932,9.837719728697788,0.15653032393722838
28.927328,10.277458049385922,0.15596984776114542
28.929716,10.711052194065815,0.15547915306204615
28.9321,11.135104261580315,0.1550498454146356
28.934496,11.556319402302975,0.15456794261696258
28.936884,11.970740636569204,0.15404300363497994
28.939268,12.37548191990105,0.15347107618850997
28.941664,12.763605784499488,0.15293881596953954
28.944052,13.139256201484208,0.1524141378065735
28.946432,13.501222466041712,0.15188008631773997
28.948828,13.853601327463451,0.15132764573669027
28.951216,14.193319749816368,0.15078626147078647
28.953596,14.518934710861489,0.15024855188304803
28.955992,14.831796685039171,0.14970700769190645
28.95838,15.136608721976552,0.14910322705616366
28.960764,15.428482676449258,0.14845603430231633
28.963168,15.699689684725346,0.14782695161505
28.965556,15.949298581245037,0.1472213342251023
28.967936,16.18373497712816,0.1465801896745204
28.970336,16.400018384240283,0.14594484502249938
28.972724,16.596751106312798,0.1453515456643906
28.975104,16.780264310809052,0.14477479192149545
28.9775,16.952373107020357,0.14421331409120514
28.979888,17.11382166905139,0.14367969666208982
28.982272,17.258975781715236,0.14322440390901028
28.984668,17.39593639579618,0.1428047806230067
28.987056,17.529079799839394,0.14239980847020606
28.98944,17.658405993844877,0.14200482679241025
28.991836,17.7769775100136,0.14166724540646325
28.994228,17.894665082450793,0.14132240253733372
28.996612,18.005649400372295,0.14099163476497759
28.999008,18.110861629337897,0.14066759649693691
29.001396,18.213514574907514,0.14032647700918213
29.00378,18.310535201148088,0.13999091755671705
29.006176,18.397779536939925,0.1396887216957233
29.008568,18.481066893067165,0.1394000194425459
29.010948,18.565751945463013,0.13908620110816677
29.013348,18.64941328450046,0.13876680328903904
29.015736,18.728279026112162,0.13847703434149694
29.018116,18.80355987511161,0.13820514505457998
29.020516,18.87539560112566,0.13794785513400198
29.022908,18.941923873034764,0.13771348348395845
29.025288,19.00714889233175,0.1374779990180163
29.027684,19.076285565322955,0.1372091829004875
29.030072,19.15082413607559,0.13689097732526015
29.032456,19.22303574085772,0.13656409545246326
29.034852,19.291849444482697,0.13623639289431216
29.03724,19.362480153256858,0.13587545034246123
29.03962,19.435719263113118,0.13547893635674274
29.04202,19.506399089573396,0.13506610808501246
29.044408,19.57274984931674,0.1346557134537794
29.046792,19.639986448649488,0.13421740184815187
29.049188,19.705827247571506,0.13376802432612958
29.051576,19.76705944052288,0.13332658293214433
29.053956,19.827826998623287,0.13286911732925377
29.056356,19.88519665556656,0.13241026621168261
29.058744,19.936467462471953,0.13197385804843298
29.061124,19.986994095272678,0.13152654083819487
29.063524,20.03519376210289,0.13107000798376048
29.065912,20.08465135557484,0.13059214141383726
29.068292,20.132713148636064,0.13010108155610314
29.070692,20.180729615726907,0.1295849409963003
29.07308,20.229631922407158,0.1290412088596025
29.075464,20.271551435318006,0.12850787075220252
29.07786,20.306860241511785,0.12799080515782818
29.080248,20.34193673028009,0.12746605938826513
29.082632,20.374686253077883,0.12693170423109723
29.085028,20.402687400278168,0.12640588946961717
29.087416,20.427011107067585,0.12588181153371766
29.0898,20.443885489378776,0.12538650729784434
29.092196,20.46145871982427,0.12487901596630986
29.094584,20.47251379135131,0.1243970723681734
29.096968,20.47812163914654,0.1239341017879637
29.099364,20.48321763026258,0.12346709164006604
29.101752,20.48430941988578,0.12301930163082483
29.104132,20.481956086523585,0.12258005355680551
29.106532,20.476576939056585,0.12214124830543098
29.10892,20.466821503044407,0.12171440849455344
29.1113,20.45748537591281,0.12128005090590314
29.113696,20.439908528370072,0.12087300955639732
29.116088,20.41753608340158,0.12048434493210476
29.118468,20.39409270324645,0.12010108751212675
29.120864,20.36543441678499,0.11974398183008214
29.123252,20.335565425510033,0.11939412417309163
29.125636,20.305836203861933,0.11904078138964187
29.128032,20.271590924041803,0.11870046967857609
29.13042,20.23399306903489,0.11837884048287144
29.132804,20.194253343654704,0.11806762126392661
29.1352,20.150369647154825,0.11777563384958174
29.137588,20.111700856961278,0.11745614227889882
29.139972,20.07037833971525,0.11714267021096068
29.142372,20.033339563215787,0.11680535540991352
29.14476,19.996161017089456,0.11646929293324346
29.14714,19.955397578350876,0.11614208192184369
29.14954,19.91011808144026,0.11582671834842903
29.151928,19.86483858452965,0.11550996999500542
29.154308,19.822352584298375,0.11518236003800165
29.156704,19.779307505559657,0.11486358991372042
29.159092,19.732118455701247,0.11456375079817913
29.161472,19.69144756476128,0.11424067877506158
29.163876,19.65585181050079,0.11389309867178786
29.166264,19.617974416240155,0.11355826164932721
29.168648,19.579165856419745,0.11322512927401324
29.171044,19.540077757345617,0.11289579245888162
29.173432,19.499639183831135,0.11257596764551972
29.175816,19.461854337369118,0.11224821468201082
29.178212,19.424721117213167,0.11192116730617437
29.180604,19.38809975373641,0.11159758092569652
29.182984,19.354132117312133,0.11126599853874067
29.18538,19.316392596820496,0.11096062055792674
29.187768,19.277814458567697,0.11066944405093707
29.190152,19.23374187475484,0.11040782065375605
29.192548,19.19553582355438,0.11012202818541786
29.194936,19.16328885276493,0.10982458789850749
29.19732,19.140213767946396,0.10949893972763207
29.199716,19.11858170536684,0.10917420413431647
29.202104,19.096250794652985,0.1088617376598426
29.204484,19.07685315024532,0.10853715465979785
29.206884,19.06090062882305,0.10820517169456932
29.209272,19.041735301840866,0.10788929937561373
29.211656,19.019869025977965,0.10759410289170261
29.214052,19.00065647716754,0.10729213100384154
29.21644,18.98675138246206,0.1069775280199986
29.218824,18.980295612234812,0.10664022800164744
29.22122,18.98049777055287,0.10628075625895529
29.223608,18.98135155517699,0.1059235456143496
29.225988,18.987652563532908,0.10555220781544367
29.228388,18.995815903008392,0.10517512199349968
29.230776,19.006353430282626,0.10479739183892572
29.233156,19.022617720542385,0.10440083766924385
29.235552,19.04274644266813,0.10399066540294209
29.237944,19.06725145333904,0.10357158105375525
29.240324,19.08412014807662,0.10319224201925187
29.242724,19.098986742067787,0.10282159520677102
29.245112,19.111711465685673,0.10246250888857925
29.247496,19.125739441915677,0.10210838760259204
29.249892,19.143492080384792,0.10174434592935575
29.252284,19.16375867627952,0.10137851800058197
29.254664,19.18467689848032,0.10101567651583121
29.25706,19.205036042173663,0.10066235032441635
29.259448,19.230842409598818,0.10029678074104843
29.261832,19.25730040333003,0.09993431999047446
29.264228,19.283618627434386,0.09957570199466842
29.266616,19.30593265004591,0.0992338651259812
29.269,19.318748025604542,0.09893444611526679
29.271396,19.334217128215656,0.09863085711348549
29.273784,19.34675296452057,0.09833779218479767
29.276168,19.362873693437734,0.09803839757930946
29.278564,19.38220722791482,0.0977255536942964
29.280952,19.402332158324818,0.09741437020308885
29.283336,19.421898010227377,0.09711355284252583
29.285732,19.441324092503077,0.09681568721145267
29.28812,19.46647693776431,0.09650115945517378
29.290504,19.49521467563779,0.09618090699418244
29.2929,19.52581474463083,0.09585727966580612
29.295288,19.55683412250445,0.09552703704566244
29.297668,19.58478046444502,0.0952093329858679
29.300068,19.61058493601231,0.09490197429841496
29.302456,19.63331637164654,0.094606132681451
29.304836,19.664987375826215,0.0942819142123046
29.307232,19.690652077766643,0.09397861796344383
29.30962,19.719110276386406,0.09366996126011276
29.312004,19.746497539819533,0.09336675670177158
29.3144,19.772534328812295,0.09307328794797116
29.316788,19.807510686350508,0.0927509579293733
29.319168,19.838203303142162,0.0924473218313824
29.321568,19.87369151735957,0.0921320901392081
29.323956,19.90810879639034,0.091823066792311
29.326336,19.939313269861195,0.09152875082759127
29.328736,19.96437167146594,0.09125665212425967
29.331124,19.990640777884185,0.09097846693826224
29.333508,20.019843150608622,0.09069295144368149
29.335904,20.052118559266113,0.0903982844964777
29.338292,20.080529536057632,0.09011476681747
29.340676,20.104936311356315,0.08984431485502929
29.34308,20.12920331702814,0.08957679360385337
29.345468,20.15654335863302,0.08929960287818473
29.347848,20.18309200430498,0.08902240449506572
29.350244,20.21471578665642,0.08872920615841715
29.352632,20.239681640462546,0.08845303063079599
29.355016,20.273214975761782,0.08814470408866076
29.357412,20.303163418448765,0.08784251079979583
29.3598,20.33311186113574,0.08754097082818335
29.362184,20.365202174196,0.08723181022173557
29.36458,20.39584946501728,0.08692092370588045
29.366968,20.429849331025338,0.08659604207891915
29.369348,20.459333138861368,0.08627905784081479
29.371744,20.483090183711866,0.08597500366210607
29.374136,20.49990976076333,0.08568919981951058
29.376516,20.521152848188212,0.08538530915014085
29.378912,20.5406733741204,0.08508315676010438
29.3813,20.55181341001458,0.08479635602161635
29.383684,20.558577157363594,0.08451436828358942
29.38608,20.566831148779823,0.08422196954093575
29.388468,20.578437715382822,0.08391591623594122
29.390852,20.591394756426187,0.08360216893379686
29.393248,20.59862503448402,0.08330052382268867
29.39564,20.607997182915135,0.0829916074815914
29.39802,20.612853273174213,0.08268871637498924
29.40042,20.61784913306015,0.0823837048651516
29.402808,20.610832388467593,0.0821108504394813
29.405192,20.601022147195692,0.08184219873576842
29.407588,20.588558178871317,0.08157568842256582
29.409976,20.571717922001778,0.0813120852335212
29.412356,20.550733694012543,0.08106096877592237
29.414752,20.52723550859769,0.08080971089161341
29.41714,20.503737323182836,0.08055812670885776
29.419524,20.48559381370118,0.08028772755916758
29.42192,20.481604779071297,0.07997931275834902
29.424308,20.47589318294872,0.07967184499980963
29.426688,20.469390190893225,0.07936341093061881
29.429084,20.47103537145026,0.0790323968746881
29.431472,20.4714698471938,0.07870711464354464
29.433856,20.469762452564055,0.07838905452435112
29.436252,20.46284015162798,0.07808647014407243
29.43864,20.45377598031863,0.07779118142578852
29.44102,20.452580442368088,0.07747881357135576
29.44342,20.44630976773807,0.07717946364364259
29.445808,20.44548631683986,0.07687465709039837
29.448188,20.442241456314658,0.07658087265613306
29.450588,20.444723358774983,0.07627624663952504
29.452976,20.45293202422084,0.07596180026027745
29.45536,20.46286325115939,0.075646791464573
29.457756,20.477450305896834,0.07532553862058365
29.460148,20.494970626940475,0.07499836676106253
29.462528,20.509929768730252,0.07468420131225363
29.464924,20.5226072705199,0.07437894954265445
29.467312,20.531932197122764,0.0740864957431742
29.469696,20.52924451924713,0.073822234361476
29.472092,20.526137532490917,0.07356448910408173
29.47448,20.527546603906735,0.07330341305213538
29.476864,20.52825682718825,0.07305394281656517
29.47926,20.531760547149105,0.07280121588365393
29.481648,20.536847058975788,0.07255057859202704
29.484028,20.54593777229531,0.0722909837064905
29.486424,20.553305924122135,0.07203135017478389
29.488816,20.54950008923162,0.0717847000954826
29.491196,20.54481031060957,0.07152418982953658
29.493592,20.52578096153851,0.07127112822370135
29.495984,20.49776671795163,0.0710082826139516
29.498364,20.46062781022207,0.070737886445732
29.500764,20.40249140349819,0.07048257099875964
29.503152,20.328991712966893,0.07022102030667951
29.505532,20.230909630829032,0.069975245650981
29.507928,20.11038702745787,0.06973842280706169
29.510316,19.975060218786744,0.06948423256261235
29.512696,19.817851967389757,0.06922853586764452
29.515096,19.636480633266782,0.06898027094101393
29.517484,19.434950417910642,0.06873015840656382
29.519864,19.20702270165662,0.06847929753889463
29.522264,18.946830951892313,0.06823822250685749
29.524652,18.65130213268468,0.06801645008277307
29.527036,18.320436244033715,0.06781354749376257
29.529432,17.95972773149947,0.06760637992921528
29.53182,17.567826120641584,0.06740251523922346
29.534204,17.146174433699034,0.06720844193460555
29.536604,16.70073175108283,0.0670294211460432
29.538992,16.23121853353925,0.06686739826606271
29.541372,15.750019472599128,0.06669991533757255
29.543772,15.258717360128303,0.06652759435286057
29.54616,14.754099390566866,0.06636366642783006
29.548544,14.247619089885871,0.06619183906645681
29.550944,13.736435739577741,0.06603425498182544
29.553332,13.230559843374557,0.0658646434599758
29.555716,12.72812907015677,0.06568183587137985
29.558112,12.22616293178994,0.06551422617556718
29.560504,11.732669831259727,0.06533904778634632
29.562884,11.249931408566276,0.06514132919506693
29.565284,10.776085332590025,0.06491856923507167
