Time,Force,Position
26.42012,0.3739923690578195,0.0
26.422504,0.3687774627514871,0.0
26.424888,0.35606601013868494,0.0
26.427284,0.34335455752588284,0.0
26.429668,0.325987277114189,0.0
26.432051999999995,0.3067576655829386,0.0
26.434448,0.28459478774549307,0.0
26.436836,0.2632233058409656,0.0
26.439232,0.24064111912293942,0.0
26.441628,0.22099219871110837,0.0
26.444016,0.19878209904541966,0.0
26.4464,0.17750316493950924,0.0
26.448792,0.1622305330728494,0.0
26.45118,0.15803934012491233,0.0
26.45356,0.15692118311003064,0.0
26.455956,0.15100742866939718,0.0
26.458344,0.14723554460204072,0.0
26.460723999999995,0.14080993348220955,0.0
26.46312,0.13824875422835184,0.0
26.465508,0.1381089846014916,0.0
26.467892,0.13904015016126994,0.0
26.470288,0.14518622202738068,0.0
26.472676,0.15682673945354433,0.0
26.475072,0.1635318898270959,0.0
26.477468,0.1715402928127633,0.0
26.479856,0.18047986135820904,0.0
26.482236,0.1903505954634331,0.0
26.484639999999995,0.19929016400887883,0.0
26.487028,0.20944043736782333,0.0
26.489408,0.2174488403534907,0.0
26.491807999999995,0.22801842259301586,0.0
26.494196,0.23644613445926388,0.0
26.496576,0.24180081039245654,0.0
26.498975999999995,0.2388675440862614,0.0
26.50136,0.23528265147400831,0.0
26.503744,0.23477079479481064,0.0
26.50614,0.23505033404853107,0.0
26.508528,0.23546964292911168,0.0
26.510908,0.23616849106341273,0.0
26.513304,0.23500500807815713,0.0
26.515692,0.2318394243464847,0.0
26.518076,0.2243900998682581,0.0
26.520472,0.21596238800201,0.0
26.522856,0.21554307912142942,0.0
26.525236,0.21447214393479086,0.0
26.52764,0.21139910800173548,0.0
26.530024,0.2052530361356247,0.0
26.532404,0.1961736979633188,0.0
26.534808,0.18602342460437432,0.0
26.537196,0.17587315124542988,0.0
26.539576,0.16255144046827927,0.0
26.541976,0.15030066487776722,0.0
26.544364,0.14029016114568296,0.0
26.546744,0.1345633981601528,0.0
26.549148,0.12748616073426375,0.0
26.551532,0.11816865144994684,0.0
26.553916,0.1069888110460733,0.0
26.556316,0.09660036657511788,0.0
26.558703999999995,0.08500121729066372,0.0
26.561084,0.07419346393912765,0.0
26.563488,0.06431687614736992,0.0
26.565871999999995,0.05765309391552776,0.0
26.568252,0.0508553957433591,0.0
26.570648,0.040333035332077154,0.0
26.573032,0.029292964555063833,0.0
26.575412,0.022914575263475796,0.0
26.577816,0.022822027464858737,0.0
26.580204,0.02752507709199349,0.0
26.582584,0.029294860412933076,0.0
26.58498,0.030273247800954545,0.0
26.587368,0.036145634099878574,0.0
26.589748,0.03908475409260744,0.0
26.592152,0.03964383260004828,0.0
26.59454,0.04299640778682408,0.0
26.59692,0.04807154446629631,0.0
26.599324,0.053245082630919295,0.0
26.601712,0.06149165672859765,0.0
26.604092,0.06931892194569539,0.0
26.606487999999995,0.0768666479090727,0.0
26.608876,0.08678856167120434,0.0
26.611256,0.09456860506005892,0.0
26.61366,0.09913584288899792,0.0
26.616044,0.10025210404601036,0.0
26.618424,0.10453394893469524,0.0
26.620823999999995,0.1099851304951694,0.0
26.623212,0.11035532168963764,0.0
26.625592,0.10681385918988923,0.0
26.627988,0.10099075669000357,0.0
26.630372,0.09968371236214929,0.0
26.632756,0.10182179101968787,0.0
26.63516,0.10419218710270371,0.0
26.637544,0.11373236841022569,0.0
26.639928,0.1287197734495574,0.0
26.642324,0.13807296330197602,0.0
26.644712,0.14900894502023088,0.0
26.647092,0.16203957528351962,0.0
26.649496,0.17181017815864966,0.0
26.65188,0.18595706957895086,0.0
26.65426,0.20434047991756302,0.0
26.656656,0.22323574693537285,0.0
26.659044,0.24608799361777328,0.0
26.661439999999995,0.2758304862709594,0.0
26.663836,0.31232345526807104,0.0
26.666224,0.34462523131724565,0.0
26.668604,0.379673282217512,0.0
26.671004,0.42347391020812075,0.008295387603899395
26.673392,0.47244222267681885,0.016395778188075867
26.675772,0.5262986803698857,0.02433242295874327
26.678168,0.5827616432871843,0.032222967959981565
26.680556,0.640108549936018,0.04010928226528224
26.682936,0.700621040316524,0.047802366310087746
26.68534,0.7592239777492303,0.05560964813688112
26.687724,0.8140550311145802,0.06366747173462069
26.690104,0.8724709770921832,0.0717802836358903
26.6925,0.9351234419880972,0.0796090935723998
26.694887999999995,1.003362900242681,0.08716445498209453
26.697272,1.0776086607365154,0.09450529255991691
26.699668,1.1515748819766294,0.10180579625287514
26.702055999999995,1.2244701680301049,0.10908722184362304
26.704436,1.2952235837103032,0.1164963654276708
26.70684,1.369050035323557,0.12376884688155099
26.709223999999995,1.4402227598843362,0.1311102806386869
26.711604,1.509021296646361,0.13849360868837715
26.714004,1.580940091169684,0.14582461294129498
26.716388,1.6509040067748337,0.15314668459273445
26.718772,1.7161195467824748,0.15214029344083438
26.721168,1.7763071719388863,0.15142675785555487
26.723556,1.8325378174307079,0.15090891564811182
26.725948,1.8883038280715745,0.15027557572280698
26.728344,1.9419751901674072,0.14966221344456432
26.730732,1.9896874718522324,0.14933567807024034
26.733112,2.0334427738724674,0.14905445825573513
26.735516,2.0808301903331987,0.14841479960915635
26.7379,2.1299401682866264,0.14770865226699065
26.740284,2.169970808067748,0.14760012208138878
26.74268,2.2051586285948743,0.14792293720373995
26.745064,2.234385472853124,0.148819959252614
26.747448,2.2641694997609454,0.14993452694575038
26.749844,2.2971172145425705,0.1512572464524613
26.752232,2.33788444499689,0.15253958778610746
26.754612,2.382791854855165,0.1541529042049745
26.757007999999995,2.4425941219541545,0.15564126071473203
26.759396,2.519665434092613,0.15697642689347865
26.761792,2.614517647949738,0.15823030870579646
26.764192,2.7284540161376456,0.15940991150205042
26.76658,2.8610552297757557,0.1605769295145249
26.76896,3.016465259983761,0.16155459816888595
26.771364,3.1945443371348015,0.16240400460892557
26.773752,3.3911484901091846,0.1633502048009182
26.776132,3.60711633666807,0.16423952458154956
26.778528,3.8472434742372097,0.1649460736780382
26.780916,4.11460293874966,0.16538033942182132
26.783296,4.399463765727056,0.1658881953561943
26.785696,4.704387134423256,0.16634619533217346
26.788084,5.03672982151787,0.16641211677999151
26.790464,5.394117639212143,0.16622334708319644
26.79286,5.779158988588179,0.1655610053989444
26.795252,6.181099191809214,0.16467677405369296
26.797632,6.594026390292486,0.1635855169329908
26.800028,7.01826734511996,0.16233906472786763
26.80242,7.449959520283529,0.16083254606049746
26.8048,7.881328726080873,0.15930321700235173
26.807196,8.305484716541205,0.15783841231231027
26.809584,8.71646841125352,0.15648531288344944
26.811964,9.115397967232697,0.1551693929586481
26.81436,9.500038966306843,0.15386678726745112
26.816748,9.868529077356403,0.15261967766216583
26.819128,10.220728530754517,0.15143098309272435
26.821524,10.553704060194987,0.1503009775470623
26.823912,10.869829853476569,0.14920350379981623
26.826296,11.165241478733288,0.14819335570069614
26.8287,11.44208080633842,0.14725552054404714
26.831084,11.703420872225026,0.14631880781200854
26.833468,11.944605848594211,0.145425907256167
26.835864,12.165635735445974,0.14457984008751196
26.838252,12.361342848302227,0.14380841855140022
26.840632,12.52916600790911,0.14314125638559905
26.843028,12.677765243558351,0.14248488028091078
26.84542,12.81137707416826,0.14180882663818245
26.8478,12.927160781231258,0.14116322534606365
26.850204,13.030376597024052,0.14053432161084362
26.852588,13.116181702292646,0.13997484745197497
26.854972,13.191606112634693,0.13943886763630076
26.857368,13.26354007402097,0.13888794519431505
26.859756,13.328351472010985,0.13836573940330246
26.862136,13.38948542959013,0.13785290215462373
26.864532,13.446802177131541,0.1373532337894402
26.86692,13.495366347582612,0.13690284025472688
26.8693,13.543977739861926,0.13643393304634152
26.871696,13.593195432476927,0.1359323485738962
26.874084,13.644602217293444,0.1353938437906584
26.876464,13.689398295392897,0.1348846259829279
26.878864,13.726652501215508,0.1344083174482342
26.881252,13.761160432187024,0.13393092793778333
26.883648,13.792922088307451,0.13345377919002624
26.886044,13.82389234849496,0.13298027239457333
26.888432,13.856073313495965,0.1324942353135839
26.890812,13.88518124256392,0.1320342399845519
26.893208,13.917874064244122,0.13155992458919474
26.895596,13.950147577043749,0.1310996038911006
26.89798,13.979068514656595,0.1306737864888445
26.900376,14.011946431934035,0.13023988625656957
26.902764,14.044265270704033,0.12982202415431768
26.905144,14.074721778354473,0.1294178922602227
26.90754,14.103455724512218,0.12902168462761668
26.909928,14.127533842871072,0.12865272961632898
26.912308,14.150960334923868,0.12828351335388297
26.914704,14.179369415857519,0.12786064257669758
26.917092,14.206615013805912,0.12743247739810856
26.919476,14.230275719142053,0.12702421740895525
26.921872,14.247977344067191,0.12663949100618319
26.92426,14.266098277872905,0.1262446021426716
26.926644,14.289434117984953,0.12581093808792881
26.92904,14.312909727723861,0.12537477169336644
26.931428,14.334103697462632,0.12496061180956747
26.933824,14.354086962387903,0.12455908426082615
26.936219999999995,14.374582083992372,0.12416451222421258
26.938604,14.400524429328652,0.12374534977196765
26.940988,14.421251868358596,0.1233676960262322
26.943384,14.438766501828626,0.12301562733844788
26.945772,14.456141365671796,0.12266765845839887
26.948152,14.470210876156434,0.12232885842129847
26.950548,14.483768529961873,0.12198442003913745
26.952936,14.496115478953815,0.12165264832015536
26.955316,14.509393593505532,0.12131635492747479
26.957712,14.53054034141606,0.12093272858990758
26.9601,14.550476384513088,0.12056187097796714
26.962496,14.566640543542762,0.12023081739898936
26.964891999999995,14.579963984064856,0.11993409487331981
26.96728,14.596732547572344,0.11962749185902466
26.96966,14.616806464438364,0.11931382179830671
26.972064,14.638323403543358,0.11900271676545568
26.974452,14.658489868207996,0.11870863388020586
26.976832,14.680239124738467,0.11841379282713671
26.979228,14.702919546828717,0.11811490492752291
26.981616,14.727602069665386,0.11780433908716062
26.984,14.75456623250219,0.1174766510943756
26.986396,14.77994760347316,0.1171534110569131
26.988784,14.803466643324574,0.11683874881456481
26.991164,14.832200589482317,0.11649008919633326
26.99356,14.861214074893782,0.1161354472331122
26.995948,14.894883388104137,0.11576096059080651
26.998328,14.933348298740247,0.11536437882826132
27.000724,14.969950878256798,0.1149761958984434
27.003112,15.007484623333129,0.1145851445164405
27.005492,15.039012066170208,0.11423125446608519
27.0079,15.069608343447511,0.11388177871075934
27.010284,15.104488361471367,0.11350409862747572
27.012664,15.143280033189438,0.11308891861417945
27.015064,15.17648471154884,0.1126995790820293
27.017448,15.210108698788822,0.11230285390697166
27.019832,15.240287563043417,0.11191624561265803
27.022228,15.264879433939337,0.11155347329012705
27.024616,15.288028282596278,0.11119020545258719
27.026996,15.310385735320303,0.11082802065805143
27.029392,15.333302266551772,0.11045431994916703
27.03178,15.350492034797707,0.11010773563645458
27.034164,15.362746435991033,0.10978709970123386
27.03656,15.378353412371133,0.10944245088677923
27.038948,15.391027122445037,0.10911372584289025
27.041328,15.4050513069593,0.10877258691949576
27.043724,15.413488498114894,0.10845417581711018
27.046112,15.416338695911818,0.10815864414108815
27.048508,15.42161030333574,0.10784298316203698
27.050908,15.425438888520686,0.10752538525291461
27.053296,15.431828652959492,0.10718506401812408
27.055676,15.441990301465653,0.1068126035630107
27.058072,15.447356352546059,0.10646178411202654
27.06046,15.447787036573855,0.10613515112256805
27.06284,15.449707964668875,0.10579214159051162
27.065244,15.443480720151362,0.1054922700858408
27.067632,15.438324410820487,0.10518542059183575
27.070012,15.438103468542224,0.10485460257781098
27.072412,15.432527850330768,0.10455621979393791
27.074796,15.42816293693281,0.10424807738472296
27.07718,15.418443347601661,0.10397258107707073
27.079576,15.410586089390067,0.10368972407009046
27.081964,15.403799766365115,0.10339958264320841
27.084344,15.395011342593742,0.10311954865075985
27.086744,15.383569191769897,0.10284608680056258
27.089132,15.365561660199361,0.10261453667082206
27.091512,15.353280891614355,0.10235957039831234
27.093912,15.340860353402489,0.10210724134186253
27.0963,15.327229110377123,0.10186440744427908
27.09868,15.316391364031091,0.10161177288602491
27.101076,15.299919402498146,0.10139723548032377
27.103464,15.280094865778427,0.10120485708667037
27.105848,15.259990789804986,0.10101830131688327
27.108244,15.24240067125716,0.10082794379285676
27.110632,15.223971934948173,0.1006561646042747
27.113016,15.21462253681149,0.10043944165924565
27.115412,15.207135469794364,0.1002163846828316
27.1178,15.19964840277724,0.09999362772047021
27.120184,15.198167637999367,0.09974217878416747
27.122584,15.193194528407858,0.0995155620760499
27.124972,15.19515888661538,0.09925770034302757
27.127352,15.198054410382678,0.0989968581404954
27.129748,15.20574553157573,0.09871803685562035
27.132136,15.213157113515058,0.09844551248238466
27.13452,15.223082652880002,0.09816997145009881
27.136924,15.241296134484335,0.09785136231255359
27.139308,15.255365644968974,0.09755520338713958
27.141691999999995,15.273020048065863,0.09725070001208982
27.144088,15.290394911909033,0.09695249516854082
27.146476,15.302135560565292,0.09669113466922118
27.148856,15.318951345901024,0.09640528376358631
27.151252,15.33585967903537,0.09613531713853771
27.15364,15.356772213662548,0.09584783393991764
27.15602,15.379267540155565,0.09556155044337909
27.158416,15.401762866648582,0.09527512002919343
27.160803999999995,15.419834682768185,0.09501681865012027
27.163184,15.43534531963393,0.09478014743657506
27.165584,15.449086173178735,0.09456533697373466
27.167968,15.464549588216238,0.0943489827304804
27.170368,15.48573976623927,0.09411289898879632
27.172764,15.504508534635304,0.09389584520183551
27.175152,15.523649390083675,0.0936887262743624
27.177532,15.538226965531772,0.09351153201302073
27.179928,15.553316397659067,0.09334081115136211
27.182316,15.572921887958394,0.09316049977234878
27.184696,15.587684559003725,0.09301574939882408
27.187092,15.600305359675781,0.09288217104618857
27.189476,15.607711254041503,0.0927742145053536
27.191872,15.617631105832837,0.09266442895680232
27.194268,15.632765863930507,0.09252919679208933
27.196656,15.647900622028176,0.09239450799932374
27.199036,15.663314919379562,0.092253875187789
27.20144,15.675236871917317,0.09213651983180254
27.203828,15.685436262962375,0.09202175172291463
27.206208,15.697637754753847,0.09189891075090822
27.208612,15.712632743224656,0.09176849815159731
27.211,15.731352393934579,0.09162800617460076
27.21338,15.750491353525083,0.09147869290408149
27.215776,15.767348673115446,0.09134416417856135
27.218164,15.782483431213116,0.09121247347323709
27.220544,15.79389352707167,0.09109087697999813
27.22294,15.802649895877753,0.09097391223708737
27.225324,15.811685803937554,0.09085089318984356
27.227704,15.819930316064438,0.09072742948076842
27.230104,15.818443863712957,0.09063818905477566
27.232492,15.819378820988474,0.09053204649720978
27.234872,15.826180310876381,0.09040494533701228
27.237268,15.8391278726304,0.09025105433482998
27.239656,15.853705448078497,0.09008074800845657
27.242035999999995,15.863999282780041,0.08993228247012765
27.24444,15.871080311921668,0.08980010409496313
27.246828,15.87536784438396,0.08967514459195286
27.249208,15.88207678647325,0.0895335534683514
27.251616,15.88785456300276,0.08939446404661941
27.254,15.891770008412717,0.08926037977732926
27.256384,15.896896158636173,0.0891185589841856
27.25878,15.899648121060872,0.08897551479219533
27.261168,15.90361078829907,0.08882449060274454
27.263548,15.90720136848493,0.0886643866226314
27.265944,15.906368438297378,0.08852815226709877
27.268332,15.908189235162299,0.08838755627297505
27.270712,15.916016334266468,0.08822445638923702
27.273108,15.92491436855728,0.08805614612408616
27.275496,15.934883338034728,0.08788264016154772
27.277876,15.950067213818508,0.0876853385290059
27.280276,15.967672499229288,0.08747279783397928
27.28266,15.981553122400953,0.08727001326467902
27.28504,15.991429544079786,0.08708263130131316
27.28744,15.993018023519229,0.08693068164080857
27.289824,16.000100948518725,0.08675033914263906
27.292224,16.013469715011194,0.08654262149103162
27.29462,16.032984553369772,0.08631041425320307
27.297008,16.05263916135521,0.08607615460946653
27.299388,16.073224934900427,0.08583987507585793
27.301788,16.094881643632284,0.08559878468947285
27.304176,16.105736452699134,0.08539260341943068
27.306556,16.11379776508665,0.08519284334465481
27.308952,16.118646271914255,0.08500829112302506
27.31134,16.12107336911486,0.0848394703460116
27.313724,16.1282035159426,0.08464180322754052
27.31612,16.135892741277782,0.0844328275793204
27.318508,16.137715434000572,0.08424283398474511
27.320888,16.143821867469917,0.08403370133732435
27.323288,16.153141106499177,0.08381047329829908
27.325676,16.164462446274854,0.0835809108503836
27.328056,16.171500045303976,0.08337145027476298
27.330452,16.18081928433324,0.08314977543059023
27.33284,16.191349228175998,0.0829205296781865
27.335224,16.211238049444784,0.08265372394733048
27.33762,16.22912476996715,0.08239499549566724
27.340008,16.240725648996545,0.08216266579767272
27.342392,16.248042787279388,0.08194983003312513
27.344788,16.253078285562097,0.08174940666402906
27.347172,16.259184719031442,0.08154459814383679
27.349568,16.266082548433708,0.08134099899479635
27.351964,16.285132751941326,0.08109501298808809
27.354352,16.307116221755148,0.08084060631549903
27.356732,16.333103893061804,0.0805735213160211
27.359128,16.364586009928505,0.08028123106867636
27.361516,16.39671975310127,0.07999402739792334
27.363896,16.43150722332651,0.07970545289392277
27.366292,16.46629469355175,0.07941656874906028
27.36868,16.492002825604683,0.07915815527994208
27.37106,16.516640022470973,0.0789058292993072
27.373456,16.53927511859085,0.07866062181013324
27.375844,16.561910214710725,0.07841543971531029
27.378228,16.584126001950022,0.07817929258132786
27.380624,16.60648155881618,0.07794092898750876
27.383012,16.622551274189366,0.07772707121203248
27.385408,16.634337248815996,0.07753077800432864
27.387804,16.64761346750985,0.07732178277641548
27.390191999999995,16.66517342695025,0.07709589558784678
27.392572,16.683944091204157,0.07686307970912507
27.394968,16.701783589898284,0.07663244597043561
27.397356,16.716829591913072,0.07640682455680879
27.39974,16.729593953927722,0.07619378124188698
27.402135999999995,16.745943208554632,0.07597799917616706
27.404524,16.757496865755783,0.07577287950569843
27.406904,16.763695847023747,0.07558929300534169
27.4093,16.76803249717215,0.07540917870549209
27.411688,16.767573549894806,0.07523955522134554
27.414072,16.77177043041635,0.07506258913730007
27.416468,16.782625239483203,0.07487225750116912
27.418856,16.79012747336328,0.07469733073604745
27.421236,16.797350167989638,0.07452786776440777
27.423632,16.80829752485511,0.07435288713392772
27.42602,16.81738255060102,0.0741810130172797
27.428404,16.82805036821277,0.07401196248926778
27.4308,16.840720286570935,0.07383734613319735
27.433188,16.857534176048798,0.07364903278982292
27.435572,16.87886412369869,0.07345700365572712
27.437972,16.89577056097517,0.07328429571035402
27.44036,16.913608163811425,0.07311063278809993
27.442751999999995,16.9322371625806,0.07293861336740257
27.445148,16.954870362842605,0.07275626119549021
27.447532,16.97764333273148,0.07257222394538715
27.449912,16.994549770007954,0.07240189969681672
27.452316,17.016251804710183,0.0722225450117674
27.454704,17.040747336091748,0.07203931453896341
27.457084,17.068036364152643,0.07185295284099659
27.459488,17.09853819777346,0.07165535264898339
27.461876,17.128528174715075,0.07145250730131862
27.464255999999995,17.158518151656693,0.07125055696941818
27.466652,17.19321117822544,0.07102654518315174
27.46904,17.23139654960783,0.0707871683935776
27.47142,17.26413469725841,0.07055305084093626
