Time,Force,Position
26.630840000000006,0.09559652643711154,0.0
26.63322000000001,0.09699422270571365,0.0
26.635620000000003,0.10510708890127791,0.0
26.638008,0.11536182547011925,0.0
26.640388,0.13162286427821113,0.0
26.642788,0.14667319827280428,0.0
26.645176000000006,0.16358586338695408,0.0
26.64755600000001,0.1794275933144654,0.0
26.649956000000003,0.19512955361511644,0.0
26.652344,0.20821309328025608,0.0
26.654724,0.21515056107928493,0.0
26.657124,0.21701289219884157,0.0
26.659512000000007,0.21687312257198135,0.0
26.66189200000001,0.21403240406440321,0.0
26.664288,0.2151958870496588,0.0
26.66668,0.21729053559469272,0.0
26.66906,0.2229700767519797,0.0
26.67146,0.23586662496201594,0.0
26.673848000000007,0.24690084205249557,0.0
26.676232,0.26287042619558726,0.0
26.678628000000003,0.2783281536594812,0.0
26.681020000000004,0.2967191474295704,0.0
26.683404,0.3111059397068258,0.0
26.6858,0.3201380560508886,0.0
26.688192,0.3230241005288406,0.0
26.690576000000007,0.33019388575334674,0.0
26.692972,0.33564110948515646,0.0
26.695364,0.33922600209740955,0.0
26.697744,0.3418797291498843,0.0
26.700140000000005,0.3463957873219157,0.0
26.702532000000005,0.34704741362797364,0.0
26.704912000000007,0.3504925366133665,0.0
26.707308,0.3519355588523425,0.0
26.709696000000008,0.35151624997176184,0.0
26.71208,0.3484432140387065,0.0
26.714476000000005,0.3384327103066222,0.0
26.716864,0.3259082491489234,0.0
26.719248000000007,0.3066213962360193,0.0
26.721644,0.28874225914512786,0.0
26.72403200000001,0.26979218686759787,0.0
26.726416,0.2493518705228487,0.0
26.728812000000005,0.22578127686339047,0.0
26.7312,0.20328161839057077,0.0
26.733584000000008,0.1848906246204816,0.0
26.73598,0.16574354133443772,0.0
26.73836800000001,0.1435234221153384,0.0
26.740752,0.12116353326937891,0.0
26.743148000000005,0.10398324431278853,0.0
26.745536,0.08562755695966272,0.0
26.747920000000008,0.06727186960653692,0.0
26.75032,0.05385154930602315,0.0
26.752708,0.04057099863236958,0.0
26.755092000000005,0.03382052228844406,0.0
26.757492,0.030143081877573915,0.0
26.75987600000001,0.02818820295940021,0.0
26.76226,0.0299579862803398,0.0
26.764660000000006,0.03144823034755896,0.0
26.767048000000003,0.03755899579670638,0.0
26.769428000000005,0.03853738318472786,0.0
26.771828,0.036058732176076656,0.0
26.774216,0.0347907859809242,0.0
26.776596,0.03731665881781855,0.0
26.778992,0.037980200535156265,0.0
26.781384000000003,0.03760811348281879,0.0
26.783764000000005,0.03813188557329629,0.0
26.786164,0.03813188557329628,0.0
26.788552,0.03813188557329628,0.0
26.790932,0.035885551990122354,0.0
26.793332000000007,0.03864374225249398,0.0
26.795720000000003,0.04340403326128245,0.0
26.798103999999995,0.050306194643347985,0.0
26.8005,0.055346024905856876,0.0
26.802888,0.05492671602527624,0.0
26.805268,0.05622996863739204,0.0
26.807664000000003,0.05860415643614638,0.0
26.810052,0.05911601311534406,0.0
26.812436000000005,0.06256113610073692,0.0
26.814832,0.06335253203365504,0.0
26.81722000000001,0.067589050951966,0.0
26.819604,0.07742447864022671,0.0
26.822000000000003,0.0864685103955693,0.0
26.824388,0.09298666931401756,0.0
26.826772000000005,0.10122738972516224,0.0
26.829168,0.10774554864361048,0.0
26.83155600000001,0.11412393793519851,0.0
26.83394,0.12409913525031943,0.0
26.836336000000003,0.13221200144588371,0.0
26.838724,0.13939370208166968,0.0
26.841104,0.1436774428282238,0.0
26.843504,0.14395698208194424,0.0
26.845892000000006,0.14223442058924782,0.0
26.84827200000001,0.14037208946969115,0.0
26.850672000000003,0.14051185909655137,0.0
26.85306,0.1369269664842983,0.0
26.85544,0.1321313690585465,0.0
26.85784,0.13348184349890546,0.0
26.860228000000006,0.1309678860732909,0.0
26.862612,0.13017649014037277,0.0
26.865008000000003,0.12952486383431486,0.0
26.867396,0.12566043196834137,0.0
26.869776,0.12058529528886912,0.0
26.872176,0.1164413241691752,0.0
26.874564000000007,0.11043502192992465,0.0
26.876948,0.10549965487731262,0.0
26.879344000000003,0.09898149595886441,0.0
26.881732,0.08900629864374349,0.0
26.88411600000001,0.08089343244817922,0.0
26.886512,0.07530643908950929,0.0
26.888900000000007,0.07013875461142001,0.0
26.89128000000001,0.06897527162616442,0.0
26.893680000000003,0.0643194438272728,0.0
26.896068,0.0636678175212149,0.0
26.898448,0.061945256028518476,0.0
26.900844000000006,0.06222479528223889,0.0
26.903236000000007,0.059990377110344766,0.0
26.905615999999995,0.052808676474558815,0.0
26.908016000000003,0.04762907658518971,0.0
26.9104,0.04151831113604229,0.0
26.912784,0.035407545686894866,0.0
26.915180000000007,0.029436549864607645,0.0
26.917572000000007,0.02546765478873728,0.0
26.919951999999995,0.020567594153088595,0.0
26.922348,0.02038060269798524,0.0
26.924736,0.025221526094110963,0.0
26.92712,0.03308826359504892,0.0
26.929516000000007,0.04278202579858016,0.0
26.931908000000007,0.052708105427588685,0.0
26.934292,0.06234273039159699,0.0
26.936688000000004,0.07206990315422233,0.0
26.939080000000004,0.08123799740940685,0.0
26.941460000000006,0.10027682576981542,0.0
26.94386,0.12355217304853494,0.0
26.946252,0.15027264331264734,0.0
26.948636000000008,0.17522333025582013,0.0
26.951032,0.2050621624233618,0.0
26.953424,0.23994082485341237,0.0
26.955804,0.27812484064199555,0.0
26.958203999999995,0.3164014042291958,0.0
26.960595999999995,0.3618477530409023,0.005941845618466319
26.962976,0.41432411745025455,0.011525791079919447
26.965376000000006,0.4639597633520288,0.01758031349070208
26.967764000000003,0.51354818742556,0.02392683598433841
26.970144000000005,0.5637309964234952,0.030142540492518827
26.972539999999995,0.6099096039285967,0.03653391180581303
26.974931999999995,0.6590214777398935,0.04273724876764421
26.97732000000001,0.7069226467376915,0.049102672294275514
26.979716,0.7586882476014629,0.05533715733123002
26.982108,0.8112452443981525,0.061605872523504
26.984488,0.8673871338070954,0.06779935158495719
26.986888000000008,0.9241806495220961,0.07402532456728932
26.989272,0.9745485541172652,0.08042159537557113
26.99165600000001,1.0187703868463238,0.0869877138526541
26.994056,1.0637836155083007,0.09348525815233019
26.996444,1.1125215064093907,0.09995413454668742
26.998832000000007,1.1601884621238423,0.10644462335200576
27.001232,1.2055737778381563,0.11298822510507879
27.00362,1.2497483887389718,0.11955047608935324
27.00600800000001,1.302722798558373,0.12577412378658645
27.008404,1.3475490357652462,0.126255876658397
27.010796,1.3863689707328692,0.12718471480330318
27.013183999999995,1.4342682438727978,0.12742169629109515
27.01558,1.4883135888788372,0.1271967142545597
27.017968,1.541008459444518,0.12714975514378488
27.020356000000007,1.5983591578090903,0.12685279408979747
27.022752,1.651146576173388,0.12692183142895408
27.025140000000007,1.708450052709717,0.12677540053975045
27.027524,1.7653342203654654,0.12676206599755627
27.029920000000004,1.8235216406333292,0.1267588091996441
27.032308,1.880870443140032,0.12691410872547274
27.034696,1.93896341975141,0.127156940184909
27.037092,2.003527333452993,0.12722837416074484
27.039484,2.0714891483117257,0.12724920017165275
27.041868000000008,2.1412188506335283,0.12745142035421445
27.044264,2.216301333030655,0.12771426729314467
27.046656,2.298831244048139,0.12801608880011775
27.049040000000005,2.393464411484872,0.12821542987964873
27.05144,2.4975924342587525,0.1285316188290227
27.053828,2.6021359741974757,0.12939097416489745
27.056224,2.7242753202576315,0.13007837734978211
27.058632000000003,2.865173955424475,0.1306711614350931
27.06102,3.021851391563568,0.13147146788429512
27.063416000000004,3.191094823114996,0.13251765953786143
27.065812000000008,3.380493344183844,0.1335402264912766
27.068200000000004,3.5871136884639188,0.13465742050334836
27.0706,3.8211061293141633,0.13553313445267348
27.073000000000008,4.07390318524147,0.1364803630659897
27.075388000000004,4.3464360218056175,0.13744831917655917
27.07778400000001,4.639635804566383,0.1383945618484709
27.080188000000007,4.953921842404347,0.13927141357701156
27.082576000000003,5.2905048401330115,0.14003101176664018
27.084976,5.643518265139982,0.1408238154433688
27.08738,6.016547010037514,0.14153369227008444
27.089768000000007,6.416575764452878,0.14206096368304255
27.092168,6.832430541668738,0.14256641292287967
27.09456,7.262575771647497,0.14300980092351392
27.09695600000001,7.6981191076719515,0.14352917170309312
27.099356,8.144509669331786,0.14388915497171473
27.101744,8.607521441440769,0.14398126772332237
27.10414,9.074537415042585,0.1440177121950728
27.106539999999995,9.535222221181057,0.14407652787436895
27.10892800000001,9.98668981537823,0.14416401662710043
27.111328,10.432991620955187,0.14417109800322458
27.113724000000005,10.872172758993749,0.1441294557624743
27.116112,11.302882755053558,0.14406012128694815
27.118496000000007,11.716321810216026,0.1440740294457236
27.120892,12.119334844481571,0.14405761412522494
27.123284,12.51341210191741,0.14399056964480297
27.125664,12.893944976552891,0.14388470742619
27.128063999999995,13.260933468388016,0.14374576812360432
27.130452000000005,13.616519447796062,0.1435629247165103
27.132836,13.96154153253819,0.14330559148637514
27.135232,14.296326483696365,0.14295178411790183
27.13762,14.602715624925976,0.14266808295151204
27.140004000000005,14.892069934399462,0.1423409692690506
27.142399999999995,15.163970103236245,0.1419843460103582
27.144791999999995,15.421861254421716,0.14157535085738168
27.147172,15.663461747955742,0.14114958422075782
27.149568,15.879272936785432,0.14078408263425982
27.151960000000003,16.076744145389014,0.1404277796431331
27.15434400000001,16.26625796455091,0.14001328698497928
27.15674,16.446463919830762,0.13955518694836141
27.159127999999995,16.617734098280906,0.13906564569321114
27.161512,16.77485359359501,0.1385834548869658
27.163912,16.91945241946716,0.13808499251048736
27.166300000000007,17.054743381457257,0.13754169402921307
27.168684,17.17565134288584,0.13699131606609968
27.171084000000008,17.278172102260076,0.13645955706202015
27.173472000000004,17.370918467043442,0.1359128950078684
27.17585200000001,17.452819502049294,0.13535863620197536
27.178252,17.518148444292116,0.1348287561059392
27.18064,17.56527528007782,0.13434039689863464
27.183024000000003,17.59508395313794,0.13390556161544262
27.185424,17.617165658323984,0.1334667101380476
27.187812000000008,17.627748511568594,0.13306042189050535
27.190196,17.627903448058408,0.13267833163658008
27.192592000000005,17.621355130032537,0.13230188353678493
27.194984000000005,17.606473543796913,0.13195032073899354
27.197364000000007,17.58791451715041,0.13159949050466407
27.199764,17.56367594934662,0.13126174001652677
27.202156,17.53347830113183,0.13094346934343948
27.204536000000004,17.498532277319526,0.13063342308052603
27.206936,17.452691806043603,0.13037002647015417
27.209323999999995,17.40275458547623,0.1301157122154943
27.211704,17.345507810057484,0.12989280999413272
27.21410400000001,17.284815911653354,0.1296799434782486
27.216492,17.22440355250294,0.12945908902954145
27.21887600000001,17.16357188447195,0.12924595296750763
27.221276000000003,17.102320907560376,0.12904013388064028
27.223664,17.041861326581717,0.12883100315992277
27.22604800000001,16.980423358215045,0.12864192680547254
27.228444,16.924664931005655,0.12843927039053585
27.230832000000007,16.8722118571548,0.1282269260107452
27.233216,16.82399530222225,0.12800067355042158
27.235616000000007,16.781225971021513,0.12775003458481554
27.238004000000004,16.74334478504515,0.12748740176675058
27.240388,16.70476475093448,0.12723909651644238
27.242788000000004,16.667208430182203,0.12699955766197957
27.245176,16.633237002042183,0.12674470552393335
27.247560000000007,16.604573028007113,0.12646906169519903
27.24996,16.575349975464604,0.12620499094705423
27.252352,16.54635924034757,0.1259511624838556
27.25473600000001,16.526540391201458,0.1256563171825841
27.257132,16.512540852839493,0.12534628693021918
27.259528000000003,16.512508797874204,0.12497199103369161
27.261908000000005,16.517876744812483,0.12459245944260558
27.264308,16.52450072253463,0.12423409619277775
27.2667,16.54066867328004,0.12384503576593504
27.26908,16.55800010701071,0.12346376924110299
27.271476000000007,16.574073614099632,0.12311047473353749
27.273868000000007,16.59452340973373,0.12274183247557105
27.276247999999995,16.620560198726494,0.1223501916860803
27.278648000000004,16.65069373701071,0.12195145521064915
27.281036,16.68506379421324,0.12154331044533134
27.283420000000007,16.72166826958766,0.12113724791794243
27.285816,16.759575997574196,0.12073666933203937
27.288208,16.80158047485218,0.12032864769425992
27.290588,16.8468903054887,0.11991447166826441
27.29298800000001,16.893223849483615,0.11951136078967844
27.295376000000005,16.93964994127715,0.11912425787567717
27.29776,16.988962077548635,0.11874011130638525
27.300156,17.041300027924937,0.1183560995305179
27.302544,17.09401006535357,0.11798303624121899
27.304928000000004,17.143367527595426,0.11763456651703405
27.30732400000001,17.18215540759776,0.11735335181330382
27.30971600000001,17.220523978719516,0.11708241636836131
27.312096,17.261825816147464,0.11679832640558156
27.314496000000005,17.300054617642356,0.11653358865170192
27.316884,17.336932944696887,0.11628202016519434
27.319264000000004,17.377675703617395,0.11601353787629141
27.321664,17.423074290336796,0.11572855438907761
27.32405200000001,17.462187035563222,0.11548162885815692
27.326436,17.499157910416372,0.11524907811761334
27.328835999999995,17.533335288590187,0.11502891239786688
27.331228,17.567233127510285,0.11481602760161767
27.333608,17.60033957049746,0.11460471987985162
27.336004000000003,17.63465671829814,0.11438553581347398
27.338392,17.67111573647209,0.1141552881204155
27.340776000000005,17.711998265019457,0.11389890237466976
27.343172,17.75129800170099,0.11364450129928749
27.34556000000001,17.79129658651682,0.11337733114201741
27.347944,17.830783314653456,0.11310621881902569
27.350340000000003,17.86854748129739,0.11284046539635403
27.352728,17.909664223128107,0.11255425650845395
27.355112000000005,17.955856101638297,0.11224304018797106
27.357512,18.001815662723,0.11192268453637179
27.3599,18.048194532688292,0.11159640424675883
27.362284,18.094341085228102,0.1112612472476179
27.364684,18.14425952183527,0.11089882087990513
27.367076,18.19152423138997,0.11054484360351273
27.36947600000001,18.23520404833241,0.11020331670638117
27.371872,18.283307375648263,0.10983671887929665
27.374260000000007,18.33089884628492,0.10946610302016536
27.376644,18.377698920988664,0.10909706912487135
27.379044000000007,18.42026247677409,0.10873644733411739
27.381432000000004,18.46152277994741,0.10837213730694034
27.383816,18.50134006088174,0.10800788830935334
27.386212,18.53584988771113,0.10765789554055401
27.388604,18.566914591555122,0.10731704547691898
27.390984000000003,18.600540474652977,0.10695818875718405
27.393384,18.633654501071632,0.10659602418803203
27.395772000000008,18.667327605997723,0.10622467269369738
27.398156,18.7014200198044,0.10584674065354897
27.40055600000001,18.734860807305015,0.1054680814323082
27.402944000000005,18.7691402125668,0.10507562567654867
27.405328,18.803699157082292,0.10467953630508932
27.40772800000001,18.834533439358676,0.10429604810965251
27.410116,18.864296786448424,0.10391907345032972
27.41250000000001,18.889776392791617,0.1035646860043206
27.414896,18.91567530801539,0.10320324806322116
27.417288,18.939851661746474,0.10284535251569914
27.41967200000001,18.95951195730552,0.10249933804655667
27.422068,18.981453892864707,0.10214139301440589
27.424456000000006,19.00367536767761,0.10177901696661262
27.42684,19.030971979169987,0.10139679497795258
27.429240000000007,19.058780447341558,0.10102006583860623
27.431628000000003,19.083795418833795,0.10065182228396019
27.434012,19.11081249107245,0.1002762255698927
27.436412000000004,19.13475652737806,0.09991406964019142
27.4388,19.1556275277506,0.09956562688875047
27.441184000000007,19.174356657749872,0.09922801804473978
27.443591999999995,19.189081586256304,0.09890579660607253
27.445988,19.20180441401632,0.09859162759083072
27.448376,19.21438747214948,0.09828081671274123
27.450784,19.222686789536088,0.09799034231905535
27.453176,19.22963563248233,0.09771034174411064
27.455563999999995,19.237515640988352,0.09742813707249266
27.45796,19.245395649494377,0.09714630104573739
27.460348,19.256768002814034,0.09684548043261257
27.462736000000007,19.27000268725325,0.09654078232987658
27.465132,19.286310407625518,0.09622486448049274
27.467520000000007,19.302338588744064,0.09591371790136491
27.46992,19.313151863556282,0.09562432682818972
27.472328000000005,19.322894203181864,0.09533999011206541
27.474716,19.329703276501252,0.09506584417775556
27.477112000000005,19.336931658701214,0.0947846674678616
27.479508,19.345742832767012,0.09450396781479711
27.4819,19.355205633138873,0.09422644748491586
27.484296,19.366530764630287,0.09394459977178064
27.486695999999995,19.376924730561925,0.09366492360289674
27.489087999999995,19.387318696493562,0.09338535404847348
27.491488000000004,19.40530175653029,0.09308672483468503
27.493892,19.42314504694015,0.09279068228733389
27.49628,19.439265775857315,0.09249706532611729
27.498676000000003,19.457528375147756,0.09219451942284794
27.501068000000004,19.477001679251703,0.0918857231936038
27.503456,19.495543817795866,0.09157941349810776
27.50586,19.51287525152653,0.09128030029575976
27.508256000000003,19.524991778950866,0.09100161761046562
27.510652000000007,19.532172939322585,0.09073830336757739
27.513052,19.53521012857461,0.09049070973382102
27.51544,19.541320353759694,0.09023237899928482
27.517840000000007,19.55143478043761,0.0899611858687601
27.520236,19.565553408608363,0.08967795249608188
27.522628,19.576599000846056,0.08940546041872195
27.52502800000001,19.58764459308375,0.08913342971570999
27.527424,19.597759019761668,0.08886354450306974
27.529812000000007,19.60829275532016,0.08858721690927068
27.532196,19.615613685318742,0.08832367956034567
27.534592000000004,19.624657176810018,0.08805871685702223
27.53698,19.63449206423421,0.08779441279216108
27.53936400000001,19.63445621755318,0.08755884681011575
27.54176,19.636562241245432,0.08731499130986747
27.544152,19.63624685531068,0.08708408096152062
27.546532,19.63672286530885,0.08685399449627759
27.548932000000008,19.635988170493526,0.08663077260183055
27.551320000000004,19.636184641237975,0.0864057996647926
27.553704,19.637871356049644,0.08616969855396729
27.5561,19.64249133716751,0.08592569945346068
27.558488,19.650044584591566,0.08567385219926564
27.560872000000003,19.658528997575406,0.08542010628842589
27.563272,19.66566293611888,0.08517561203276403
27.56566000000001,19.672936644289223,0.08492935813957987
27.568044,19.67271380615309,0.08471179378382598
27.570440000000005,19.67328236394988,0.08449445155644392
27.572828,19.673711152119804,0.08427965550853861
27.575212000000008,19.67628181066301,0.0840569615093441
27.577608,19.67363756289988,0.08385200452867644
27.57999600000001,19.677279156629723,0.08362540499601197
27.58238,19.683993786292618,0.08338973124835548
27.584779999999995,19.688846084835955,0.0831573889596337
27.587168000000005,19.70077562080519,0.08290407586175148
27.589548000000008,19.711494451960917,0.08265754374652867
27.591948,19.72449492311679,0.08240056359695527
27.594336,19.734562127966466,0.08215099624369746
27.596720000000005,19.74076490095017,0.08190996783601064
27.59912,19.743754868373955,0.08168058006183547
27.601507999999995,19.746325526917158,0.08145838929236726
27.603892,19.745543610273582,0.08125004588340952
27.606288000000006,19.742759592883594,0.08104712548896358
27.608680000000007,19.741046510680246,0.08084035843924309
27.611064,19.7388215717977,0.08062826281076049
27.613464000000008,19.733523596982096,0.0804254487724803
27.615852000000004,19.73385983735341,0.08019862208712258
27.618236,19.736337948097994,0.07996408476566855
27.620636000000005,19.7378848932828,0.07973118127835961
27.623024,19.737289968094327,0.07950609010458284
27.625408000000007,19.741770179585334,0.07926650871368404
27.627808,19.739312923277303,0.07904430927265255
