Time,Force,Position
28.98612,0.14765220750821573,0.0
28.988504,0.13169624967133048,0.0
28.990884,0.1168112270210838,0.0
28.993284,0.10299713955747565,0.0
28.995672,0.09025398728050603,0.0
28.998051999999998,0.07630013019003766,0.0
29.000448,0.06513976977890426,0.0
29.002835999999995,0.05598151011418771,0.0
29.005232,0.04561254563597244,0.0
29.007636,0.038037077837092106,0.0
29.01002,0.029390674851573245,0.0
29.012404,0.021535667798972497,0.0
29.0148,0.013540891119511539,0.0
29.017188,0.006756819253549322,0.0
29.019572,0.004768344813338918,0.0
29.021968,0.0018487048133501932,0.0
29.024356,0.0,0.0
29.026736,0.0,0.0
29.029132,0.0010573088804320832,0.0
29.03152,0.002254387387724376,0.0
29.033904,0.002254387387724376,0.0
29.036296,0.002254387387724376,0.0
29.038684,0.0022543873877243765,0.0
29.041064,0.0022543873877243765,0.0
29.043464,0.0022543873877243765,0.0
29.045848,0.0022543873877243765,0.0
29.048232,0.0022543873877243765,0.0
29.050636,0.0022543873877243765,0.0
29.053024,0.0022543873877243765,0.0
29.055408,0.003032157014436039,0.0
29.057807999999994,0.003032157014436039,0.0
29.060196,0.003032157014436039,0.0
29.062576,0.003032157014436039,0.0
29.064972,0.003032157014436039,0.0
29.06736,0.0030321570144360393,0.0
29.06974,0.0030321570144360393,0.0
29.072136,0.0030321570144360393,0.0
29.074524,0.0030321570144360393,0.0
29.076904,0.001974848134003956,0.0
29.0793,0.0007777696267116623,0.0
29.081688,0.0007777696267116623,0.0
29.084072,0.0007777696267116623,0.0
29.086472,0.0007777696267116623,0.0
29.08886,0.0007777696267116623,0.0
29.09124,0.0007777696267116624,0.0
29.093636,0.0007777696267116624,0.0
29.096024,0.0007777696267116624,0.0
29.098403999999995,0.0007777696267116624,0.0
29.100804,0.0007777696267116624,0.0
29.103192,0.0,0.0
29.105576,0.0,0.0
29.107972,0.0,0.0
29.11036,0.0,0.0
29.112739999999995,0.0,0.0
29.115136,0.0,0.0
29.117528,0.0019412526119672528,0.0
29.119907999999995,0.0070953107838500964,0.0
29.122304,0.01145797302281483,0.0
29.124696,0.013027138582444604,0.0
29.12708,0.013027138582444604,0.0
29.129476,0.016598404888491226,0.0
29.131864,0.01830734007498121,0.0
29.134243999999995,0.018307340074981207,0.0
29.136644,0.01857325302249518,0.0
29.139032,0.019770331529787476,0.0
29.141411999999995,0.02096741003707977,0.0
29.143808,0.02430635891764912,0.0
29.146196,0.026714142238440156,0.0
29.148592,0.02912192555923119,0.0
29.150996,0.029121925559231186,0.0
29.15338,0.029121925559231186,0.0
29.155764,0.02912192555923119,0.0
29.158159999999995,0.02912192555923119,0.0
29.160548,0.02912192555923119,0.0
29.162928,0.02912192555923119,0.0
29.165324,0.027180672947263937,0.0
29.167711999999995,0.022026614775381096,0.0
29.170092,0.017663952536416363,0.0
29.172492,0.01609478697678659,0.0
29.174879999999995,0.01609478697678659,0.0
29.17726,0.012523520670739967,0.0
29.179655999999994,0.010814585484249984,0.0
29.182044,0.010814585484249984,0.0
29.184424,0.010548672536736012,0.0
29.18682,0.009351594029443718,0.0
29.189208,0.008154515522151424,0.0
29.191588,0.004815566641582069,0.0
29.193991999999994,0.0024077833207910345,0.0
29.196376,0.0,0.0
29.19876,0.0,0.0
29.201156,0.0,0.0
29.20354,0.0,0.0
29.205936,0.0,0.0
29.208332,0.0,0.0
29.210716,0.0,0.0
29.213096,0.0,0.0
29.2155,0.0,0.0
29.217887999999995,0.0,0.0
29.220264,0.0,0.0
29.22266,0.0,0.0
29.225048,0.0,0.0
29.227428,0.0,0.0
29.229831999999995,0.0,0.0
29.232216,0.0,0.0
29.234596,0.0,0.0
29.236996,0.0,0.0
29.23938,0.0007777696267116623,0.0
29.241775999999994,0.0038371792535605966,0.0
29.244172,0.007687984813327641,0.0
29.246559999999995,0.007814128133981402,0.0
29.24894,0.007814128133981402,0.0
29.251335999999995,0.009011206641273696,0.0
29.253719999999998,0.012210385894982839,0.0
29.2561,0.016200961081610094,0.0
29.258503999999995,0.023124802574432522,0.0
29.260892,0.02711537776105977,0.0
29.263272,0.029895248134188285,0.0
29.265676,0.03346651444023491,0.0
29.268063999999995,0.034104514440086366,0.0
29.270444,0.03674461518635467,0.0
29.272848,0.039244946305762765,0.0
29.275231999999995,0.04346783891786728,0.0
29.277612,0.043826299663998314,0.0
29.280012,0.044836386716187254,0.0
29.282396,0.044836386716187254,0.0
29.28478,0.044836386716187254,0.0
29.287175999999995,0.044058617089475595,0.0
29.289559999999994,0.040999207462626655,0.0
29.29194,0.03714840190285961,0.0
29.294332,0.03710118007461646,0.0
29.29672,0.03710118007461646,0.0
29.299116,0.03590410156732417,0.0
29.30152,0.03270492231361503,0.0
29.303908,0.028714347126987772,0.0
29.306287999999995,0.021790505634165347,0.0
29.308684,0.01801672570893967,0.0
29.311072,0.015965507276410423,0.0
29.313452,0.01656801589635593,0.0
29.315856,0.022058669740670306,0.0
29.31824,0.02536023138346447,0.0
29.32062,0.03126829825049024,0.0
29.323024,0.04122589258072361,0.0
29.325408,0.061192094785171985,0.0
29.327788,0.08623153781122338,0.0
29.330192,0.12210268430857533,0.0
29.33258,0.16975032614321262,0.009057605781057522
29.334959999999995,0.23140888148702943,0.01769583056313323
29.337356,0.30717089813864273,0.02622454464822263
29.339744,0.3948472838965324,0.0350391194651908
29.342124,0.5017612199182712,0.043745918572034574
29.34452,0.6326791551593287,0.05226774099965688
29.346908,0.7920835522696997,0.060669681259528124
29.349292,0.9792755631150831,0.06906478618842952
29.351688,1.195698209934455,0.0774432023553874
29.354076,1.4430740542205116,0.08577560889029202
29.356455999999994,1.724259336644907,0.09399329780444435
29.358852,2.039098765416705,0.10211200441094133
29.361239999999995,2.3824246560578173,0.11016381309070655
29.36362,2.7531207474112294,0.1181553143264245
29.366024,3.1532363620516035,0.12606627905729137
29.368412,3.574298462142316,0.1339574841473199
29.370796,4.009044714660246,0.14185647081439917
29.373192,4.460315838112968,0.14971206625081443
29.37558,4.923456004701594,0.15759699579796413
29.377964,5.393577069201753,0.16551380776745936
29.38036,5.871145562322271,0.16436170023252655
29.382748,6.353415209212054,0.16361235887295222
29.385127999999995,6.841783706139706,0.16292806230400145
29.387528,7.336625036015433,0.16190879462234706
29.389916,7.824205928725905,0.16098067769215335
29.392295999999995,8.298010121210545,0.16019455841316205
29.3947,8.7502653196249,0.15945775683016675
29.397088,9.17878432762532,0.15866325685547464
29.399468,9.579749935174071,0.15783158574599962
29.401872,9.949996558539487,0.156994332735726
29.40426,10.281096485855315,0.15628103932441378
29.40664,10.574492739360533,0.15566954206513595
29.409043999999994,10.83316391133171,0.15514848794259803
29.411432,11.064464882590585,0.15469140738581497
29.413812,11.26988400134651,0.15434019831967552
29.416208,11.460408262861721,0.15400046564622266
29.418596,11.638783941987308,0.15366133972972193
29.420976,11.802357311670798,0.1533563781261654
29.423372,11.959044227099241,0.15296830702191117
29.42576,12.10782097491424,0.152488471711699
29.428144,12.243240331383987,0.15196901615654615
29.43054,12.360646468709588,0.15144545179464583
29.432928,12.456966350957988,0.1509513387788331
29.435308,12.535225792234002,0.15047604889486466
29.437704,12.598543154441058,0.15002033542694782
29.440092,12.65120028246784,0.14960210828729734
29.442476,12.694638302695457,0.1492809393787342
29.444872,12.736259317773893,0.14901992933562117
29.44726,12.776295645128622,0.1488307370661488
29.449636,12.818844034051097,0.14869417697050538
29.45204,12.86967846935509,0.14853702696533638
29.454428,12.92563336730893,0.14837142966951777
29.456807999999995,12.984801070822684,0.1481699558190075
29.459212,13.042852513179426,0.14794019972739808
29.4616,13.099370281356444,0.1476319857586107
29.46398,13.145601798263398,0.14730198433851885
29.466384,13.182617999086922,0.14693744899151284
29.468768,13.209440496438997,0.1465681287519969
29.471148,13.221878097371686,0.14625757089519495
29.473544,13.22290939416156,0.1460190169559041
29.475932,13.215001122405987,0.14586025969648347
29.478311999999995,13.205974693635532,0.14573473025537773
29.480716,13.19699359083545,0.1456492720392844
29.483104,13.190711541058217,0.1455872154258552
29.485484,13.192762759490746,0.14548519027094586
29.487888,13.197327935348891,0.14537098292039174
29.490272,13.203802664154836,0.14522062669172514
29.492652,13.207810657363407,0.14506087735573392
29.495056,13.210702389414967,0.1448720117166907
29.497443999999994,13.210895068443678,0.14466009871453858
29.499824,13.205687745568824,0.14446323338413075
29.502227999999995,13.198246004522073,0.14427049419933502
29.504611999999995,13.193038681647216,0.14407408422651338
29.506992,13.187504597690397,0.14390790322204022
29.509387999999998,13.18131699156965,0.14380195290374004
29.511772,13.178712382203287,0.1437346472246003
29.514152,13.184114279964723,0.14365933080884968
29.516548,13.195288266682063,0.14357993263302307
29.518936,13.214143895303106,0.14346169630462663
29.52132,13.235513481349765,0.1433313378423315
29.523723999999994,13.261306577769842,0.14315378505185922
29.526112,13.286727587137579,0.1429661441469951
29.528492,13.31647955908011,0.14271458531764158
29.530888,13.342833629865492,0.1424604265549434
29.533276,13.364671642478843,0.14223699440820628
29.535656,13.386369885465335,0.14201870762875224
29.538059999999994,13.411885338489556,0.1417930260584707
29.540448,13.442009397484426,0.14155810133353108
29.542828,13.47846462394264,0.14130556728577057
29.545224,13.51538448525181,0.14108051695583446
29.547612,13.557611800665926,0.14082608155876028
29.549992,13.6017014471996,0.1405595647664885
29.552392,13.642905049255326,0.1402959641794754
29.55478,13.684155873139293,0.14001154148991285
29.55716,13.72093786067947,0.13973231732122968
29.559556,13.755532651875997,0.13943519127999576
29.561944,13.780583470049265,0.1391884484997444
29.564328,13.798324733371166,0.13898778865830275
29.566724,13.814575752625847,0.13881054892694195
29.569112,13.836693304492918,0.13858977234911637
29.571496,13.863187144905162,0.1383482875910357
29.573892,13.895407748302933,0.1380679705015183
29.576276,13.928000438753044,0.13779997265650276
29.578655999999995,13.963758712934826,0.13752451387548095
29.581064,14.002729792676524,0.1372219411902122
29.583452,14.039838541298666,0.13693189803305789
29.585832,14.075644037308692,0.13664051875485395
29.588228,14.10549045290771,0.13637587190538752
29.590619999999998,14.12937778809572,0.13613819257755405
29.593,14.153963971418033,0.13588219447550248
29.595396,14.177339449926846,0.1356409002156783
29.597784,14.203368655488134,0.13538777778062636
29.600164,14.235217171833572,0.13511549886691393
29.60256,14.27037104153754,0.13483364057993594
29.604952,14.31669889795885,0.1344871526350214
29.607327999999995,14.36661164699241,0.13412409565863626
29.609736,14.423182324571279,0.13371913626193885
29.61212,14.490322584389673,0.13322861492801277
29.6145,14.55485633898384,0.13273283516389317
29.616896,14.612220308353495,0.13227667178102046
29.619284,14.65948122619245,0.13187734366127418
29.62168,14.69943258918004,0.13151895362183455
29.624075999999995,14.736218368435953,0.1311697520770737
29.626464,14.770909499146837,0.13082017581144548
29.628844,14.80108457168569,0.13049508913617378
29.631248,14.83316919717234,0.13014092371929617
29.633636,14.860086138180904,0.12980742564198577
29.636016,14.889564258443324,0.1294460091631012
29.63842,14.918949830907124,0.12906848293961967
29.640808,14.944518193333199,0.12869553277088433
29.643187999999995,14.968830524975397,0.12830035215477506
29.645592,14.985880523594473,0.1279235055909536
29.64798,14.994085397324588,0.12756827156245032
29.650355999999995,14.99689026915114,0.12722094085698032
29.652764,14.987497440901956,0.12692344771225447
29.655148,14.972564841122345,0.12663611264556582
29.657528,14.950741995371947,0.12637404009811012
29.659924,14.918536558837127,0.12616912296518096
29.662312,14.881675294503415,0.12598796282465027
29.664691999999995,14.846583813490644,0.12577993013738395
29.667092,14.817406086918508,0.12551496195615455
29.669476,14.790929309227089,0.12521835240693185
29.671859999999995,14.759284847057579,0.12493946857096043
29.674256,14.72247270040998,0.12467828282004619
29.676644,14.684776610030845,0.12440103979139372
29.679024,14.64135375666618,0.1241554686742487
29.681428,14.601143708861436,0.12388359937980212
29.683816,14.555998294004077,0.12364204233970304
29.686195999999995,14.510293800639275,0.1234135957050785
29.688592,14.470176300633144,0.12315481461511116
29.69098,14.42908041323899,0.12291959458763005
29.69336,14.391941505509429,0.12267703654160515
29.695756,14.354755375951624,0.12245335396333026
29.698144,14.317010167886378,0.12224280125263079
29.700528,14.282290773925945,0.12202979341835463
29.702932,14.246313453323769,0.12184816136464591
29.70532,14.215643586826543,0.12164385947584666
29.7077,14.187068368874352,0.121442292988401
29.710096,14.165802705773526,0.12120485853765178
29.712484,14.14341888565782,0.1209957055999385
29.714864,14.120848074087007,0.12081004619390975
29.717264,14.099440745501452,0.12063230287653419
29.719648,14.085854828446461,0.12042576662831544
29.722032,14.081021488481811,0.12018612956529967
29.724428,14.074510912994842,0.11998880005363136
29.726816,14.076101288292156,0.11975630827577714
29.729195999999995,14.077784211388085,0.11954072470856282
29.731592,14.082772487842547,0.11931644415150253
29.733979999999995,14.090554260976345,0.1190782525007182
29.73636,14.094564150042787,0.11887961074506342
29.738755999999995,14.100296600601924,0.1186755029899197
29.741144,14.104818346347566,0.11848320686111957
29.743528,14.117860351758068,0.11824640439420124
29.745932,14.136070041646665,0.11799324882740467
29.74832,14.157585084893787,0.11773288279022186
29.750704,14.190041797432777,0.11740628814439366
29.7531,14.222218970718046,0.11708829159466648
29.755488,14.259191741429065,0.11674524776090996
29.757867999999995,14.293743102513087,0.11642660018227786
29.760264,14.329225629156888,0.11610365959705131
29.762652,14.364568386173827,0.1157854585171818
29.765035999999995,14.39776927281749,0.11548377439683934
29.767432,14.426826188341463,0.11521121868576566
29.76982,14.45173913274574,0.11496798800613965
29.7722,14.481727213829489,0.11469246302594784
29.774595999999995,14.505708992673986,0.11445427690290183
29.776984,14.531692872264902,0.11420489766579899
29.779364,14.56047024853515,0.11394327861983308
29.78176,14.592832517417653,0.11367036511413109
29.784147999999995,14.62812805260635,0.11338195212037369
29.786532,14.663283818168187,0.11309809216059
29.788928,14.702443785222858,0.11279195197012948
29.791315999999995,14.733735118918723,0.11253037951847515
29.793712,14.762512495188972,0.11227567192475314
29.796108,14.789707079593386,0.11202319591372609
29.798496,14.804749289892436,0.1118440087556549
29.80088,14.816718464258434,0.11168379159557157
29.803276,14.826825307504874,0.11153239492264953
29.805664,14.840144956311228,0.1113595155103485
29.80804,14.851462504371167,0.11119782874536344
29.810436,14.85905539019199,0.1110520035468824
29.812824,14.869581542319011,0.11089116964119865
29.815203999999994,14.884391435192585,0.1107016386856176
29.817608,14.901762507320017,0.1104882402783348
29.819992,14.91955288832803,0.11026599343934956
29.822371999999994,14.940556074895959,0.11002224980908538
29.824776,14.958905534411413,0.10978745706399115
29.827164,14.977674302807447,0.10954396276371671
29.829539999999994,14.988993746725257,0.10933162715587867
29.831936,14.999941103590727,0.10911075981876489
29.83432,15.0091658989635,0.10889433665467474
29.8367,15.0157369672838,0.10868662195636057
29.839116,15.025520841164013,0.10845767695294009
29.8415,15.034373549484451,0.10823260930089763
29.84388,15.040572530752412,0.10801516832768457
29.846284,15.05640992870012,0.10773518642326393
29.848672,15.075739671461466,0.10742803654041896
29.851052,15.09548872310339,0.10711221759270406
29.853448,15.111792651759922,0.10680557291077285
29.855832,15.13186846448381,0.1064657579352832
29.858211999999995,15.15608824832739,0.10610183423555707
29.86062,15.17793384437222,0.10573995881909112
29.863004,15.196985943737713,0.10539030015793467
29.865384,15.212033841610372,0.10506183788218537
29.867776,15.223357077243918,0.10474793259529051
29.870163999999995,15.234959852131185,0.10442858612973493
29.87256,15.249775432578371,0.1040901998783715
29.874956,15.261797516346217,0.10376286311344377
29.877344,15.276101240114203,0.10341876381798186
29.879724,15.28719215832227,0.1030946630010483
29.882132,15.29949378134384,0.10276103373267274
29.884519999999995,15.311655634738546,0.10243108740271563
29.8869,15.323026092200337,0.10210156450833469
29.889304,15.334256780035265,0.10177514195507908
29.891687999999995,15.351214230855723,0.10142622958801104
29.894068,15.361885840183211,0.10111394832178748
29.896476,15.371206975070342,0.10081502936556322
29.89886,15.37517343402428,0.10054778705281964
29.901244,15.374716382604802,0.10030853679600843
29.90364,15.371558382304604,0.1000948808411258
29.906028,15.364256410884712,0.09990339349769863
29.908407999999994,15.35825769207694,0.09971814654751837
29.910804,15.353050369202085,0.09953301474607448
29.913191999999995,15.35128816931262,0.09934156942781246
29.915575999999994,15.351108761288994,0.09914999488865862
29.917972,15.347716547705451,0.09897727427320514
29.920356,15.344696421174245,0.09881452702765035
29.92274,15.344330021695514,0.09864585750474356
29.925135999999995,15.3464775796424,0.09847451631879092
29.927524,15.351558403895481,0.09829100104511232
29.929904,15.356639228148557,0.09810775403443271
29.932308,15.362511448334555,0.09792491494958713
29.934692,15.37210833075966,0.09773073851210536
29.937076,15.383847083558049,0.09752479680145403
29.939471999999995,15.392792339677104,0.09732846128147428
29.94186,15.406533193221907,0.09711494723463616
29.94424,15.422415917139988,0.09689024693901141
29.946636,15.446726352924317,0.09662178609229545
29.949023999999994,15.47997635725409,0.096315672242669
29.951404,15.51629939751692,0.09599574580174661
29.953804,15.56077061039228,0.09563950298900169
29.956191999999994,15.603519261774945,0.09528643369242669
29.958572,15.643194877224552,0.09494822471966406
29.960968,15.681287700808323,0.09461070656263737
29.963356,15.719520294018954,0.09427089144019764
29.965736,15.758544283162504,0.09393104900284502
29.968132,15.7927726748803,0.09360877129437405
29.97052,15.825138735478541,0.09329319980554633
29.9729,15.854571529770586,0.09298962575757763
29.975296,15.884004324062632,0.09268717407487313
29.977684,15.915299449474235,0.09238068699569223
29.98008,15.942730143019864,0.0920877686218143
29.982476,15.965085699886021,0.09181773440806423
29.984863999999995,15.98716171749846,0.09155456541554712
29.987244,16.006956095110755,0.09130559588412364
29.989647999999995,16.020092544177746,0.09107797742557404
29.992036,16.03015595731168,0.0908645177539509
29.994416,16.03672702563198,0.0906745266042688
29.996812,16.040364827646084,0.09049584082662782
29.999199999999995,16.041069363353994,0.09032780590393563
30.001584,16.036558992755566,0.09018433767292441
30.00398,16.037123758836618,0.09002029508507718
30.006367999999995,16.0416927264105,0.08984088153329635
30.008748,16.045330528424604,0.08966395067862887
30.011143999999994,16.050039265625347,0.08948204820081972
30.013528,16.061033844319063,0.08927226803339126
30.015908,16.07030586152008,0.08906369089291068
30.018308,16.080509044280873,0.0888531789073984
30.020696,16.093785262974723,0.08863035202864263
30.023076,16.10519915054902,0.08841249561969093
30.025472,16.111118592563262,0.0882234390693973
30.02786,16.122113171256977,0.0880143466622222
30.030255999999994,16.137111951443522,0.08779058968814969
30.032652,16.15145910532401,0.08756389214795594
30.035036,16.17195233107061,0.08731291825733653
30.037416,16.196309988683186,0.08704979627067597
30.039812,16.223880451855674,0.08677218793215256
30.0422,16.24879718797569,0.0864987026160109
30.04458,16.273853693722568,0.08622335785664041
30.046976,16.300120904282938,0.0859404870023259
30.049364,16.32559671891039,0.08565724758041272
30.051744,16.34227273461926,0.08540241676359611
30.054144,16.353361756969463,0.08516057008217708
30.056532,16.36538194487944,0.0849167518333604
