Time,Force,Position
29.28562,16.590606557410634,0.05083416988933874
29.288008,16.530462362366727,0.05060789944137996
29.290392,16.472320268069236,0.050377430818437215
29.292791999999995,16.409614893771472,0.05016091812019448
29.29518,16.345931132085685,0.04996057081981303
29.297564,16.276613155212985,0.049776825328620176
29.299959999999995,16.20180073278023,0.04960747135874815
29.302352,16.129362498146236,0.049444080275902545
29.304735999999995,16.0551544801913,0.04929474178945624
29.30714,15.976895038915286,0.049167480829913984
29.309532,15.898867915064749,0.0490518147614895
29.311916,15.823354748639826,0.04893982685692515
29.314312,15.74313853258777,0.04884536669428768
29.3167,15.664365338774687,0.048757653795494654
29.319084,15.5878265631335,0.04867962323862757
29.321496,15.510588939358012,0.048613913632652855
29.323888,15.429207344462828,0.04855586818141268
29.326272,15.346335505500429,0.048507923527810276
29.328679999999995,15.257969220977973,0.048475963221937465
29.331068,15.17397922500069,0.0484486995233549
29.333448,15.089150611262248,0.04843740906524426
29.33586,15.001900587896804,0.04843651128631327
29.338248,14.911297989344586,0.0484457522753945
29.340628,14.822278182658204,0.04846017895041382
29.343024,14.734329311158461,0.04847171335292544
29.345412,14.647823461897696,0.048492184635482466
29.347791999999995,14.562900404502765,0.04851835059046948
29.350208,14.47383337598814,0.04855314994847204
29.352595999999995,14.385697513033293,0.04858813182221437
29.354976,14.299703520451722,0.048617514079876155
29.357372,14.217853498989847,0.04863811646547055
29.35976,14.135444399020532,0.04867034389315188
29.36214,14.056899730917188,0.048700274509018614
29.36454,13.98114855949318,0.04873021816052259
29.366928,13.902464121762979,0.04876395427362275
29.369308,13.824431310338834,0.04880406039098371
29.37172,13.753708053766058,0.04884742913042977
29.374108,13.678980595700445,0.04889772528673174
29.376488,13.603321972075056,0.04894936852395339
29.378884,13.52244844214333,0.04901475653082242
29.381272,13.43449767478572,0.049095506638500284
29.383652,13.343845958547389,0.04919698857274584
29.386048,13.24965467566718,0.04933979601214917
29.388435999999995,13.153134530958592,0.04951801442454282
29.39082,13.055356459608259,0.04972764396442375
29.393216,12.964468634228714,0.04995155754030193
29.395603999999995,12.871112177393927,0.05021631132310668
29.397988,12.78087408246257,0.05052044822634983
29.400384,12.687748047195392,0.05087714016982785
29.402771999999995,12.595598503458366,0.051279806795999014
29.405156,12.499722401624359,0.05175609083715898
29.407552,12.404543252066782,0.05228849957725668
29.409939999999995,12.316439444077224,0.05287430011038043
29.41232,12.228193970602938,0.053536456689774706
29.41472,12.148886169816228,0.05425154649541074
29.417104,12.072789278731564,0.05502680894289305
29.419488,11.999391440669749,0.05584972377013715
29.421883999999995,11.935350584176092,0.05671410964414718
29.424272,11.880526939623731,0.05762456461458124
29.426656,11.833617254400552,0.0585684920476172
29.429051999999995,11.794901067760275,0.059543540446026895
29.431443999999995,11.760002091157727,0.06054286885903051
29.433824,11.732552439033405,0.06154326661157004
29.436219999999995,11.710829549894614,0.06254028804612345
29.438608,11.68975828706188,0.06355077170551135
29.440988,11.662029095683836,0.06457893988194235
29.443384,11.638863184306068,0.06558850689571426
29.445772,11.61160052363685,0.06659989897676508
29.448156,11.58838928628871,0.06758283936336858
29.450552,11.557216867783143,0.06858010073848982
29.45294,11.529351698493981,0.06951865766166135
29.45532,11.499206785062551,0.07040722046037476
29.457716,11.458401637450846,0.07125934849108163
29.460104,11.41243070121892,0.0720473573243586
29.462488,11.356358609314164,0.07278421056268551
29.464884,11.291256296923214,0.07346852821268642
29.467272,11.217495851098407,0.07411227484422298
29.469652,11.13093330072005,0.07473909530446081
29.472048,11.035572847280982,0.07533172235449301
29.474436,10.931134951527472,0.07589990181989333
29.47682,10.822135671631559,0.07643774734784528
29.479216,10.708435237966379,0.07694823063725849
29.481604,10.590173420158793,0.07742412349365643
29.483988,10.467070678955082,0.07787305815264617
29.486384,10.3409893454748,0.07829373810121813
29.488772,10.216305708263123,0.07868051647557425
29.491156,10.087013465080798,0.07906145837059286
29.493552,9.959118918167073,0.0794091104098851
29.495936,9.825684599722923,0.07975518127887514
29.498316,9.69672101348043,0.08005046889868209
29.500716,9.563520908319624,0.08035301441787283
29.503104,9.425804744986788,0.08067761106368672
29.505488,9.29050999128095,0.08098399216247282
29.507884,9.15693779906781,0.08129741131726335
29.510272,9.02108396685453,0.08164584566694819
29.512652,8.886533387253364,0.0820224823281039
29.515048,8.75291397321198,0.08240638734213175
29.517436,8.62329876066343,0.08278011782808
29.51982,8.495406109607574,0.08316453883124753
29.522216,8.368165084857777,0.08357392465037579
29.524604,8.243065930481256,0.08397480215101721
29.526983999999995,8.115824905731458,0.08441437807203267
29.52938,7.986302240981525,0.08489522346905465
29.531768,7.853287231417953,0.08543994279305388
29.534151999999995,7.7167798770407465,0.08605788732312533
29.536548,7.577059717103626,0.0867314616706832
29.538936,7.436268621979864,0.08744353853815975
29.541319999999995,7.294266822042607,0.08819757280650295
29.543716,7.156641310650518,0.08896031448622685
29.546108,7.01873626000471,0.0897567730123602
29.548487999999995,6.881482835664959,0.09058754738990772
29.550884,6.745812203191044,0.0914633167616875
29.553276,6.607720161090132,0.09241185928732105
29.555655999999995,6.4688367230563015,0.09339121388386193
29.558056,6.330884450582251,0.09442042000031714
29.56044,6.1953535877351955,0.09544304395551174
29.562824,6.0584722504477835,0.09654665966898827
29.56522,5.92103183465293,0.09773537988874893
29.567608,5.786804224417993,0.09889991353814769
29.569992,5.654718484556332,0.1000838990800359
29.572392,5.5214220398811715,0.10133646886373496
29.57478,5.393200731885483,0.10256624639682746
29.577164,5.266841755009351,0.10383835507928829
29.57956,5.141553713319859,0.10517991804370881
29.581952,5.021620347563559,0.1064924682006448
29.584336,4.9007558162474805,0.10791598367578392
29.586732,4.785757817543792,0.10929151497643629
29.58912,4.673553315519438,0.11069083803423076
29.591504,4.559346712748669,0.1121949497653862
29.5939,4.447933606657234,0.1137077296820433
29.596288,4.338522601312217,0.11524286383379335
29.598668,4.234186732646672,0.11673577824326056
29.601064,4.1325045910336,0.11828808299644789
29.603452,4.030263370913088,0.12000206142343856
29.605836,3.9377531152709393,0.12154563510421892
29.608232,3.848268673733603,0.1231403296110569
29.61062,3.767444261487993,0.12458960407177257
29.613,3.690624050735216,0.12601321815212732
29.6154,3.6101717255419428,0.1276565435209636
29.617784,3.5362375592671187,0.12918473185330998
29.620168,3.4691010911644624,0.13056573790242643
29.622564,3.403407645300782,0.13198953845285433
29.624952,3.3423700272359937,0.1333544459535654
29.627336,3.2892010425300127,0.13454417008961006
29.629732,3.2404083463692026,0.13567585234720747
29.632124,3.2021380106196746,0.1365569822810937
29.634504,3.1625172004297872,0.13753467703263636
29.636904,3.124758721359457,0.13849637587211613
29.639292,3.093797940461295,0.1392725367638376
29.641672,3.065490886615608,0.1399996281512427
29.644072,3.039837559822396,0.14068439773620428
29.64646,3.0185605215743547,0.14127118398242314
29.64884,2.9988662751921495,0.14187205207931952
29.65124,2.9889029932883084,0.14214950670695403
29.653628,2.977449467317248,0.14252253733489323
29.656008,2.9662754805999083,0.14287034176291313
29.658404,2.949886587576236,0.14344837057998924
29.660796,2.9389449182843737,0.14386645605057374
29.663176,2.9361514216050386,0.14395804903292608
29.665572,2.933218155298843,0.1440665893881265
29.667964,2.9267925441790124,0.14435913041328458
29.670344,2.9235797386190963,0.1445058726324971
29.67274,2.9234399689922363,0.14452421824370187
29.675132,2.924882991231212,0.1445195198024832
29.677512,2.9261862438433277,0.14453291698626206
29.679912,2.9284206620152227,0.14451824759872903
29.6823,2.932377641679813,0.1444611061632984
29.684684,2.93819695246396,0.14434291578455377
29.68708,2.944947428807885,0.14419910228783409
29.689468,2.950626969965172,0.14410134160100335
29.691848,2.9581688422420154,0.1439445404139622
29.694244,2.963568844145582,0.14388375668957834
29.696636,2.9773965579153963,0.1434682289462098
29.699016,2.989361940565654,0.1431212028798583
29.701412,3.0023982584025513,0.14272989762439717
29.703804,3.0182280729187827,0.14225142780175687
29.706184,3.041414664114624,0.14146326588217406
29.70858,3.0623668371385713,0.14070608591328174
29.710971999999995,3.083179240535658,0.1399870786535991
29.713352,3.1011981472534096,0.13934593368421963
29.715748,3.12084706766524,0.13857762606010246
29.718136,3.139145513636713,0.1378946564924267
29.72052,3.1543709236751294,0.13733425670856197
29.722916,3.167734002593989,0.13683348838237072
29.725307999999995,3.1844496566996243,0.1361959521329017
29.727688,3.1943676126330915,0.13577370173094727
29.730088,3.2067069781935564,0.13523097966559633
29.732475999999995,3.22011727894066,0.134648739091905
29.734856,3.22980291744865,0.13417246347963668
29.737252,3.2388369296505815,0.1336818912847657
29.73964,3.2429355747999016,0.13335253215293263
29.742024,3.247733068083523,0.13293750342890837
29.74442,3.2433114535679777,0.13286688810382538
29.746811999999995,3.2348856375595987,0.13293871115144507
29.749192,3.2236663248718846,0.13309279805422292
29.751592,3.2128663210647517,0.1331905055462328
29.753979999999995,3.19512884945859,0.13352547238388046
29.756364,3.175109737852291,0.13396779218428068
29.758764,3.151086424753158,0.13455278488071415
29.761152,3.1299963779602202,0.13504128321410858
29.763536,3.1115600582197573,0.13545954219255232
29.765932,3.0934032777330147,0.1358433197766407
29.76832,3.0772485979926887,0.13615566636016727
29.770704,3.0613734575060834,0.13643159613572234
29.7731,3.040283410713146,0.1369024585263213
29.775488,3.0272017669058755,0.13709452930124588
29.777872,3.0119782527253274,0.1373705642384065
29.780268,2.9987568392911963,0.13756895236450706
29.782656,2.989120318469319,0.1376836931532789
29.78504,2.9844191647000535,0.1376397675746722
29.787436,2.9878661835433156,0.13731796727824966
29.789828,2.991685289438915,0.13703962150500487
29.792208,3.002581632760404,0.1365238247017984
29.794608,3.0185531127613645,0.13583401180471544
29.796996,3.0343848231354653,0.1351466258895603
29.79938,3.049657455002125,0.13453494413241676
29.80178,3.0706568498543154,0.13375068446374858
29.804168,3.09430997175898,0.13290139650588237
29.806552,3.123038230343117,0.13188017961336793
29.808948,3.149764388180837,0.13092882430355118
29.811336,3.1726261141525836,0.13009724124820737
29.81372,3.1953480704974706,0.12928409841034316
29.81612,3.2169990916557185,0.1285183539096558
29.818504,3.238230803933386,0.12780430259018255
29.820888,3.264537652890526,0.12692215599736015
29.823288,3.284558660354694,0.12627929852793604
29.825676,3.309654804498335,0.1254832455833229
29.828056,3.331026286402862,0.12479445141933518
29.830456,3.3496042716280545,0.12417791765870756
29.832847999999995,3.3638985161066928,0.12372319031164594
29.835228,3.3712552927863024,0.1234749766107319
29.837628,3.3760981120402973,0.1232603006948323
29.84002,3.3800097657345143,0.12307274871482456
29.8424,3.3808483834956755,0.12298039527762808
29.844796,3.388904008309586,0.12266926955207935
29.847183999999995,3.3945854453247426,0.12237345415986838
29.849564,3.3993357167801204,0.12210203611078985
29.851959999999995,3.4035741315563004,0.12180696507253166
29.854348,3.4020857833469504,0.12164694472285474
29.856728,3.401808139951099,0.12143673472730085
29.859127999999995,3.4036723669285247,0.1211554487302105
29.861516,3.405955902786531,0.12082967455093781
29.863896,3.406377107524981,0.12054195632102432
29.866295999999995,3.4033531892780373,0.12030226875165134
29.868684,3.394742277672425,0.12018417078789725
29.871064,3.3888323149475306,0.11993279866591197
29.87346,3.3769160499833846,0.11984750185592208
29.875848,3.3647202457655188,0.11979276142096006
29.878232,3.3549458511746506,0.1196349387905617
29.880628,3.3465219310241405,0.11941101808543517
29.883016,3.343964543486022,0.11903659599659085
29.8854,3.345411357440737,0.11855306873901668
29.887796,3.3400604732232826,0.11823598349978454
29.890184,3.3368514593791057,0.1178484187883604
29.892564,3.32684474736276,0.11762812614801285
29.894964,3.3164187264658334,0.11745315062970291
29.897352,3.3059927055689067,0.11727713446960557
29.899732,3.296358080604898,0.11709586828333145
29.902132,3.288446017133586,0.1168908997273691
29.90452,3.2814651192220525,0.11666587255889709
29.9069,3.276346552430076,0.11640310023127678
29.909296,3.2709484463843785,0.11616972473219499
29.911684,3.2695545418315146,0.1158327434722183
29.914068,3.2748185658239595,0.11535170009128651
29.916464,3.280314907241882,0.11491897619466142
29.918852,3.2852521701523623,0.114548553821985
29.921232,3.2921915338092607,0.11412279102563948
29.923632,3.2989911278392987,0.11370864976562453
29.926016,3.302298377055701,0.11342859226406517
29.9284,3.3061174829513003,0.11317670887229084
29.930796,3.305932387354066,0.11303206377184394
29.933188,3.301463551010278,0.11302211733914305
29.935568,3.303512873584938,0.11288100633739641
29.937968,3.3054224265327377,0.11275652871466382
29.940356,3.3086352320926533,0.11265474311533252
29.94274,3.3178543398918197,0.11239798100638743
29.945136,3.3261422821312077,0.11216177174151168
29.947524,3.330565792504622,0.11201254316375997
29.949908,3.3379225691842316,0.1117944262858145
29.952308,3.3449998066101205,0.11160910477468802
29.954695999999995,3.3477933032894556,0.11155535008138409
29.957076,3.3504470303419303,0.111516686741724
29.959476,3.3520298222077662,0.11151134992724843
29.961863999999995,3.3514707437003257,0.11156953178620868
29.964248,3.3564061107529377,0.11145619911165502
29.966644,3.36148124743241,0.11132863063914805
29.969036,3.3656252185521036,0.11121782627457388
29.971416,3.371911060045075,0.11104433048972222
29.973812,3.3820613334040197,0.11078836126606321
29.976199999999995,3.3916997500837667,0.11050745857814089
29.978584,3.405062829002626,0.11016254021224182
29.98098,3.42243010941432,0.10972210572348086
29.983367999999995,3.4390059938930957,0.10929071124752657
29.985752,3.454790482438953,0.10886575912596255
29.988148,3.4708545102385306,0.10841074795671739
29.990535999999995,3.4810520054257186,0.10808514085608777
29.99292,3.4911097309860453,0.10777413905107879
29.995316,3.506894219531903,0.10735450301607412
29.997703999999995,3.5218873121448424,0.10694424795432027
30.000088,3.5380911095712806,0.10649791513053312
30.002484,3.5596495829309114,0.10590996635588583
30.004871999999995,3.581208056290542,0.1053220175812385
30.007255999999995,3.602766529650173,0.10474101474938219
30.009652,3.624464772636664,0.10415225336111446
30.012044,3.642950210063239,0.10365693237302052
30.014423999999995,3.662227043422733,0.1031635640800088
30.016824,3.6853683086482003,0.10260758737448794
30.019207999999995,3.7115826098067224,0.10200017552364765
30.021591999999995,3.7340722487261315,0.101446977525779
30.023992,3.7564221180186803,0.10090972712067403
30.02638,3.771462432459863,0.10046372415040261
30.028764,3.7858511205949874,0.10001269730297667
30.03116,3.7983774776105554,0.09958892418657979
30.033548,3.8096931298126253,0.09920347582713013
30.035932,3.820496925335497,0.09879260388536286
30.038332,3.8342339871645637,0.0983291853425859
30.04072,3.849041984180269,0.09784233552535228
30.043104,3.864920916382613,0.09734433026612263
30.045504,3.879589143771458,0.09688666843171384
30.047892,3.8902531696674694,0.09650363248289681
30.050272,3.8946313540705098,0.09625546664456598
30.052672,3.8980783729137714,0.09601860553460957
30.05506,3.8995232910106163,0.09581843608633973
30.057444,3.8989661083610447,0.09565478711742696
30.05984,3.8986884649651934,0.0954663155866028
30.062232,3.8994817567559807,0.09525521110218509
30.064627999999995,3.896131077427075,0.09512822527190062
30.067028,3.886774095858917,0.09510598319617308
30.069416,3.878348279850539,0.09507290730097756
30.071796,3.8708536294019384,0.09502777903735066
30.074196,3.8690857419388682,0.09490115483047491
30.076584,3.8639652792890224,0.09485807610331037
30.078968,3.8609866870124536,0.09476709631074978
30.081364,3.860010195482301,0.09464113385176544
30.083752,3.861407891750903,0.09451873548018452
30.086136,3.861874422459727,0.09440788575720774
30.088536,3.860338852422134,0.09433127804813786
30.090924,3.8530765193990106,0.09433178567929495
30.093308,3.847816287122304,0.09429831682555015
30.095708,3.8462807170847113,0.09422218631499812
30.098092,3.8499600533534513,0.09404412814850119
30.100476,3.8564328863015254,0.09383455138596469
30.102872,3.863976654436238,0.09360182126288535
30.10526,3.8776664944370616,0.09326334910041385
30.10764,3.8942896007440804,0.09288874372121793
30.11004,3.9071880448119862,0.0925556644503347
30.112428,3.919434862573834,0.09220577907868723
30.114808,3.930750514775903,0.0918605707890293
30.117208,3.947001534030584,0.09144461101007667
30.119596,3.962181618098627,0.09105271716252451
30.12198,3.977082162912949,0.09068814140176568
30.12438,3.99305364291391,0.09029720858844842
30.126772,4.009397209967209,0.08994852470434514
30.129156,4.026671942580285,0.08959487486770007
30.131552,4.043434818514164,0.0892216863800451
30.13394,4.0620600255676,0.08883332733627015
30.136324,4.083618498927231,0.08840735288265979
30.13872,4.1062479074735,0.08795825502272749
30.141112,4.123150553034239,0.08757526429847806
30.143492,4.136468305982726,0.08721898881782504
30.145888,4.148854893371433,0.08687719750487134
30.14828,4.159938228148025,0.08651195765974146
30.15066,4.1720924981112555,0.08612898234980969
30.15306,4.174096494715542,0.08590174776038603
30.155448,4.1718167505732735,0.08575483014751245
30.157832,4.17219073348348,0.08559305307875291
30.160232,4.171493781207048,0.08544952888388899
30.162616,4.175732195983229,0.08523939411904069
30.165,4.178108279639852,0.08505015628559777
30.1674,4.182486464042893,0.08483433042824558
30.169788,4.189937684378989,0.08457564647118034
30.172168,4.203674746208056,0.08422031906540059
30.174568,4.215968785798147,0.0838507789919699
30.176956,4.228262825388238,0.0834861483198672
30.17934,4.239346160164829,0.08315272672424644
30.181736,4.248567163821865,0.08283644242104551
30.184124,4.2539237356129265,0.08255998517629963
30.186508,4.258860998523407,0.08231395317297988
30.188908,4.269385254792558,0.0820225625747888
30.191296,4.281632072554406,0.08172571222091315
30.19368,4.295741221435811,0.08141942631550002
30.196076,4.310082687742692,0.0811605504200814
30.198467999999995,4.323213449236074,0.08093114903188112
30.200848,4.342350512968708,0.08062397193331657
30.203248,4.3636294470746195,0.08028133540525303
30.205635999999995,4.386258855620889,0.07990540396137419
30.20802,4.420481559765078,0.07942527623048216
30.210416,4.452562393535991,0.07898419342604165
30.212803999999995,4.4827808961873465,0.07856260465053413
30.215188,4.511276837346006,0.07814890017789698
30.217588,4.538841612944888,0.07775306339016257
30.219976,4.560772173356857,0.077463469588085
30.222363999999995,4.584425295261521,0.07717530192295839
30.224772,4.6052849204868505,0.07690644739980648
30.227164,4.62600477608532,0.07664778194609666
30.229548,4.645002070191093,0.07639082030737107
30.231948,4.668283105043421,0.07607451118937947
30.234335999999995,4.695708111015442,0.07570930218717214
30.236728,4.722481490681405,0.07533494146960101
30.239136,4.750325805534008,0.07494728138780953
30.241523999999995,4.773094983707136,0.07461696462608614
30.243924,4.795212535574208,0.07427395567133042
30.246332,4.820403123374335,0.07390012903895692
30.248724,4.845593711174463,0.07352952586402238
30.25112,4.867851032668395,0.07318349346814146
30.253516,4.886895548602411,0.07288328930575234
