Time,Force,Position
29.719788,16.176526987280738,0.049877803328097416
29.722172,16.143382801754665,0.04973937076233407
29.724568,16.110518155482314,0.04959491937022745
29.726956,16.075092329956103,0.04946283697613164
29.72934,16.04166860517631,0.04932743268120109
29.731736,16.011178146702708,0.04918855186699869
29.734124,15.971608350056801,0.04906267950770575
29.736508,15.930036452664478,0.0489390208065089
29.738908,15.88031638265963,0.04882831683372103
29.741296,15.81844393854942,0.0487359931070711
29.74368,15.754429624065931,0.048648549229485485
29.74608,15.67840270510394,0.04857666763036185
29.748468,15.59622971427584,0.048514926855849135
29.750848,15.512194392328183,0.04845244173567019
29.753244,15.431232106313582,0.048383700761810346
29.755636,15.340538855820615,0.0483224997469999
29.758016,15.246772569394594,0.048266148838729525
29.760416,15.154216987782071,0.04820324484628833
29.762804,15.057517435049856,0.04814747205265339
29.765184,14.957744846384585,0.048096149845104866
29.767584,14.85918296253281,0.04803892845303645
29.769972,14.75805989942718,0.04799549343868634
29.772352,14.65623798818725,0.047966023062918146
29.774752,14.556138638440014,0.04793978541240448
29.77714,14.448263203132589,0.04793975124889313
29.77952,14.333030991145556,0.047957095077258496
29.78192,14.221523441397634,0.04797497647091211
29.784308,14.102798884596965,0.04800810717451174
29.786688,13.981932457423015,0.04804755708257193
29.789088,13.863859526928403,0.04808785741145919
29.791476,13.736195401582288,0.04813503643469101
29.79386,13.606529175489754,0.048186310214585526
29.796268,13.480727381263195,0.04823516836870341
29.798652,13.353575112596275,0.04829351852310436
29.801036,13.219997232809526,0.048371413230668715
29.80344,13.090935411194806,0.048453433031862024
29.805828,12.959731719206813,0.04854353750959226
29.808208,12.83262477651027,0.048646017011774324
29.810604,12.702816884933007,0.04877061644755676
29.812992,12.573101541154363,0.048917543270701316
29.815372,12.444829219614695,0.04907550449562539
29.817772,12.317907372515382,0.04922584883886213
29.82016,12.19154460392351,0.04936471034922967
29.82254,12.064158121973245,0.049483693605453134
29.824936,11.939752128157417,0.04957800593645633
29.827324,11.819769644715004,0.04965599190442509
29.829704,11.700718326832371,0.04973522494351839
29.832104,11.588604476748765,0.04980508238728412
29.834492,11.481146454464053,0.04987570777336722
29.836876,11.377273324791593,0.04995088526746218
29.839272,11.281501145903418,0.05003429547969993
29.84166,11.192758982612888,0.05012978617087349
29.84404,11.106530776747974,0.05023329946104894
29.84644,11.021885362748893,0.0503460059549716
29.848828,10.94003344542915,0.05046127017998209
29.851208,10.856831053669044,0.050590900103733454
29.853604,10.77921565526761,0.05072146887886777
29.855992,10.695873493880645,0.05085952056982353
29.858372,10.618025778053736,0.050975555033627495
29.860772,10.544881111853961,0.05106478522171138
29.86316,10.470013884161489,0.05115237226644044
29.86554,10.395146656469016,0.05124097581139123
29.86794,10.319999889522823,0.05133867391664958
29.870328,10.242943569628832,0.05146613656297206
29.872708,10.166538876040896,0.051602393354097754
29.875108,10.090646039132158,0.051751444337272925
29.877492,10.013961806290505,0.05189850799030944
29.879876,9.93606686863535,0.052056202038105376
29.882272,9.85616983023378,0.05222142342283932
29.88466,9.773619064779735,0.05238604429579288
29.887039999999995,9.689485507459855,0.052546010861141176
29.88944,9.608984064580468,0.05267971736442235
29.891824,9.526760060208385,0.05281213021957569
29.894207999999995,9.444955364716884,0.052933917208015796
29.896604,9.36543230922552,0.05304392702455234
29.898992,9.29247463448085,0.053121081817374675
29.901372,9.21779439824348,0.053196561763090754
29.903768,9.146838824245224,0.05327256159845683
29.906156,9.077605811739662,0.05335213891513432
29.90854,9.006882555166884,0.05345116387513374
29.910936,8.935879759340386,0.053562400742506185
29.913324,8.867390920939503,0.053683060432567827
29.915704,8.800764413658174,0.053804617169072144
29.918104,8.7372109423099,0.05391779574384533
29.920492,8.677102593947021,0.054039600869247015
29.922872,8.614852375210866,0.05417532237713646
29.925272,8.552322617220987,0.05432357396431031
29.92766,8.49086379441775,0.0544687996192701
29.93004,8.431267302734067,0.054615706731188055
29.932436,8.37087941511747,0.05476121054642737
29.934823999999995,8.314216189739982,0.05490546980260518
29.937208,8.249544561376828,0.055078454121767796
29.939604,8.186083637827174,0.05524207875669
29.941991999999995,8.122343175023799,0.05541909853185365
29.944372,8.057392007406925,0.055610458057688106
29.946772,7.9880173294166354,0.05583285641249428
29.94916,7.918782421053207,0.05605317585034113
29.95154,7.848895886383721,0.056267154717088735
29.95394,7.775144919848261,0.05649331836736845
29.956328,7.697669291073687,0.05672987548083719
29.958708,7.622615071926111,0.0569462220227694
29.961108,7.5469092264724775,0.05715552937062043
29.963492,7.467618488406591,0.05736827394010855
29.965876,7.386605188848008,0.057581513885245794
29.968271999999995,7.301355370371114,0.05778701314906284
29.97066,7.217735565588299,0.057966058236255856
29.973056,7.138259731925179,0.058124997887557595
29.975456,7.0581322719560005,0.05827569606071227
29.977844,6.977632724934484,0.05840585849252918
29.980224,6.898855739405664,0.05854348097919786
29.982624,6.814631530145035,0.0586869625993797
29.985012,6.731618025697903,0.058822778592857394
29.987392,6.645531485317717,0.058979584262511285
29.9898,6.56107495863161,0.059104239446667414
29.992187999999995,6.478108676012723,0.059203579923420284
29.994572,6.393419831901138,0.05930569081745949
29.996972,6.307799822229777,0.0594128750320085
29.99936,6.220317481438857,0.05952755398156542
30.001744,6.131764205461299,0.059658969676114934
30.004152,6.048425835790073,0.05975649187962956
30.006536,5.963085365372431,0.059867462853125025
30.008916,5.871086966409481,0.060007385635568365
30.011327999999995,5.784023934499144,0.06012431415790312
30.013716,5.694819032215527,0.06026969669937276
30.016092,5.608407626611248,0.06041116147904088
30.018492,5.520505976939749,0.06059214310969824
30.020876,5.43153339208161,0.06078420702028378
30.023256,5.3393480016635575,0.06101773556680415
30.025652,5.245812136805144,0.06128504708742592
30.02804,5.15334720713337,0.06154941878209367
30.03042,5.062604838954292,0.06183016515494792
30.032816,4.973864571521632,0.062104981400201556
30.035204,4.88512430408897,0.062395900734465805
30.037584,4.7948937925890895,0.0627311279218863
30.03998,4.700379540342656,0.06313012378177592
30.042368,4.609078093656137,0.06350121203837564
30.044748,4.518707812529398,0.06388177342071738
30.047144,4.428989157708714,0.06429974498169778
30.049532,4.340620977328391,0.06470352989550691
30.051912,4.245315329149038,0.06518570745467103
30.054307999999995,4.150149450596547,0.06567505835815197
30.056696,4.061781270216223,0.06613726605995786
30.059076,3.970200284275984,0.06666075414021773
30.061472,3.8847653702018556,0.06712630973699354
30.06386,3.796257420194672,0.06765203474916666
30.06624,3.7090999446278476,0.06816152887938373
30.068636,3.6180780371950494,0.06873167471907639
30.071024,3.5322710360685843,0.06924593185552211
30.073404,3.4456726390092003,0.06978899881135732
30.075804,3.3572119108302605,0.07037154526971007
30.078192,3.26889095227818,0.0709793550079675
30.080572,3.1804302240992395,0.07162831814116362
30.082968,3.095973697413133,0.07224728106422448
30.085356,3.009654839607469,0.07293509813390783
30.087736,2.930552988854555,0.07350715314847221
30.090132,2.848098562914865,0.07421299372709816
30.09252,2.7645732017885374,0.07499940782979667
30.0949,2.6823983151025677,0.07578034733946135
30.0973,2.602085759536155,0.07657560483000815
30.099688,2.529362298074829,0.07732256935819372
30.102068,2.460363498852616,0.07804460722335707
30.104464,2.3912249300035433,0.07881833872877432
30.106852,2.324088461900887,0.0796046731283639
30.109231999999995,2.2566724545445105,0.08043394010499824
30.111636,2.192981109427247,0.0812755882043583
30.114024,2.1288704554294027,0.08225522306050474
30.116404,2.068624233297532,0.08322123689765125
30.118804,2.003954500792248,0.08447615957305893
30.121192,1.941798725712578,0.08584780246007041
30.123572,1.8833676128720207,0.08720649395162364
30.125976,1.8289407015242973,0.08847762263221834
30.128364,1.7760965820424104,0.0898540774050999
30.130744,1.7212503618141066,0.0913995369899426
30.13314,1.6713395086384146,0.09285437263787566
30.135528,1.6171449147161687,0.09461311868818681
30.137908,1.5670942919136168,0.0963126175405215
30.140304,1.5169038994842043,0.0983218591201087
30.142692,1.4693672341072668,0.10035732948068303
30.145088,1.4234133605961659,0.10249006704081212
30.147483999999995,1.3774594870850643,0.10468215840934539
30.149868,1.3302949087604643,0.10710298282165875
30.152252,1.2868549926749775,0.10938017209932353
30.154648,1.2492816092018815,0.11125368797421682
30.157036,1.2098458946092285,0.11333561499216464
30.159416,1.171481115203214,0.11542839427329851
30.161816,1.1380517028498114,0.11728365209674706
30.1642,1.101689024190214,0.1195998866438302
30.166584,1.0724035829565053,0.12148029769015078
30.16898,1.0474018824693507,0.12297519579692881
30.171368,1.022260412355336,0.12458449717159123
30.173748,1.001635000413353,0.12582536225288468
30.176148,0.98128912772509,0.12707812876751498
30.178532,0.9643883780222201,0.12827330988380847
30.180916,0.9472080890656297,0.12961230734735638
30.18332,0.9326815271615139,0.13092868396354823
30.185704,0.9197377571232344,0.13224210452777937
30.188088,0.9126605196973453,0.1330451521852252
30.190488,0.9073058437641527,0.13374129963213638
30.192876,0.9038134989505165,0.13427581851423448
30.195256,0.8999018452562999,0.13501173480874612
30.197652,0.8989234578682785,0.13542498626054156
30.20004,0.8950118041740618,0.1361918612572122
30.20242,0.8837433738002357,0.12992832134742147
30.20482,0.8740577352922458,0.12343490443905918
30.207208,0.862369996037839,0.11685866318084638
30.209588,0.8509617960371527,0.11036524627248405
30.211992,0.8482136253281917,0.10335773614588485
30.21438,0.8465363898058692,0.10412717129551671
30.21676,0.8432291405894673,0.10531183408426528
30.219156,0.8420637617463425,0.10615899550725291
30.221544,0.834892080663967,0.09977631273200345
30.223924,0.8326557666342037,0.10074905535949173
30.226324,0.8305592222313005,0.10166963411297542
30.228708,0.8301852393210938,0.1024563441356632
30.231092,0.831953126784164,0.1029142260518131
30.233488,0.8366542805534295,0.10300886872379011
30.235876,0.8444284702557505,0.10275087996723761
30.238272,0.8515510336520135,0.10247736607267295
30.240668,0.8581617403690788,0.10213647314241286
30.243056,0.8684045615266403,0.10122644709086366
30.24544,0.8766452819377849,0.10053358671543604
30.247836,0.8888902038417633,0.09938954782327497
30.250224,0.9052790968654356,0.10566485173001705
30.252608,0.9239496298892454,0.11182942843633094
30.255004,0.9482071562717249,0.11785834393090297
30.257392,0.9709744385869853,0.12397473521492189
30.259772,0.9875956490361347,0.13035187921314761
30.262172,1.0016556802314265,0.12925368386082034
30.264555999999995,1.0162747899341593,0.12790635940621042
30.26694,1.0267499285171982,0.1270599406625968
30.269336,1.0384357719137356,0.13392427927090111
30.271723999999995,1.0447669393770807,0.13359954158351708
30.274104,1.0563130131467577,0.13265214547797688
30.276504,1.0692095613567942,0.13150238299865172
30.278891999999995,1.0811749440070522,0.13046121820989506
30.281272,1.08741356367178,0.1299799462040785
30.283672,1.0897877514705343,0.12990236964240148
30.28606,1.0918824000155682,0.12992544045327395
30.28844,1.0955598404264384,0.12990585277444902
30.290844,1.096676101583451,0.13027130052251118
30.293232,1.1008653986735186,0.13033466435155128
30.295616,1.104775156509866,0.13049672017948177
30.298012,1.1101751584134325,0.13042064955277438
30.3004,1.116226786623057,0.1303826749865456
30.30278,1.119764457407067,0.13043909039025858
30.30518,1.1237214370716575,0.13036694397588602
30.307568,1.1342437974829391,0.12967662367534927
30.309947999999995,1.1431833660283848,0.1289797187697597
30.312348,1.1551959705068862,0.12807711383922385
30.314736,1.1730751075977777,0.12673401122622896
30.317115999999995,1.1897435398751703,0.12546699989428264
30.319512,1.2129773528992545,0.1235692698108017
30.321904,1.2241985614448376,0.12262892135832643
30.324283999999995,1.231695107751307,0.121931458501787
30.326688,1.238120718871138,0.12132346898556476
30.329072,1.2504128626033597,0.12027154833303823
30.331451999999995,1.264567337455138,0.11914268663954997
30.333848,1.2791411211874968,0.1178918308409769
30.336236,1.2899902426807421,0.11687156894366617
30.338616,1.3013984426814285,0.11568161579100168
30.341012,1.3090819804430014,0.11472654816923486
30.3434,1.3133203952191819,0.11390871905898947
30.34578,1.3169997314879212,0.11327470300553567
30.348176,1.3183048799579065,0.11268135205065789
30.350564,1.3185390932412533,0.11217606910465383
30.352948,1.3207754072710167,0.11154289952884286
30.355344,1.3177968149944475,0.11131126808086289
30.357731999999995,1.3191019634644323,0.11074705112416151
30.360116,1.316123371187863,0.11051427543987997
30.362512,1.310491051858819,0.11036916725923587
30.364899999999995,1.3131466747691631,0.10970341052105881
30.367296,1.3093766865596759,0.10947652768196861
30.369696,1.3196214035751068,0.10849454627337694
30.37208,1.3306575165234555,0.10748451628399328
30.374464,1.3429043342853033,0.10635349201870054
30.37686,1.350215784994539,0.10549782269991907
30.379248,1.351660703091384,0.10493167699168555
30.381632,1.3508239811880922,0.10454493506396059
30.384028,1.34970772003108,0.10422275087917948
30.386416,1.3493828548069855,0.10389867772038897
30.3888,1.3489182199560312,0.1036039824034986
30.391196,1.3489654417842738,0.10337531491740347
30.393584,1.3483610373064592,0.10311521507871814
30.395964,1.3485480287615625,0.10284849705643072
30.39836,1.3498059554033044,0.10249656751726392
30.400748,1.3469199109253525,0.10243869054022384
30.403132,1.3400296649545669,0.10266598901004861
30.405528,1.3299266134238656,0.10314708387111408
30.407916,1.3210342667066632,0.10350450636113236
30.410296,1.3110709848028224,0.10395551266649752
30.412692,1.2917488254729546,0.10509851036663762
30.41508,1.2748480757700846,0.10600523832247634
30.41746,1.245003556028935,0.10781124032356774
30.419856,1.2191632377806192,0.1092484172377246
30.422244,1.1945336243458022,0.11049504654678702
30.424628,1.1723254205379827,0.11150113116166238
30.427024,1.154912814155915,0.11228274299742909
30.429412,1.1427151140801797,0.11265157909705684
30.431792,1.135732320310777,0.11263923512115814
30.434192,1.1267474257949577,0.11274902358798103
30.43658,1.1236290638915285,0.11252612735990257
30.438976,1.1230718812419567,0.11203047159120362
30.441376,1.120512597845968,0.11164861593014433
30.443764,1.114740508890064,0.11151057082689267
30.446148,1.1098995854939384,0.11132645275597582
30.448544,1.1072005324710896,0.11097630377144085
30.450932,1.1125098824339084,0.11010185863667565
30.453312,1.1173999235161467,0.10932730458841707
30.455708,1.1200083245982475,0.10876136962627606
30.458096,1.1215457904937098,0.1082724537032115
30.460476,1.126435831575948,0.10741405508278527
30.462876,1.129975398217827,0.10674499847824799
30.46526,1.1433856989649303,0.10526881826080108
30.467644,1.1497187622861444,0.10439682451365906
30.47004,1.1554927470999177,0.10374231553939557
30.472424,1.1616388189660285,0.10323276559709757
30.474808,1.1685762867650573,0.10273420378201854
30.477204,1.1710902441906719,0.1026724738580181
30.479592,1.1705311656832311,0.10284145672027205
30.481976,1.1709032527355685,0.10296475609472609
30.484372,1.1651292679217953,0.10352987038396219
30.48676,1.1570736431078847,0.10430299041932146
30.489139999999995,1.1527426805330876,0.1048947689172075
30.491536,1.1554889553841794,0.1050073513313806
30.493924,1.158235230235271,0.1051217446652711
30.496304,1.1588396347130858,0.1054042245205702
30.498704,1.154368902511428,0.10601769043455697
30.501092,1.1516679536307104,0.1063487725043694
30.503488,1.1511088751232694,0.10651613712713652
30.505884,1.1545539981086623,0.10641992090409137
30.508272,1.154926085161,0.10654488535437424
30.510656,1.1574400425866145,0.1064893664473185
30.513055999999995,1.1570207337060339,0.10661173119286596
30.51544,1.165540993370899,0.10619321152823871
30.517824,1.1721989219162077,0.1058540117587147
30.52022,1.176203123409041,0.10559736555425032
30.522608,1.1758310363567037,0.10547578610409322
30.524988,1.1776008196776433,0.10518078924386343
30.527384,1.1773685022521658,0.10501496218171082
30.529772,1.1751340840802718,0.10498763282035833
30.532156,1.1741103707218763,0.10482220263621012
30.534552,1.1750887581098979,0.10450809576578904
30.53694,1.173133879191724,0.10439492266757897
30.539324,1.1639619932208012,0.10486333735365522
30.54172,1.1537191720632396,0.10541442883748493
30.544108,1.1464096172118734,0.1057793548478054
30.546492,1.144966594972897,0.10574782720439399
30.548888,1.1460375301595358,0.1056606720647562
30.551276,1.1461772997863962,0.10561852895422061
30.553656,1.147527774226755,0.10545762739436457
30.556056,1.155164090160085,0.10485724766195752
30.558444,1.1603789964664173,0.10449309743352155
30.560824,1.1654541331458894,0.1041790529338458
30.563224,1.1645229675861113,0.10421576232032326
30.565612,1.163591802026333,0.10425422521914152
30.567992,1.1674562338923062,0.10406573412793683
30.570388,1.173834623183894,0.10382907632011529
30.572776,1.1792818469157038,0.1036351518391727
30.57516,1.1885935025134873,0.10324254980516497
30.577556,1.2029802947907426,0.10254632685103564
30.57994,1.2212315189339717,0.10168058870575081
30.582324,1.23906343419662,0.1009461880217471
30.58472,1.258106054272767,0.10008523251814623
30.587108,1.2814324150954681,0.09885852323102802
30.589488,1.3027566751717523,0.09771742293322118
30.591888,1.325012100807815,0.096581092965982
30.594276,1.3414009938314875,0.09579187424124042
30.59666,1.3527147501756875,0.0953111147910441
30.599056,1.3669617728260828,0.0946926745974262
30.601444,1.3738520187968686,0.09454946660114258
30.603828,1.3781810855137966,0.09466908320121321
30.606228,1.3870734322309992,0.0944474244480197
30.608616,1.3908906422687295,0.09449000116277208
30.610996,1.3937766867466816,0.09456521903223647
30.613396,1.3958713352917154,0.09463944209073875
30.615784,1.3947531782768336,0.09493818330431389
30.618164,1.3968478268218676,0.09501281566654368
30.620564,1.4018757416730967,0.09495056691401506
30.622948,1.404249929471851,0.09495607348515013
30.625332,1.4054134124571065,0.09506302181850437
30.627728,1.4035038595093066,0.09532254890301592
30.630116,1.4021533850689476,0.09544837947742853
30.632512,1.4037361769347838,0.09545764254054512
30.634912,1.4043878032408417,0.09549389641745541
30.637296,1.4070415302933164,0.09544454130505439
30.63968,1.4070415302933166,0.09544454130505438
30.64208,1.410114566226372,0.09530086170861665
30.644468,1.4154692421595647,0.09500120746525419
30.646847999999995,1.4197529829061188,0.09476957703048168
30.649252,1.4332558314518393,0.09411275085665022
30.651636,1.4481091544379185,0.09335969432646007
30.65402,1.4588185063043035,0.09282030169397824
30.656416,1.4767448652234383,0.09194344951752827
30.6588,1.4976044904487678,0.09094267133765516
30.661183999999995,1.5252618138462661,0.08973583625272467
30.66358,1.5534782157512057,0.08840451121558446
30.665968,1.57890112097681,0.08721198162870633
30.668348,1.5973865584033855,0.08626479000868556
30.670744,1.6175945573226576,0.08530390163539585
30.673132,1.6339381243759559,0.0844637200103176
30.675512,1.650421461056114,0.08359003105971188
30.677912,1.663552222549497,0.08289962644287963
30.680296,1.6716078473634075,0.08242102094542776
30.68268,1.6815258032968747,0.0819102460775702
30.685076,1.694377025536537,0.08132269006620728
30.68746,1.707740104455397,0.08079144637777966
30.689844,1.720963413747397,0.08030062102044024
30.69224,1.733907183785676,0.07986612549485085
30.694628,1.7488530545703724,0.07938290954837565
