Time,Force,Position
30.2667,11.69195192037308,0.04879828843528439
30.269096,11.545662587973528,0.048939959796988834
30.271491999999995,11.403702322290904,0.04912092312048098
30.27388,11.2599250514591,0.04935723063568985
30.276264,11.119777999209916,0.049654583930103136
30.278659999999995,10.979816042557971,0.05000447453055002
30.281048,10.842553138928874,0.05041770842728553
30.283428,10.704544165337232,0.0508869091162118
30.285827999999995,10.571655654395437,0.05140553848288252
30.288216,10.441885505357073,0.051981648766398346
30.290596,10.315373487848998,0.05260991931701782
30.292992,10.188115400378377,0.053303094753222154
30.295379999999994,10.061182178131851,0.05405953709404858
30.297764,9.937646857042477,0.0548677965193562
30.30016,9.810851508564943,0.05574022593381838
30.302544,9.689595931617834,0.05665641632023909
30.304928,9.56936406802912,0.05761665224709721
30.307323999999998,9.44536032037305,0.058634994435939454
30.309708,9.321868429396178,0.05969397118901048
30.312092,9.19381325841903,0.06080533974163006
30.314488,9.065246230762687,0.061925274750668155
30.316876,8.938216669001807,0.06301493235122187
30.31926,8.811933177203471,0.06406814796534921
30.321656,8.689329021673872,0.06507859641060282
30.32404,8.569752576106955,0.06603430877322787
30.326435999999998,8.44784916456953,0.06697257482632613
30.328835999999995,8.327250901502085,0.06785174184629325
30.331224,8.2099126658228,0.06869449159634028
30.333603999999998,8.094903291971898,0.069500778369082
30.336004,7.987158147001987,0.07024571151165886
30.338392,7.884395590912931,0.07094785135099949
30.340771999999998,7.789269350757205,0.07160714626661366
30.343168,7.6994052387360545,0.07221285566678098
30.345555999999995,7.609588348543147,0.07280059776045177
30.347936,7.52768731353729,0.07332665873112819
30.350331999999995,7.445833500359676,0.07382945181739364
30.35272,7.364538765689503,0.0743267833223672
30.3551,7.292882447699077,0.07475372095026943
30.357496,7.226580805641844,0.07514806086624408
30.359883999999997,7.1631198820921895,0.07550582910958968
30.362268,7.098867562609615,0.07587407213710953
30.364664,7.0344754735001835,0.07625764842445924
30.367051999999997,6.972597341816364,0.07664836991553592
30.369436,6.910299901251965,0.07706823522219579
30.371835999999995,6.8489336262473435,0.0774891940758998
30.374224,6.790500617548918,0.0779037794587632
30.376604,6.73164829996991,0.07834783089096636
30.379003999999995,6.66907132015179,0.07882184017619619
30.381392,6.601558973281058,0.079349597405152
30.383772,6.5265973019320995,0.07992705636596181
30.386171999999995,6.442975601291415,0.0805862973735817
30.38856,6.353394820239725,0.08126748589355781
30.390944,6.262371016949056,0.08194654753909969
30.393339999999995,6.170975126606052,0.08262369513906362
30.395728,6.071198746225042,0.0833750649356118
30.398108,5.970770739537974,0.08413968304774283
30.400504,5.871972746544986,0.08488239477395025
30.402896,5.765865198700632,0.08568214288169099
30.405276,5.655940440818545,0.08648845174029796
30.407672,5.542430790324207,0.08735023503380224
30.410059999999994,5.42948021833731,0.08821667559249409
30.412444,5.317460811910192,0.08910802413541836
30.41484,5.199714642497543,0.09009938205161351
30.417232,5.080106141965337,0.09116459663399638
30.419612,4.956213900686577,0.09235573016212739
30.422016,4.834183990527374,0.09356457232888324
30.424404,4.7081498788753375,0.09491963564688799
30.426784,4.584257637596578,0.09629789939328913
30.429179999999995,4.463857741131454,0.09766419874099563
30.431568,4.345180406159027,0.09910753092172807
30.433948,4.233580308612488,0.10050237385433186
30.436344,4.123563002931787,0.10197499051876374
30.438731999999995,4.009122186877671,0.10366630464128136
30.441115999999997,3.89612439306253,0.10545517320186401
30.443512,3.7876426574194215,0.1073046252737718
30.445896,3.680231856962951,0.10920372800398653
30.448296,3.5736124524393986,0.1111647258844552
30.450692,3.468436070154822,0.11326721857316185
30.45308,3.3692187682812538,0.11535555074719864
30.455464,3.2754486901394944,0.11745114035809208
30.45786,3.182330238303793,0.11969042716409212
30.460248,3.093215987960926,0.12185227098032433
30.462627999999995,3.00903710467067,0.12400810239907845
30.465024,2.9317956891794434,0.12602834982165326
30.467416,2.8574875399944113,0.12811747743701407
30.469795999999995,2.7790354196896856,0.13054110928682242
30.472196,2.710593803117045,0.1326873516217616
30.47458,2.6418726472906826,0.13502608103377775
30.476963999999995,2.5796696503827703,0.13715645083954292
30.47936,2.5251955172068032,0.1390417825426939
30.481748,2.4723041758966735,0.14095560291016085
30.484128,2.4231374968256567,0.14282386448680168
30.486524,2.3850522566733625,0.14424709140936467
30.488916,2.351110987640762,0.14551143430822272
30.491296,2.3213136897278557,0.1466092818245496
30.493696,2.293890579613704,0.14771069185683014
30.496084,2.268329800619109,0.14877071162208041
30.498464,2.2464936838636267,0.14973496060968272
30.50086,2.2238661711752266,0.1507259398755862
30.503248,2.200307492927048,0.15180557437027056
30.505627999999994,2.1815444121046212,0.1526894794102234
30.508024,2.161710396095556,0.1536470559405139
30.510411999999995,2.14867407825866,0.15424073160884164
30.512795999999994,2.134566825235125,0.15490537128874338
30.515192,2.1258142481447826,0.15524001041746932
30.517579999999995,2.1289345059060807,0.154923032457831
30.519976,2.1307042892270207,0.15472803388577522
30.522372,2.141785728145743,0.15409000540156248
30.524764,2.1495145918776895,0.15368963029739627
30.527144,2.154170419676581,0.15347285270222635
30.52954,2.163901384154945,0.15297687507841068
30.531928,2.178055859006723,0.15220513959653076
30.534312,2.18578472273867,0.15182772825338683
30.536708,2.1963070831499523,0.15134100693358526
30.539096,2.206969213188095,0.15083465749028988
30.54148,2.2172592561738993,0.15026050650195003
30.543876,2.228620234346342,0.149618340403696
30.546264,2.2425423917726435,0.14877444581771113
30.548648,2.2558129228928863,0.14790902343869966
30.551044,2.275369295506101,0.14667591411869102
30.553436,2.2981384736792303,0.1452817545512556
30.555816,2.318905551105943,0.14395382515282273
30.558212,2.3336663262934048,0.14296815995625242
30.5606,2.3524313029737005,0.14179133215146814
30.562984,2.3707769707734156,0.14070989120745425
30.56538,2.387400077080435,0.13974725808753885
30.567767999999997,2.4035113267082564,0.13874850508753844
30.570152,2.4125925607384313,0.13798011217200642
30.572548,2.4220931036491873,0.13713377351740053
30.574935999999997,2.432944121000302,0.13617977844286244
30.577316,2.437137209806109,0.13550603224767832
30.579712,2.434904687492084,0.13517790798705998
30.5821,2.4372354451783336,0.13457027713094538
30.584484,2.435841540625469,0.13410805497229691
30.58688,2.4341680968188855,0.13369069623673763
30.589268,2.4363590848782746,0.1331157923339708
30.591652,2.438689842564524,0.13252040471268328
30.594048,2.4407410609970532,0.131976018366355
30.596436,2.447308337601614,0.13129586470439897
30.598816,2.451454204579177,0.13077943246681495
30.601216,2.4514561004370465,0.13045268116380115
30.603604,2.4556019674146103,0.12993881699202636
30.605984,2.458165042526337,0.12943049401748696
30.60838,2.458865786518507,0.12899418582219685
30.610768,2.458914904204619,0.12854834585900343
30.613152,2.450955618905064,0.12842661184030668
30.615548,2.4447188950982053,0.12826402989887536
30.617936,2.4431379990902387,0.12795051383136302
30.62032,2.4402066286419126,0.12772868024528558
30.622712,2.4367161796861465,0.12759228557228292
30.625104,2.436670853715772,0.1273743079256142
30.627483999999995,2.4398383333053135,0.1269920055772115
30.629884,2.443517669574053,0.1266504276411737
30.632272,2.4459863010292935,0.12637877187014043
30.634656,2.4495258676711726,0.12605582337731497
30.637055999999998,2.452366586178751,0.1258464185987044
30.639444,2.4547879958057486,0.1257011047530586
30.641824,2.454927765432609,0.12567984360022647
30.64422,2.4529256646861923,0.12575946902426188
30.646612,2.4489214631933582,0.12591917789990897
30.648992,2.4495730894994163,0.12593159723456349
30.651391999999998,2.453018212484809,0.1258620512240229
30.65378,2.4617707895751515,0.12566458537269928
30.656164,2.4662396259189396,0.12565863607954103
30.658559999999994,2.46828705263573,0.12579142593263948
30.660944,2.4788547390173865,0.1256426768755058
30.663328,2.4882117205855434,0.12556589011089317
30.665724,2.4950075228998427,0.1256503904443518
30.668116,2.50995149782667,0.12541569548707188
30.670496,2.5241040768205787,0.12518238370749937
30.672895999999994,2.536534094321791,0.1249839245528805
30.675284,2.548684572569283,0.12482613010900183
30.677668,2.560043654883857,0.12468247069569181
30.680063999999994,2.573404837944848,0.12445809024010646
30.682452,2.588348812871675,0.12422797570098941
30.684836,2.6006390607460275,0.12405841300536255
30.687231999999995,2.616002344553435,0.12377503842435131
30.68962,2.6356493691073966,0.12331281891902063
30.692004,2.6506405658624668,0.12297227007195907
30.694399999999995,2.6676338633639536,0.12255605963363185
30.696788,2.677177836387214,0.12235734234373633
30.699172,2.678573636797947,0.12247338852428898
30.701567999999995,2.6782468757159834,0.12262284126210048
30.703956,2.682064085753714,0.12260519679370517
30.70634,2.6910962020977767,0.12237368733069473
30.708735999999995,2.6965434258295864,0.12223561529412737
30.711124,2.701059484001618,0.12212216674357211
30.713508,2.708276491054367,0.12184206728657651
30.715903999999995,2.708556030308088,0.12180439387458344
30.718295999999995,2.714190245495001,0.12155273044412934
30.720676,2.723968431801608,0.12115465233142293
30.723076,2.731884286988658,0.12079918231808703
30.725463999999995,2.7331422136304004,0.12062912401189549
30.727847999999994,2.735610845085641,0.12039783627756726
30.730244,2.733982727249431,0.12021542085268101
30.732636,2.7344964797864977,0.11994691547485734
30.73502,2.729003930084314,0.11988102395287181
30.737424,2.7176448477697397,0.11999781582255048
30.739812,2.711360902134638,0.1199375757566075
30.742196,2.705496265380117,0.11981945993040721
30.744595999999994,2.704566995678208,0.119540809277034
30.746984,2.705267739670379,0.11913288550131151
30.749368,2.7093210588493246,0.11857910016423646
30.751763999999994,2.713374378028271,0.11803105332195746
30.754152,2.714354661274162,0.11759965048653416
30.756536,2.717057506012749,0.11714322496431416
30.758936,2.7240440914978903,0.11652592434342823
30.761323999999995,2.726746936236477,0.11607467418720047
30.763704,2.727727219482368,0.11564499999116991
30.766104,2.7217700349292295,0.1154330185425152
30.768491999999995,2.7096667785099804,0.11542984807422792
30.770875999999998,2.702778428397064,0.11523930721448264
30.773276,2.7052017338819314,0.11482181758850973
30.775664,2.709487370486355,0.11436850071140597
30.778043999999998,2.714284863769976,0.11394346453350429
30.780444,2.716149090747402,0.1136017403188423
30.782832,2.7222970584713817,0.11309417964205944
30.785216,2.7335201628748336,0.11241878454202281
30.787616,2.745534663211204,0.11175245362447185
30.790004,2.7561986891072148,0.11116820729397557
30.792387999999995,2.766722945376366,0.11061021234628766
30.794788,2.7857674613103827,0.10986402401390676
30.797176,2.8005282364978448,0.10928045173750747
30.799568,2.8135664501926105,0.1087222731505639
30.801964,2.8259530375813187,0.10814843562511975
30.804351999999994,2.8328924012382166,0.10767074991762654
30.806732,2.8359673330291413,0.1072935264736177
30.809132,2.840392739260425,0.10684104023206734
30.811519999999994,2.8486825773576823,0.10629145610237456
30.8139,2.857624041760997,0.10574515406223157
30.816295999999998,2.869778311724227,0.10507672893037477
30.818687999999995,2.8799304809410406,0.10448314168942954
30.821068,2.8854268223589625,0.10399326336013147
30.823468,2.8819835952314388,0.10374250407672793
30.825852,2.878400598477055,0.10350836631294366
30.828236,2.8749573713495318,0.10325397644982799
30.830631999999994,2.8676497123560347,0.1030971763105046
30.83302,2.855127147056205,0.10311353711945152
30.835404,2.8399508547039014,0.10316829790408114
30.837804,2.8218412960454016,0.10330797443550271
30.840191999999995,2.7995877662672086,0.10359228652731749
30.842575999999998,2.7703967686899857,0.10405476405298901
30.844972,2.741066001485903,0.10454548401028196
30.847359999999995,2.713178256520797,0.10504766292884245
30.849743999999998,2.685802368234888,0.10558603802892497
30.85214,2.6630823077478705,0.10602727757556288
30.854532,2.6411536431937717,0.10646416380048929
30.856911999999998,2.619085209012813,0.10692088556119521
30.859312,2.597528631511051,0.10740082312883155
30.8617,2.579836485875263,0.1077827460655711
30.864079999999998,2.5635873624784513,0.10817270333922681
30.866476,2.545196368708362,0.10863593721406982
30.868863999999995,2.528155849378632,0.10902349253575146
30.871247999999994,2.5174011715418723,0.10921069252388918
30.873644,2.5041325362794984,0.10943079806550515
30.876031999999995,2.4956594984428766,0.10952395303767955
30.878415999999994,2.493564849897843,0.10949176872790405
30.880812,2.5002700002713945,0.10922565943308496
30.883204,2.5086977121376424,0.10894037787053615
30.885583999999994,2.5204779991906667,0.10851748825593796
30.887984,2.5346796958706874,0.10796794905340468
30.890367999999995,2.5459481262445136,0.10748496817039743
30.892751999999994,2.558287491804978,0.1069569903611397
30.895148,2.568624756619026,0.10648869803365
30.897535999999995,2.578450164753876,0.105982282259603
30.899916,2.5872046377020874,0.10552076798081732
30.902316,2.5968902762100776,0.10504209772806891
30.9047,2.6093694113974024,0.10450449878656622
30.907084,2.620545293972613,0.10394073830013045
30.909484,2.629207219122207,0.10340553724103126
30.911871999999995,2.6353551868461866,0.1028959252728888
30.914252,2.6405719890103887,0.10239989543832362
30.916652,2.6463006478537876,0.10194432535480683
30.919039999999995,2.6524013937495243,0.101547124712159
30.92142,2.6670223993101256,0.10095872883220108
30.92382,2.678058512258475,0.1004409836816093
30.926204,2.6837871711018737,0.1000051210209071
30.928588,2.682066505467047,0.09972005600617326
30.930992,2.6802060702053594,0.0994543565416182
30.933384,2.6787177219960094,0.09924245707886148
30.935768,2.6808142663989125,0.09898279343615889
30.938164,2.6910589834143437,0.09850587903059072
30.940556,2.703725110056772,0.09793624656482844
30.942936,2.7212340559531953,0.0971775544720563
30.945332,2.740465563342315,0.09640878862867
30.947724,2.7619787107315723,0.09557074549446176
30.950104,2.7833520884939684,0.0947587767420557
30.952504,2.8037943006965875,0.0939758552276669
30.954891999999997,2.823817204018625,0.09324664899191346
30.957272,2.8464938343931374,0.09249888102846447
30.959672,2.8690306951407893,0.09176208349483514
30.962059999999997,2.894500822194637,0.09096366712935756
30.96444,2.917037682942289,0.09021982167244938
30.966836,2.9418561836900787,0.08941446284953107
30.969224,2.962950022198755,0.0886915203762185
30.971608,2.985207343692687,0.08802261769996188
30.974004,3.01198072335865,0.08731168017946171
30.976395999999998,3.0404766645173096,0.08658875342516104
30.978776,3.0661791089966344,0.08590192060408204
30.981179999999995,3.0941631934760965,0.0851571036776744
30.983568,3.119214011649363,0.0844775141085365
30.985948,3.138770384262577,0.08396198705987855
30.988344,3.153763476875516,0.08358709705997326
30.990736,3.165915850980878,0.08334980580746854
30.993116,3.179930556205796,0.08309672910647738
30.995512,3.1904529166170787,0.08295055388543768
30.997899999999994,3.198042010722165,0.08284996490634383
31.000284,3.204560169640614,0.08277551961650845
31.00268,3.211218098185922,0.08268687357230675
31.005067999999994,3.2160136956116743,0.08262062383165307
31.007452,3.221880228224064,0.08252943408224273
31.009848,3.229748861582872,0.08240668113549982
31.012235999999994,3.240550761247874,0.08223820543261556
31.01462,3.2492107905395993,0.08212189873338328
31.017016,3.2566601150178256,0.08204471764543765
31.019403999999994,3.2663910794961897,0.08190839344931265
31.021788,3.273188777668358,0.08181608196842109
31.024187999999995,3.2787757710270284,0.08176014603432032
31.026576,3.287156261065033,0.08167573799642876
31.028956,3.291532549610204,0.08165717013936602
31.031355999999995,3.2959088381553756,0.08163860228230331
31.033744,3.3025667667006844,0.08156030452416742
31.036128,3.3135084359925466,0.08139020146123124
31.038528,3.322587774164852,0.08123774307246846
31.040916,3.327942450098045,0.08112408113727687
31.043296,3.3386518019644305,0.08089985756297544
31.045696,3.3525739593907304,0.0806076632830795
31.048084,3.36756705200367,0.08029490544355185
31.050464,3.3833515405495276,0.0799887054907111
31.052859999999995,3.3997876554014423,0.07970173861208316
31.055252,3.4180861013729142,0.0794014126071889
31.057632,3.4313094106649147,0.07918559245953773
31.060028,3.4428101584642183,0.07897408811120409
31.062416,3.4525883447708248,0.0787667493456055
31.064795999999998,3.4632976966372104,0.07855184069999342
31.067192,3.468420055144926,0.07838760120397667
31.069579999999995,3.4738219529063623,0.07819767737037141
31.07196,3.483367821787492,0.07793793469707243
31.074355999999995,3.4950555610418985,0.0776413101618316
31.076747999999995,3.511958206602638,0.07726098192372002
31.079128,3.531142492163514,0.07683276419441336
31.081523999999995,3.5486042162316944,0.0764092288907827
31.083912,3.5623412780607606,0.07601763617712487
31.086296,3.576777188024129,0.07556239624169489
31.088691999999995,3.5893507668679403,0.0751170464701143
31.09108,3.5934040860468857,0.07474958848036338
31.093464,3.5926618078000803,0.07442762965740547
31.095859999999995,3.5892658025008,0.07411312979868377
31.098251999999995,3.582284904589266,0.07381202737809872
31.100632,3.57227819257292,0.07347240722010037
31.103032,3.5586865879443215,0.0731462948903951
31.105419999999995,3.546724997009802,0.0727458608287826
31.1078,3.5341117797692245,0.07232242227680516
31.1102,3.5188448354761728,0.07190057691871468
31.112587999999995,3.497339271518393,0.07149478088975834
31.114968,3.4771841820009715,0.07103463628045188
31.117368,3.454515135057936,0.07056089299496142
31.119755999999995,3.420672101397561,0.07015930551049754
31.122136,3.3747239154600677,0.06983807369568036
31.124531999999995,3.3153201028050967,0.0696484314838659
31.126923999999995,3.251400231978095,0.06945971656583635
31.129304,3.1838954685388394,0.06927327325865117
31.131704,3.1117348773006928,0.06911764605600998
31.134091999999995,3.0317056527037396,0.06906420734835436
31.136472,2.9479517658676726,0.0690544779437254
31.138867999999995,2.8631269438449665,0.069083703327459
31.14126,2.7796525962626197,0.06904000008911997
31.14364,2.6885891545751863,0.06910881883048742
31.14604,2.595942921021916,0.06915878987420164
31.148428,2.5010150474685084,0.069288168040656
31.150808,2.404364612422405,0.06940239574464557
31.153203999999995,2.3047809110701065,0.06953137604373792
31.155592,2.2041262745311694,0.06967083288211745
31.157976,2.1054737387386493,0.06974239043231979
31.160371999999995,2.0094749299986034,0.06981970118470748
31.16276,1.909983776444922,0.0700749254749007
31.165144,1.8068605084507439,0.07060079534826696
31.167539999999995,1.7130488960543493,0.0709852775525442
31.169932,1.6304112703752944,0.07120198879442677
31.172312,1.5568057610403023,0.07140420387238616
31.174712,1.4826411731978697,0.07172462712705016
31.1771,1.4107110035273311,0.07215971705633444
31.17948,1.349815050947272,0.07240542974094369
31.18188,1.2971598187783577,0.07259079579671558
31.184268,1.2539560118340867,0.07258329736430215
31.186651999999995,1.218061759741182,0.07249549231234706
31.189048,1.186124487312868,0.07247194769464224
31.191436,1.1692256334678675,0.07218769894231986
31.193819999999995,1.157634233727816,0.07187050322649069
31.196216,1.1534921584659916,0.07144024831824795
31.198604,1.155728472495755,0.07094763291523565
31.200987999999995,1.1580573343241354,0.07061000230112167
31.203384,1.164762484697687,0.07026772729811896
31.205776,1.1737020532431326,0.07001642139260664
31.20816,1.1880888455203882,0.06971925226735873
