Time,Force,Position
30.35752,12.356211645701912,0.0490547424411969
30.359916,12.230691286586943,0.04903716702351556
30.362304,12.103960222658475,0.04902638220922652
30.364684,11.96749819425164,0.04902706272487961
30.36708,11.829173834725252,0.04902800821538871
30.369468,11.69285157594528,0.049024978472969674
30.371852,11.558950726792306,0.049006816425523084
30.374248,11.423327316146633,0.04898467714742381
30.376636,11.290637171807159,0.04895896055500333
30.379016,11.162742624893434,0.04892862522249033
30.38142,11.036058782793209,0.048890504442615786
30.383808,10.906441674386787,0.04885644389541775
30.386188,10.78520505601837,0.04882224603616715
30.388584,10.657403056903261,0.0488168075085211
30.390972,10.535048281519964,0.048817066867065134
30.393352,10.413856989121923,0.04883848021520088
30.395748,10.291547539708999,0.04889540173786867
30.398136,10.166769458840834,0.04900296818697424
30.400516,10.036402488756131,0.04920065940296289
30.402912,9.909665737254054,0.04946537015197992
30.4053,9.785488269147969,0.04980170208183795
30.40768,9.66675612891582,0.05023604392324438
30.410076,9.555239099878552,0.05074209931402546
30.412464,9.456152088342497,0.0513008727224558
30.414843999999995,9.357482489829156,0.05194914275031567
30.417244,9.259509843592243,0.05267486292859734
30.419632,9.161814840751184,0.05349253688410883
30.422011999999995,9.06733074761217,0.05440097154946315
30.424416,8.976616642682641,0.055377523630587205
30.4268,8.886599490029546,0.05643479372362292
30.429184,8.800072786332217,0.05757379799875465
30.43158,8.718247236404155,0.05879010556388261
30.433968,8.63967981800638,0.060056684992268794
30.436347999999995,8.571727307818506,0.06134748630250917
30.438744,8.504658741362167,0.06268671074471625
30.441132,8.435960161211748,0.06407540666534745
30.443515999999995,8.36698204180761,0.06550505009970453
30.445912,8.301216727963387,0.0669434325816407
30.4483,8.237268419268345,0.06834519426871595
30.45068,8.170481287923597,0.0697144179991383
30.45308,8.098760685384104,0.07102722679903926
30.455468,8.020803359037753,0.07226952839314373
30.45786,7.934327668884407,0.0734621209462064
30.460256,7.839286393095821,0.07464327991662849
30.462644,7.744898639471163,0.07575750060038647
30.465024,7.649674163943213,0.07682350462212097
30.467428,7.552821570579051,0.0778409123763454
30.469816,7.452758067512844,0.07880798711547528
30.472196,7.347202014744454,0.07974526337305358
30.474599999999995,7.237084577833656,0.0806539618557802
30.476988,7.124268087900012,0.08152252702043666
30.479368,7.009683710503298,0.0823484438126522
30.481764,6.885462812284707,0.08318862247783723
30.484152,6.753839811416131,0.08405800232627311
30.486532,6.619889844577043,0.08491182407569393
30.488932,6.488128969939476,0.08572996553130371
30.491316,6.3597678923169285,0.08648928674878206
30.4937,6.230802410216566,0.08722435838105072
30.496096,6.103187402556561,0.08795779662744277
30.49848,5.978785200456472,0.08867285214695717
30.500864,5.851682049475666,0.08949686895239714
30.50326,5.726021920733837,0.09037165910747977
30.505648,5.600594109417483,0.09134010635288196
30.508032,5.480241434780602,0.09228274446955322
30.510428,5.3578866593973045,0.09329908706677427
30.512816,5.232878156961532,0.09438157754747874
30.515196,5.109080359339258,0.09547601661322151
30.517596,4.9870051232096815,0.09661945161593816
30.51998,4.864370808572663,0.09788717777921384
30.52236,4.7425278898685646,0.09923810003788312
30.52476,4.620964510418185,0.10063020615459675
30.527144,4.500472066154445,0.1020626937992225
30.529544,4.382633348943179,0.1035830519187286
30.53194,4.2680074372918275,0.10511967083142183
30.534327999999995,4.153521295267338,0.10673098567134602
30.536708,4.0362416565635115,0.10848398921579182
30.539104,3.9186824786059664,0.11032875943639976
30.541492,3.799772826208062,0.11236151597151524
30.543876,3.6784417641831597,0.11464512078231691
30.54628,3.5548290621581207,0.11714706999643731
30.548663999999995,3.4402956983053876,0.11951710338631098
30.551048,3.3306977015052657,0.12184609812158502
30.553444,3.228828568437091,0.12409363408710897
30.555831999999995,3.1266798961151965,0.12647710183434815
30.558216,3.032260087525249,0.12871597973408935
30.560612,2.94314773304025,0.13097026372547685
30.562996,2.8524053648611725,0.13352655666062416
30.56538,2.7692520907871816,0.13587746758869698
30.567776,2.696109320445275,0.13792533125787182
30.570164,2.629764248275537,0.13981688406798137
30.572548,2.5685868605838884,0.14165428552836765
30.574948,2.5134157751314903,0.14327059804975398
30.577335999999995,2.4650423878512613,0.14470576124360784
30.579716,2.4222559939297015,0.1459832847049563
30.582116,2.3819835574337564,0.14729026196840247
30.584503999999995,2.352373250975953,0.14818485943032222
30.586884,2.3246252756377066,0.14905384139417055
30.589279999999995,2.3075394303376022,0.1494972654680948
30.591668,2.2986017576500264,0.1495722940555265
30.594044,2.293528516828423,0.1494875792475345
30.596447999999995,2.291248772686155,0.14928965493811064
30.598836,2.289201345969364,0.1491670243269465
30.601216,2.2900871855587686,0.1489088838440545
30.60362,2.2956288529470648,0.14845454777791078
30.606008,2.3016823770145587,0.14803442624350527
30.608388,2.3125314985078043,0.14740271733198423
30.610783999999995,2.32952669186716,0.14640368791523284
30.613168,2.3414467485470443,0.14567210879286777
30.615552,2.3493626037340944,0.14515329544675978
30.617951999999995,2.354065653361229,0.14481936825345132
30.62034,2.357837537428585,0.14452373784598513
30.62272,2.3576977678017252,0.14454813787792717
30.625119999999995,2.3583493941077833,0.1445548751345011
30.627504,2.3569989196674244,0.1446691495369055
30.629884,2.362725682652955,0.14439869831592692
30.632284,2.3612354385857355,0.1445348130957377
30.634668,2.3645407919442682,0.14444542319495535
30.637063999999995,2.365844044556384,0.14446136650200253
30.63946,2.3680784627282785,0.14444157224280382
30.641848,2.375388017579645,0.14417558442079642
30.644228,2.378553601311317,0.14412116616357218
30.646624,2.385491069110346,0.1438057550133579
30.649012,2.3857706083640666,0.14376082966183998
30.651392,2.3831168813115915,0.14384815313608684
30.653796,2.3788803623932804,0.14396358024859496
30.656184,2.369056850116299,0.14429935896546794
30.658564,2.361095668958875,0.14455537476867494
30.660964,2.356487062988226,0.14461703708628026
30.663352,2.3517386873907173,0.14470624345166008
30.665732,2.3531363836593195,0.14447493154631308
30.668136,2.3557447847414204,0.14415765196586522
30.67052,2.358772494704102,0.14375951024285785
30.672904,2.3590067079874486,0.14348071443401997
30.6753,2.3592409212707954,0.14319954092450418
30.677684,2.3561225593673663,0.14313666607153258
30.680068,2.3560772333969924,0.1429058375294095
30.682468,2.351096540374006,0.14292442148683265
30.684856,2.3431825810448252,0.14308455059115444
30.687236,2.3320558161557283,0.1434308874949975
30.689636,2.3194388071994125,0.14388851579692738
30.692024,2.3097550645492912,0.14421389591543818
30.694404,2.298581077831952,0.14465398409763697
30.6968,2.2959273507794773,0.14474159421003774
30.699188,2.2962068900331976,0.14469589508549918
30.701572,2.299140156339393,0.1445628526592764
30.703968,2.3079399552579787,0.1441653887630868
30.706351999999995,2.317810689363203,0.1437280277055232
30.708736,2.3283330497744847,0.1433053457212685
30.711132,2.3450014820518774,0.14260018002073835
30.713519999999995,2.357805482463297,0.14206482260509995
30.7159,2.3723320443674125,0.14149424385525702
30.7183,2.3908628077643614,0.14075013670087752
30.720684,2.4132580030272845,0.13985511051635172
30.723068,2.438586464596403,0.13884900850931847
30.725463999999995,2.4603300335532676,0.13793799735565926
30.727852,2.482073602510132,0.1370269862020001
30.730232,2.50768160333297,0.13595798783532764
30.732631999999995,2.5323584385960305,0.13490073725617427
30.73502,2.561039475351924,0.13367847449948647
30.7374,2.581060482816093,0.13276426758371762
30.739796,2.5982879936009264,0.13194988133916924
30.742184,2.6145843388259817,0.13117610612892303
30.74458,2.624082985878868,0.13069314091474898
30.74698,2.6369342081185305,0.13004636122049934
30.749368,2.646991933678858,0.12950128783866136
30.751748,2.65425616255985,0.1290645703435898
30.754148,2.656445254761371,0.12884780940920926
30.756536,2.6567720158433348,0.12869280550939355
30.758916,2.6540257409922425,0.1286696899032397
30.761316,2.649137595767874,0.12874905470434053
30.7637,2.6455999249838644,0.12873411077784996
30.766084,2.6392687575205196,0.12880408591491505
30.768484,2.6300043237509794,0.12897739422524618
30.770872,2.6188775588618824,0.1292016314376616
30.773252,2.6096131250923427,0.12937659642873162
30.775652,2.600628230576523,0.12951028574440207
30.778036,2.586987508261812,0.12978879290865342
30.780415999999995,2.575069347439797,0.1300352699982091
30.78282,2.560357689938447,0.13035845721922157
30.785208,2.557658636915598,0.13022228372607636
30.787588,2.5578928501989453,0.12997940246785006
30.789988,2.5551937971760963,0.12984247781181477
30.792376,2.5575698808327196,0.12949589980393658
30.794756,2.5516580222499554,0.12950776961598212
30.79716,2.5468170988538295,0.12946988274211227
30.799548,2.5406257010173445,0.12952323007927227
30.801928,2.5355052383674983,0.12952865678738887
30.804324,2.534528746837346,0.12935105950010978
30.806712,2.5304792193741386,0.12930400987630342
30.809092,2.5352294908295163,0.12893175708816768
30.811496,2.531831589672367,0.1288952135980397
30.813884,2.5302960196347737,0.1287994247314534
30.816264,2.5267583488507643,0.12878452980259805
30.81866,2.5201476421336992,0.12890617691820164
30.821048,2.5153992665361904,0.128965702020944
30.823428,2.5100918124312406,0.12910971745100092
30.825824,2.510511121311821,0.12904645371793955
30.828216,2.5121411350059004,0.12891078662012276
30.830596,2.5116292783267027,0.1288783978591773
30.832992,2.50818415534131,0.1289541167828243
30.83538,2.504739032355917,0.12902788697306167
30.83776,2.506229276423136,0.12891803163486049
30.840156,2.503575549370662,0.12898373939093055
30.842544,2.505857189370799,0.1288630720726054
30.844924,2.5090699949307145,0.12871452246295695
30.84732,2.513353735677269,0.12851475252655573
30.849704,2.51949980754338,0.12825612968129435
30.852084,2.5182891027298813,0.12832701036469535
30.854479999999995,2.5232244697824933,0.1281412020945018
30.856868,2.5185686419836015,0.12828317435991607
30.859252,2.5200588860508204,0.12817174188165248
30.861647999999995,2.522620065304678,0.1280140166487213
30.864036,2.5331896475442033,0.12755589252043906
30.866416,2.549485992769258,0.12690789344699305
30.868812,2.5609867405685613,0.1264103219071007
30.8712,2.5721154013155276,0.1258567617985719
30.873584,2.576586133517185,0.12552455668007725
30.875988,2.5771924338528693,0.1253269269170739
30.878372,2.5780782734422734,0.12508404332653492
30.880752,2.574820141911984,0.12502422727970558
30.883151999999995,2.5666266433290823,0.12516099118056004
30.885536,2.556570813626624,0.12535336807055844
30.88792,2.55079872467072,0.12534029010739656
30.890316,2.542372908662342,0.12539627405396184
30.892704,2.531013826347768,0.12556441683220526
30.895084,2.5197945136600546,0.12571034042390034
30.897484,2.504990308360087,0.12595983169965327
30.899868,2.496471944553091,0.12592250167690855
30.902252,2.4770119114542326,0.1263459283263851
30.904648,2.4614163102213475,0.12663101172041263
30.907036,2.4427476730554076,0.12705940286301573
30.90942,2.419143668836855,0.12769892638136865
30.911816,2.3886021968192734,0.12860810298270772
30.9142,2.3546156018163,0.12958017234806152
30.91658,2.3275664746123548,0.13026462601735192
30.918996,2.3034506137146047,0.1308138332534142
30.921384,2.2842701198694666,0.13117371675703238
30.923764,2.273098029009996,0.13119211122341046
30.92616,2.2677924707629153,0.130987716210479
30.928548,2.263557847702474,0.13073209899899876
30.930932,2.265981153187341,0.13024438602099267
30.933328,2.265331422739152,0.12988606931686408
30.935716,2.2622602826639655,0.12967729133188874
30.9381,2.260911704081476,0.129428434290719
30.940496,2.2634275573649596,0.12903641228532026
30.942879999999995,2.2659434106484437,0.12864531213120609
30.945264,2.274046257290598,0.12807491841272478
30.94766,2.281078168746113,0.12756771988046686
30.950047999999995,2.297841044679992,0.12667934035783682
30.952428,2.317397417293206,0.12572233599655766
30.954823999999995,2.339887056212615,0.12464940897094687
30.957212,2.3690346236773325,0.12335295039137878
30.959596,2.4019068533811634,0.12193354568732102
30.961991999999995,2.437432810137469,0.12046539008522134
30.96438,2.4749608676401915,0.11901600538331737
30.966764,2.510998681075695,0.11771286559367328
30.969159999999995,2.5487590560038944,0.11642175903699185
30.971548,2.580093819812263,0.1154401646551822
30.973928,2.6071448428740776,0.11466125684137012
30.976324,2.636197966682309,0.11381837592293062
30.978712,2.6607350323185086,0.11308102042049119
30.981096,2.691278400193959,0.11214913013198405
30.983492,2.724243177696407,0.11111252409114653
30.98588,2.76042076075877,0.10997949927675964
30.98826,2.7956671782613554,0.10889491426931529
30.990656,2.8287717253906637,0.10787880627911785
30.993044,2.8600139414004153,0.10693485046906014
30.995424,2.891395927037027,0.10599141602513257
30.99782,2.9217069774870006,0.10511465423988615
31.000208,2.9510868623771955,0.10428587706149291
31.002588,2.9791162728270315,0.1035298359938896
31.005004,3.0022103162242546,0.10291258439082164
31.007392,3.021579697382366,0.10236871049320358
31.009772,3.037736272980561,0.1019310520803816
31.012168,3.0457446759662283,0.10172387160020016
31.014556,3.054684244511674,0.10150148991184481
31.016936,3.057617510817869,0.1014326717137629
31.019348,3.062832417124201,0.10127945117862289
31.021736,3.067116157870756,0.10114251625414974
31.024132,3.0712601289904495,0.10102355834905752
31.026528,3.0811308630956726,0.10078761511416007
31.028915999999995,3.086066230148285,0.10067101522996838
31.0313,3.090302749066596,0.10063635525775597
31.033691999999995,3.0949113550372442,0.10065041808979162
31.03608,3.096446925074838,0.10074242690599183
31.03846,3.1038490277248214,0.10071001313416035
31.040856,3.1111113607479437,0.1006941405239216
31.043248,3.117023219330709,0.10073975257837023
31.045628,3.124145782726971,0.10074213427117365
31.048024,3.1271243750035405,0.10084767916614296
31.050412,3.1343867080266636,0.10083625462211544
31.052792,3.146863947356119,0.10069806396910924
31.055192,3.162926079297828,0.10051734697084141
31.05758,3.184994513478787,0.10021374079262431
31.059976,3.2099962139659417,0.09984357368560025
31.062372,3.2304818562810653,0.09952777731595046
31.06476,3.2548319304621613,0.09913100298923802
31.06714,3.2759691990833426,0.09882029556650923
31.069536,3.2971064677045234,0.09850358183861085
31.071924,3.3193146715123425,0.09816386873563755
31.074308,3.3395207745737454,0.09788216366789462
31.076704,3.3635913095011216,0.09753010006776426
31.079092,3.3834253255101867,0.0972027293785575
31.081475999999995,3.395949786667885,0.09697426612304591
31.083872,3.4115472837586394,0.09667229672623043
31.08626,3.421418017863864,0.09647356142670546
31.088643999999995,3.428215716036032,0.09634472701866265
31.091044,3.4360843493948394,0.09618745157967794
31.093432,3.438877846074175,0.09614519172082452
31.095811999999995,3.444092752380507,0.09601580622660066
31.098208,3.445303457194006,0.09597332458611961
31.100592,3.4385057590218375,0.09609819291271374
31.102976,3.431196204170471,0.09619187885035563
31.105376,3.4173684904006567,0.09637567603033505
31.107764,3.4088954525640345,0.09642008356749103
31.110144,3.4072201128995814,0.09634822776674291
31.11254,3.4071747869292075,0.09619682418636863
31.114928,3.413555072078665,0.09589369418867895
31.117308,3.426221198721093,0.09545924717743505
31.119712,3.436093828684186,0.09506234930944038
31.1221,3.4448955234606404,0.09469438744170632
31.12448,3.454628383796874,0.09432239714169094
31.126876,3.4691568415588585,0.0938830250617444
31.129264,3.4876895008136772,0.09336808090653209
31.131644,3.5062221600684955,0.09285862998749073
31.134044,3.52768808562951,0.09230210648613837
31.136427999999995,3.5526463560041597,0.09164605143723861
31.138808,3.575882064886113,0.09100032745663453
31.141204,3.6012596441413436,0.09030117995194581
31.143592,3.627288849702632,0.08962198023989536
31.145992,3.6515954937712243,0.08894810974222947
31.148388,3.6816289008253458,0.08818651499571549
31.150776,3.7107311423196894,0.08744466941959085
31.153156,3.7399731534408938,0.08668220431728546
31.155552,3.7622776967630682,0.08605071883297592
31.157944,3.7777845419130744,0.0855240142262789
31.160324,3.7897990422494447,0.08509696253691293
31.162728,3.796598636279483,0.08477756020124923
31.165112,3.795389827323853,0.08458990124246549
31.167492,3.795251953554862,0.08437961784462716
31.169892,3.793391518293175,0.08417610082995007
31.172276,3.7905999174717095,0.08398424846928078
31.174656,3.7885997125831614,0.08379756403536012
31.17706,3.78832206918731,0.08360619329400826
31.179448,3.7872530298585407,0.08341209926883242
31.181828,3.787394695343271,0.08318725849032817
31.184224,3.788327756760918,0.08296810410346928
31.186612,3.791262918924983,0.08272141642973724
31.188992,3.7969915777683823,0.08245336274045978
31.191388,3.8029997758655023,0.08216420488639802
31.193776,3.8138035713883736,0.08182693476142704
31.196156,3.8219536398587706,0.08150238215172483
31.198552,3.829032773142529,0.08119696845408637
31.20094,3.840627964598319,0.08086773505389924
31.203336,3.8538059479199447,0.08054451506851594
31.205732,3.871779528667322,0.08017164858891672
31.208116,3.8937573109075334,0.07974830275244109
31.210496,3.916014632401466,0.07930062815033438
31.2129,3.942415925015091,0.07878752881981274
31.215288,3.9674667431883583,0.07831606173979512
31.217668,3.990515460615208,0.07786604590928188
31.220064,4.009839515802944,0.07744796383050147
31.222452,4.024507743191789,0.07706980926616613
31.224832,4.0401071361404135,0.07669142491124858
31.227236,4.053564658715759,0.07634918806395255
31.229624,4.06366960610433,0.0760759511654332
31.232008,4.070701517559845,0.07584791714537764
31.234412,4.0775936593885,0.07563333499275852
31.236799999999995,4.0798299734182635,0.07545334791751637
31.23918,4.080995352261389,0.07529195394734993
31.241576,4.076294198492123,0.07519210634405998
31.243964,4.0763886421486095,0.0750497301452006
31.246344,4.080347517671069,0.07487239248104685
31.248743999999995,4.079510795767777,0.07473733701186272
31.251132,4.0780224475584275,0.07458616857841029
31.253512,4.074811537856381,0.07443681223655269
31.255908,4.070297375542219,0.07425687841055544
31.258296,4.066434839534114,0.07409230768050676
31.260676,4.06243253389915,0.07393883292160354
31.263072,4.062062342704682,0.07370540629818105
31.26546,4.065696353003047,0.07342803937494696
31.26784,4.066676636248937,0.07315221968457271
31.270236,4.068076228375409,0.07284172506381338
31.272624,4.061095330463876,0.07257877971224534
31.275004,4.0583981732988965,0.07225018643319792
31.277404,4.054537533148662,0.07187451314411701
31.279788,4.048442474826532,0.07146650654772665
31.282172,4.036900192772594,0.07107611573624666
31.284568,4.020981622173483,0.07068254710508633
31.286956,3.9989642015365057,0.07028592455384236
31.289336,3.9755037586605515,0.06985804552890355
31.291736,3.9431509690673963,0.06944340971039442
31.29412,3.903488624622873,0.06905385183853294
31.29652,3.8623832579393746,0.0686326783934217
31.298916,3.8181123075242036,0.0681733107587088
31.301304,3.7663920326308062,0.06774720819443895
31.303684,3.705732189191963,0.06740859878787368
31.30608,3.6399046612750303,0.06705734224767666
31.308468,3.5654171040663725,0.06678046244486129
31.310852,3.4809190431256303,0.06662020028226022
31.313248,3.3909737584530784,0.06646765054089394
31.315636,3.3048929056464997,0.06626452926290965
31.318016,3.2162508735860635,0.06614173748071459
31.32042,3.1325442085782393,0.06595118322540772
31.322808,3.043622637264083,0.0658358834439167
31.325188,2.953210821882707,0.06578118932509987
31.327588,2.8671752950465024,0.06570490593526433
31.329975999999995,2.786726761568968,0.06558166268328104
