Time,Force,Position
31.594752,0.43362840160385646,0.0
31.59713600000001,0.4282737256706638,0.0
31.59952,0.4159815819384423,0.0
31.601916000000003,0.4006164022731654,0.0
31.604308000000003,0.3843200570481102,0.0
31.606688000000005,0.3689548773828333,0.0
31.609084,0.35265853215777815,0.0
31.611476,0.3394352228657784,0.0
31.613856,0.323697956148164,0.0
31.616252000000003,0.31317559573688203,0.0
31.61864,0.30707674569901433,0.0
31.62102400000001,0.3000467301013684,0.0
31.62342,0.29301671450372235,0.0
31.625808000000006,0.29013067002577037,0.0
31.628192,0.2952530285334857,0.0
31.630588000000003,0.30037538704120115,0.0
31.632971999999995,0.3095019470417502,0.0
31.635356,0.322632708535133,0.0
31.63775200000001,0.33762580114807245,0.0
31.64014,0.3546209945074288,0.0
31.642523999999995,0.3629561585750598,0.0
31.64492,0.36835805633649554,0.0
31.647307999999995,0.3757620548443482,0.0
31.649692,0.38344559260592126,0.0
31.652092,0.3891270296210774,0.0
31.654476000000003,0.39294613551667706,0.0
31.656859999999995,0.39490291029272007,0.0
31.659256,0.39378664913570766,0.0
31.661643999999995,0.3906682872322783,0.0
31.664024,0.3838252630897357,0.0
31.666424000000006,0.37819294376069196,0.0
31.668812000000003,0.37041875405837105,0.0
31.671192000000005,0.3627843339829104,0.0
31.673592,0.3515650212951967,0.0
31.67597600000001,0.33045580354908954,0.0
31.67836,0.30734448505656553,0.0
31.680756,0.28022896507120776,0.0
31.683144,0.25111134433943316,0.0
31.685528000000005,0.22092278842102012,0.0
31.687923999999995,0.1905944628757469,0.0
31.690316,0.16599290031600378,0.0
31.692696,0.14525576962223413,0.0
31.695092,0.12544980448824283,0.0
31.69748,0.10643523528716961,0.0
31.699864000000005,0.08835183164587472,0.0
31.702259999999995,0.07213075912413648,0.0
31.70464800000001,0.0588429529085934,0.0
31.707032,0.046486312252828635,0.0
31.709428000000003,0.036923168276398834,0.0
31.711816,0.028011650606026926,0.0
31.714200000000005,0.01774965849529607,0.0
31.716596,0.010420932690760389,0.0
31.71898400000001,0.00388360281914282,0.0
31.721368,0.0,0.0
31.723776,0.0,0.0
31.726164,0.0,0.0
31.728544,0.0,0.0
31.730944000000008,0.0,0.0
31.733332000000004,0.0,0.0
31.735712000000007,0.0,0.0
31.738112,0.0,0.0
31.7405,0.0,0.0
31.74288,0.0,0.0
31.745276000000004,0.0,0.0
31.747668000000004,0.0,0.0
31.750048000000007,0.0,0.0
31.752448,0.0,0.0
31.754836,0.003791055020525758,0.0
31.757220000000004,0.008373505973969625,0.0
31.759615999999998,0.015097827300690553,0.0
31.762004000000005,0.019959817507854843,0.0
31.764388,0.02174877178196375,0.0
31.766784,0.021748771781963747,0.0
31.769172,0.021748771781963747,0.0
31.771556000000004,0.021748771781963747,0.0
31.773956,0.021748771781963747,0.0
31.776343999999995,0.021748771781963747,0.0
31.778724,0.021748771781963747,0.0
31.781124000000005,0.021748771781963747,0.0
31.783512,0.021748771781963747,0.0
31.785892000000004,0.021748771781963747,0.0
31.788292,0.021748771781963747,0.0
31.790679999999995,0.02174877178196375,0.0
31.793064,0.02174877178196375,0.0
31.79546000000001,0.02174877178196375,0.0
31.79785200000001,0.02174877178196375,0.0
31.800231999999998,0.02174877178196375,0.0
31.802632000000003,0.01795771676143799,0.0
31.80502,0.013375265807994125,0.0
31.807404000000005,0.0066509444812731956,0.0
31.809812000000008,0.001788954274108906,0.0
31.812200000000004,0.0,0.0
31.814584,0.0,0.0
31.81698,0.0004857016619931066,0.0
31.819368,0.0020423385106247438,0.0
31.821752000000004,0.003738744986116591,0.0
31.824152,0.009579122581302352,0.0
31.826539999999994,0.01355716905693147,0.0
31.828924,0.017395445905700378,0.0
31.831320000000005,0.021093953127609075,0.0
31.83371200000001,0.02358175553601903,0.0
31.836096,0.024067457198012135,0.0
31.838492,0.024413389233145042,0.0
31.84088,0.02475932126827794,0.0
31.843264000000005,0.02475932126827794,0.0
31.845664,0.02475932126827794,0.0
31.848052,0.02475932126827794,0.0
31.85044000000001,0.02475932126827794,0.0
31.85284,0.02475932126827794,0.0
31.855228,0.02475932126827794,0.0
31.857608,0.02475932126827794,0.0
31.860008000000008,0.02475932126827794,0.0
31.862396000000004,0.02475932126827794,0.0
31.86477600000001,0.024273619606284835,0.0
31.867176,0.022716982757653197,0.0
31.869564,0.02102057628216135,0.0
31.871944,0.015180198686975586,0.0
31.874344000000008,0.01205994092567705,0.0
31.876732000000004,0.01215248872429411,0.0
31.879116,0.012524575776631592,0.0
31.881512,0.012384806149771378,0.0
31.8839,0.01438690689618823,0.0
31.886284000000003,0.017320173202383403,0.0
31.888680000000008,0.022255540254995425,0.0
31.891068000000004,0.028328235275658455,0.0
31.893452,0.036403031042738336,0.0
31.895848,0.04354666125003989,0.0
31.89824,0.052552622576898085,0.0
31.900620000000004,0.06262951909039483,0.0
31.903016000000008,0.0707043148574747,0.0
31.905404000000004,0.0789188802514148,0.0
31.907784000000007,0.08527111452579825,0.0
31.910184,0.08733960805362756,0.0
31.912572,0.08740600083504005,0.0
31.914952,0.08740600083504005,0.0
31.917368,0.08740600083504005,0.0
31.919752000000003,0.08740600083504005,0.0
31.922135999999995,0.08654821212070947,0.0
31.924532,0.08261738747332349,0.0
31.92692,0.07854679319907731,0.0
31.9293,0.07619876041752757,0.0
31.931696,0.07371095800911762,0.0
31.934084,0.07043175966778954,0.0
31.936468000000005,0.06515046058004463,0.0
31.938863999999995,0.0590777655593816,0.0
31.94125200000001,0.05100296979230172,0.0
31.943636,0.04385933958500016,0.0
31.946032,0.03485337825814196,0.0
31.94842,0.024776481744645223,0.0
31.950804000000005,0.016701685977565342,0.0
31.953199999999995,0.008487120583625255,0.0
31.95558800000001,0.0021348863092418035,0.0
31.957972,6.639278141247597e-05,0.0
31.960368000000003,0.0,0.0
31.962756,0.0,0.0
31.965140000000005,0.0,0.0
31.96754,0.0,0.0
31.969928,0.0,0.0
31.972308,0.0,0.0
31.974704000000003,0.0,0.0
31.977096000000003,0.0,0.0
31.979476000000005,0.0036512853936655465,0.0
31.981892,0.006231635600692563,0.0
31.984275999999998,0.008672216180859369,0.0
31.986656,0.012183731947664707,0.0
31.989072000000007,0.013693146968053193,0.0
31.991456,0.013693146968053193,0.0
31.993836,0.014271396428663359,0.0
31.996252,0.014271396428663359,0.0
31.998639999999995,0.015641041822191636,0.0
32.00102,0.01607952165594159,0.0
32.003416,0.017588936676330075,0.0
32.005804,0.018167186136940242,0.0
32.008184,0.018167186136940246,0.0
32.010583999999994,0.021538932276885372,0.0
32.012968,0.025981613603469032,0.0
32.015364000000005,0.03135546048983101,0.0
32.01776,0.035798141816414664,0.0
32.020144,0.038378492023441686,0.0
32.022524000000004,0.04216954704396744,0.0
32.024928,0.04395850131807635,0.0
32.027316,0.0403072159244108,0.0
32.029696,0.038724424058574576,0.0
32.0321,0.03628384347840777,0.0
32.034484000000006,0.03277232771160243,0.0
32.036863999999994,0.03126291269121394,0.0
32.03926800000001,0.03126291269121394,0.0
32.041656,0.030684663230603777,0.0
32.044036000000006,0.030684663230603777,0.0
32.046432,0.0293150178370755,0.0
32.048820000000006,0.028876538003325552,0.0
32.051199999999994,0.027367122982937062,0.0
32.05360400000001,0.026788873522326898,0.0
32.055992,0.026788873522326898,0.0
32.058372000000006,0.02341712738238177,0.0
32.060776000000004,0.018974446055798115,0.0
32.063164,0.013600599169436138,0.0
32.065544,0.009157917842852479,0.0
32.06794000000001,0.006577567635825461,0.0
32.070328,0.0027865126152997024,0.0
32.072708000000006,0.0009975583411907965,0.0
32.075104,0.0009975583411907965,0.0
32.07749200000001,0.0,0.0
32.079871999999995,0.0,0.0
