Time,Force,Position
31.240527999999998,12.234252292905852,0.04801134329840527
31.242924,12.126237087971566,0.04801177840204693
31.245311999999995,12.013426285611528,0.0480166724118336
31.247695999999998,11.90275735362477,0.048015281940763446
31.250092,11.789294924958673,0.048013951822531084
31.252479999999995,11.672759460359526,0.048019053722249176
31.254863999999998,11.555292830200594,0.04802422926386176
31.25726,11.432890832989056,0.04803677502502797
31.259647999999995,11.309138361337155,0.04806085788842913
31.262031999999994,11.184314954498618,0.048088533983765475
31.264428,11.054928267659808,0.048141677892499755
31.266815999999995,10.924563193432974,0.048224063551204614
31.269196,10.797875559617012,0.04833761523777862
31.271596,10.67886956770475,0.048473015567200815
31.273983999999995,10.566054973628976,0.04864788645940664
31.276367999999994,10.459431777389685,0.048861971273632246
31.278764,10.35671833898674,0.049128843744396564
31.281151999999995,10.257076040658982,0.04947488787183903
31.283535999999994,10.158363012033133,0.04991052399805819
31.285932,10.063512519415386,0.05042983107231077
31.288319999999995,9.975737368365664,0.051019165743528556
31.290703999999995,9.889822652577628,0.05170115450110672
31.293104,9.814847710223589,0.05244809119162757
31.295492,9.74229228163867,0.05326742416188369
31.297876,9.678674525741332,0.05415408157465232
31.300272,9.61747628361312,0.055115423574690146
31.30266,9.561630821560234,0.05614322760522761
31.305039999999995,9.511649996261868,0.05725702412913131
31.307436,9.469163821412103,0.0584271794205424
31.309823999999995,9.43161111775708,0.059681051378445746
31.312207999999995,9.402531451938678,0.06096222096577471
31.314604,9.37647760022509,0.06227375232641175
31.316991999999995,9.351634453325001,0.06358308908911955
31.319375999999995,9.3230666441858,0.06490270579006721
31.321767999999995,9.289470920195365,0.06622773628228266
31.32416,9.251778446913482,0.06755323630488509
31.32654,9.213621338780644,0.06884430581007153
31.32894,9.179562875797128,0.07006478396830126
31.331328,9.14522676941776,0.07122122169718706
31.333711999999995,9.10488625665701,0.07233065795568698
31.336108,9.055747840835545,0.07339892663635775
31.338496,9.00488875937925,0.07439142218948593
31.340879999999995,8.944719918183043,0.07532915180347488
31.343276,8.879617605792095,0.07621063764834114
31.345664,8.807719491086846,0.07703731334028736
31.348047999999995,8.730468596306274,0.07782830651981813
31.350444,8.646793986263738,0.07858896672561981
31.352832,8.557254739466682,0.07930619471831486
31.355215999999995,8.460360611847884,0.07999802313560048
31.35762,8.360535113780763,0.08062377511612845
31.360008,8.255868692317515,0.08122168309307634
31.362388,8.148083908950836,0.08179409354962879
31.364784,8.03541098035979,0.08237814940999065
31.367172,7.918641302477294,0.08297927281297382
31.369556,7.805643508662153,0.08354228451713928
31.371952,7.691761771115478,0.08409010748933789
31.37434,7.572712349090713,0.08466453231083627
31.376724,7.446493141841442,0.08527716942449969
31.37912,7.323626509778947,0.0858582630251908
31.381508,7.204903848836146,0.08641731758896853
31.383887999999995,7.08911445419954,0.08697634756008414
31.386288,6.974256225122712,0.08754514089646609
31.388672,6.863494745337334,0.08813246716066744
31.391055999999995,6.754455827044656,0.0887319878378564
31.393452,6.64699970061781,0.08934883278688979
31.39584,6.5454101068033586,0.08993355071432328
31.39822,6.443960282615763,0.09053691235687593
31.40062,6.34851676066742,0.09110060327705445
31.403008,6.254423713159436,0.09165714102951192
31.405388,6.157676938598977,0.09224660067599832
31.407784,6.059347372172681,0.09285566631481551
31.410172,5.963159676119663,0.09345229195339293
31.412556,5.869113850439921,0.0940430665063413
31.414952,5.774416398454122,0.09466107233073089
31.417344,5.674923349042571,0.09535371816016665
31.419724,5.574219594817521,0.09610784234938083
31.42212,5.475517941338888,0.0968739307798993
31.424508,5.378538849352953,0.09767153202199036
31.426892,5.27369112400821,0.09861238854283505
31.429292,5.16684129791705,0.09961605160014424
31.43168,5.059991471825889,0.10066513658015726
31.43406,4.953281415361589,0.10174063647655214
31.43646,4.843917631844814,0.10289627032251232
31.438848,4.734553848328039,0.1040978075653943
31.441228,4.62146540257215,0.10541977016907814
31.443624,4.505583460136927,0.10682032484235553
31.446012,4.390632683261483,0.10829380216582739
31.448396,4.275681906386038,0.10979527405282881
31.450792,4.164176252495986,0.111310310511001
31.453184,4.060771549390219,0.1127515120695862
31.455564,3.961743134829622,0.11419442069685509
31.457964,3.8635061162019433,0.11567366228189828
31.460352,3.765269097574265,0.11722172753968829
31.462732,3.6739695467456155,0.11866342015521504
31.465132,3.585323722969442,0.12016936510005256
31.467516,3.4997509351263223,0.12167876830545948
31.4699,3.4179028095223165,0.12316647225986668
31.4723,3.3389879502245066,0.12464897818620906
31.474688,3.267242876151202,0.1260981708393798
31.477068,3.198011759503512,0.1275895742182296
31.479464,3.1342278665876315,0.12900305897192335
31.481856,3.0728181614705057,0.13045059805489245
31.484236,3.0200684856451048,0.13167428512079177
31.486636,2.970763932805097,0.13287691679964356
31.489024,2.9297001003762335,0.1339164411188651
31.491408,2.889008354999708,0.13506938700473275
31.493804,2.8557659341014086,0.1360246369250578
31.496192,2.8230353698823074,0.13703593380522577
31.498576,2.792306906409623,0.13798033667913065
31.500972,2.759855881444242,0.1389620495275191
31.50336,2.7272650868520008,0.1399919186239011
31.50574,2.695325918565817,0.1410645598998314
31.50814,2.6677630388248055,0.14205260704292524
31.510528,2.6395013109494925,0.14315124822159092
31.512908,2.621250086806264,0.14382410613230837
31.515307999999997,2.6105879567681214,0.14422304239695533
31.517696,2.6004376834091762,0.14465856525401447
31.520076,2.5918702019160684,0.14508014232797767
31.522475999999997,2.588517626729292,0.14525722856556872
31.524864,2.588238087475572,0.14529788162887033
31.527248,2.5851650515425164,0.1454400508793104
31.529643999999998,2.5880983178487114,0.1453203660242269
31.532032,2.5887499441547694,0.1453282137808814
31.534416,2.5924746063938824,0.1451989151487817
31.536811999999998,2.5966185775135764,0.1450119686614012
31.5392,2.608259094939741,0.14445997207679157
31.54158,2.6193877556867062,0.14389316050037576
31.543979999999998,2.6337292219935877,0.14317052602843003
31.546368,2.6469997531138305,0.14249664865801204
31.548748,2.6571972483010184,0.1419414754286591
31.551147999999998,2.6696763834883432,0.1412536016078876
31.553536,2.684017849795225,0.14048746207312962
31.555916,2.6966367546094103,0.1397583081821846
31.558315999999994,2.709674968304176,0.1389557597824852
31.560707999999995,2.715356405319332,0.1385312945270947
31.563088,2.713169208975682,0.13843809872476587
31.565483999999994,2.710470155952833,0.1383163316909183
31.567875999999995,2.711775304422818,0.13801763945977055
31.570256,2.70800531621333,0.13795019037976824
31.572651999999994,2.7053062631904816,0.13782817187015753
31.57504,2.707263037966525,0.1375396863584405
31.57742,2.701630718637481,0.1375366925537844
31.579816,2.6904114059497672,0.1377472780376901
31.582204,2.673325560649663,0.13821778889796968
31.584588,2.6525150531104456,0.1388328415207346
31.586984,2.6274208048246743,0.13965539914832018
31.589372,2.5989739813521275,0.14067209990108556
31.591752,2.5694562226929416,0.14172898937448908
31.594152,2.5390072984739773,0.142846090352266
31.596539999999997,2.5145646764942637,0.14369352436057095
31.59892,2.4878404145144124,0.14469093142653386
31.60132,2.462606396601781,0.14555141129498955
31.603707999999997,2.439234709808706,0.14635263102700782
31.606088,2.4177253541351877,0.1470765240624333
31.608484,2.4017104440217216,0.14748288925259137
31.610872,2.3935641672670633,0.1475431869705591
31.613256,2.3911446534979346,0.1473733862703962
31.615652,2.386211182303192,0.14726096935974234
31.61804,2.384630286295225,0.14696570384008964
31.620424,2.3819784551006196,0.1467245492352688
31.62282,2.379466393532874,0.1464651002867503
31.625208,2.3805392245773818,0.1460948735182744
31.627588,2.390411854540475,0.1453608833860286
31.629988,2.4082928874892353,0.1442802023649313
31.632376,2.4305502089831674,0.14307186206382064
31.634756,2.4526677608502396,0.14186752747784684
31.637155999999997,2.4789292838370054,0.14046356503166216
31.639544,2.505842433129829,0.13907682980185865
31.641924,2.5387618846619033,0.13744891394364714
31.64432,2.568608300260922,0.13598172770184652
31.646708,2.603529852539413,0.13429662828984498
31.649092,2.639103031123961,0.13266660009877157
31.651488,2.6777492456415652,0.13093727519864548
31.65388,2.7171868560920873,0.12923256090712257
31.656264,2.7501988554227785,0.1278411868218412
31.658659999999998,2.7782754877008573,0.12666755268278437
31.661048,2.8015565225531853,0.1256823447713572
31.663428,2.821624751845597,0.12482897837026548
31.665827999999998,2.8383404059512323,0.12413586690856009
31.668216,2.8549162904300083,0.12346360476719666
31.6706,2.8697696134160875,0.12283910473694049
31.672995999999998,2.8867648067754437,0.12213325505509624
31.675384,2.9037600001347994,0.12145670585697034
31.677768,2.9168907616281823,0.12091702764942501
31.680163999999998,2.926157091255592,0.12049120517787025
31.682552,2.9386362264429167,0.11994270834258905
31.684936,2.9451090593909908,0.11958887561926687
31.687344,2.9490679349134505,0.1192702386099091
31.689732,2.9448786378233827,0.11923552849300494
31.692115999999995,2.9397581751735364,0.11922624193670885
31.694512,2.930773280657717,0.11932983501189792
31.6969,2.9169927887161453,0.11957356990463884
31.699283999999995,2.8993478649086004,0.11992387854500812
31.701684,2.878397587742523,0.12031165503008179
31.704072,2.860660116136361,0.12058280745039732
31.706451999999995,2.845344054157197,0.12072892855760271
31.708852,2.829888222551172,0.12089571955476008
31.71124,2.819088218744039,0.120943219379924
31.713624,2.8115010204968214,0.12086359566312063
31.716024,2.806195462249741,0.12068039512880331
31.718412,2.797956637696465,0.12058601419951825
31.720792,2.7875759427699123,0.12057298292182125
31.723191999999997,2.7702577800443313,0.12078019646620018
31.72558,2.751589142878391,0.12106681771307375
31.727964,2.739066577578562,0.12113362678301672
31.730364,2.723750515599397,0.12126454400906261
31.732751999999994,2.7153719214192615,0.1211820317509474
31.735136,2.7097868239184613,0.12103032424903343
31.737532,2.7104875679106315,0.12064962028693829
31.739924,2.7150527437687755,0.12015887462259159
31.742304,2.7214802507464757,0.11962324908078417
31.744703999999995,2.734705455896345,0.11889598685773392
31.747092,2.748861826605992,0.11814474510426641
31.749476,2.7643214499277553,0.11741484797088976
31.751876,2.7815036347422146,0.11666601044537843
31.754264,2.7949139354893178,0.11610889615340668
31.756644,2.8075328403035025,0.1155490084822782
31.759044,2.8192205795579093,0.11502034545141557
31.761432,2.830768549185456,0.11451767650474731
31.763815999999995,2.8388241739993667,0.1141720649275711
31.766224,2.8512560873584483,0.1137502368282558
31.768608,2.8627568351577524,0.11334820057185345
31.770988,2.881195050756085,0.11273513931023287
31.773404,2.8996332663544173,0.11211205935799601
31.775796,2.9108544749000003,0.11174135019345696
31.778176,2.9196542738185856,0.11148070050970398
31.780588,2.9243101016174773,0.11136812041817783
31.782975999999994,2.9300368646030073,0.11121918504813401
31.785356,2.9325508220286216,0.11118984282043977
31.787751999999998,2.9341336138944576,0.11118264068173898
31.790136,2.9366475713200724,0.11115560786183382
31.79252,2.9332949961332972,0.11128363803928708
31.794932,2.9307338168794392,0.11140780989840052
31.79732,2.925379140946246,0.11159527778141617
31.7997,2.9173707379605793,0.11182496564234938
31.802115999999995,2.913785845348326,0.11188887104163221
31.8045,2.912714910161687,0.11192635241293002
31.80688,2.9111321182958507,0.11193243927497064
31.809283999999995,2.907407456056738,0.11201263086592335
31.811672,2.902751628257846,0.11211613433087159
31.814052,2.8965130085931188,0.11222493906123134
31.816451999999995,2.892136720047948,0.11229284715625175
31.818835999999997,2.883756230009943,0.11247339395259605
31.821232,2.876586444785436,0.11260078247404579
31.823636,2.8738401699343443,0.11256222466065409
31.82602,2.8733755350833894,0.11242989362599573
31.8284,2.875192540232572,0.1122035601915827
31.830804,2.8737967398218394,0.11209239349433676
31.833188,2.872261169784246,0.11199821283895314
31.835568,2.870585830119793,0.11192169846880919
31.837968,2.8629041882160897,0.11202372408542265
31.840356,2.855222546312387,0.11212942667026565
31.842731999999994,2.847820443662403,0.11219703138350212
31.84514,2.844422542505253,0.11214488377092599
31.847524,2.8418160372810215,0.11208887264793653
31.849904,2.8370676616835127,0.1121099903133503
31.852308,2.833529990899503,0.11207436494916559
31.854696,2.829573011234912,0.11209017861694359
31.857072,2.8256160315703216,0.1121071723830298
31.859468,2.82314929597295,0.1120330376329926
31.861851999999995,2.820682560375579,0.11195866672493829
31.864235999999995,2.816633032912371,0.11189086113148475
31.866632,2.81458560619558,0.1117632588387916
31.869016,2.8134693450385684,0.11161509561986946
31.871396,2.809652135000838,0.11161348531164242
31.8738,2.809699356829081,0.111512357924544
31.876184,2.8105379745902423,0.1114098101392032
31.878568,2.810585196418485,0.11130878726590851
31.880968,2.8127742886200053,0.11113293758654759
31.883356,2.8123096537690504,0.11099974322525276
31.885736,2.8159889900377904,0.11072881600207707
31.88814,2.8232532189187824,0.11039162852370382
31.890528,2.826233707053221,0.1102069864179504
31.892907999999995,2.831216295934076,0.10996821143143387
31.895304,2.8383407551882085,0.10965787062646587
31.897692,2.8456049840692006,0.10933080869806804
31.900072,2.8497961770171374,0.10909923693105854
31.902467999999995,2.852916434778436,0.10890355165843765
31.904856,2.8603204332862884,0.10856304143362652
31.907235999999997,2.8703781588466164,0.10818492978154665
31.909632,2.8781542444068067,0.10789313721444008
31.912019999999995,2.8864421866461942,0.10763248225916917
31.914403999999998,2.8917968625793873,0.10744756564270372
31.9168,2.8943580418332444,0.1073216600914782
31.919184,2.8977578388482637,0.10708994967238268
31.921579999999995,2.896873895116729,0.10700825474317531
31.92398,2.895058785825415,0.10694633525838153
31.926364,2.897387647653795,0.10675712528966774
31.928747999999995,2.8987853439223974,0.10658788694544895
31.931144,2.904047472056973,0.10632794826218954
31.933532,2.910380535378187,0.10603538834495363
31.935912,2.9144791805275068,0.10573259306363182
31.938308,2.924863667169798,0.10523863916671496
31.940696,2.9311041826923954,0.10487053461506646
31.943075999999994,2.933200727095298,0.10462302188066838
31.94548,2.935948897804259,0.10439179113424042
31.947864,2.944843140379331,0.10399789029525106
31.950243999999994,2.9577415844472363,0.10350780177818149
31.952648,2.9692895540747832,0.10309483010195906
31.955032,2.9819084588889675,0.10266223851928316
31.957416,3.0018841403827627,0.1020383241398289
31.959812,3.0230705266900557,0.10137136501183895
31.9622,3.0469106400498247,0.10066901834990358
31.964579999999994,3.075127041954764,0.09992325449056903
31.966976,3.105438092404737,0.09921316522211097
31.969363999999995,3.1368200780413487,0.09846298020547348
31.97176,3.1660601933046832,0.09777499772848093
31.974156,3.1938100645007994,0.09717679165038241
31.97654,3.220349230883416,0.09662124662021368
31.97892,3.2435358220792563,0.09617450309824108
31.981324,3.2664428740213776,0.09576512354710504
31.983712,3.289582243388976,0.09541528730238585
31.986092,3.3073669368233807,0.09521633931919272
31.988495999999994,3.3270139613773417,0.09498634510088377
31.99088,3.3523877489168337,0.09465621445185537
31.99326,3.3769701405234076,0.09432652293828672
31.99566,3.3916817980247576,0.0942024476369817
31.998044,3.402389254033274,0.09416621798188403
32.000428,3.409372047802676,0.09418632645198527
32.002824000000004,3.40913783451933,0.09437896284058504
32.005208,3.402617779743012,0.09472421031088829
32.007592,3.3959579553398345,0.09508095445331106
32.00998799999999,3.389857209444098,0.0953771012154857
32.012372,3.380311340562968,0.09569548064987528
32.01475599999999,3.371324550189279,0.09595274033089132
32.017152,3.366761270189005,0.09608543969494121
32.019536,3.3628496164947874,0.09623472846917569
32.02191599999999,3.357867027613933,0.09641078639336986
32.024316,3.3587509713454686,0.09648186046194906
32.02669999999999,3.3617767854502807,0.09650031143918242
32.02907999999999,3.3628004988086753,0.09655761383945181
32.03148,3.3630328162341527,0.09661395410108155
32.033863999999994,3.3663381695926855,0.09660380109697206
32.036244,3.3659188607121044,0.09664581283507405
32.038647999999995,3.3620544288461307,0.0967109041590054
32.04103599999999,3.3581899969801574,0.09677599548293675
32.04341599999999,3.3637769903388275,0.09669880734728684
32.045812,3.3724370196305533,0.09655603579801633
32.048199999999994,3.3840303152284736,0.09636056441232525
32.050584,3.4029803875060036,0.0959898940611055
32.05297999999999,3.4248637260897286,0.09556703604386016
32.055364,3.447678230233232,0.09513718439925838
32.057744,3.4719357566157116,0.09473417316796336
32.060143999999994,3.4959137437444703,0.09435459495314893
32.06253199999999,3.5188207956865902,0.09400955508259402
32.06491199999999,3.5365129413223784,0.09378610327166764
32.067312,3.5578372013986628,0.09345197374525033
32.0697,3.5798603096092485,0.09305276487587605
32.07208,3.5961566548343042,0.09274263221738126
32.074496,3.6136637048728586,0.09240091432307544
32.07688,3.6371770571506628,0.09196197350089176
32.07927599999999,3.6677676468543563,0.09140904148853649
32.081676,3.6994291717446885,0.09084100487617351
32.084064,3.7411012003671047,0.09012072654679491
32.086444,3.7815625241760227,0.08943603507638434
32.08883999999999,3.825236653544856,0.08869686172452868
32.091228,3.86346355918188,0.08801823523842456
32.093608,3.8987571985127074,0.08738492944949008
32.096012,3.9359131689630926,0.08674473238121273
32.098395999999994,3.9717186649731184,0.08616473678598552
32.10078,4.007012304303947,0.0855690065448581
32.10317599999999,4.038441511768801,0.0850193180372549
32.105564,4.06786861848724,0.08450529462479336
32.107944,4.103162257818068,0.08392411238845222
32.110348,4.137384961962257,0.08336608460463209
32.112736,4.1754720979724205,0.08276794164600923
32.115116,4.208484097303112,0.08225104386726814
32.11751199999999,4.242939118872779,0.08175810408049779
32.1199,4.276974831561866,0.0812919278385484
32.12228399999999,4.3099396090643145,0.08085329833997898
32.12468,4.33810878914101,0.08047552559722534
32.127067999999994,4.359200731791817,0.08020167223312813
32.129448,4.378570112949928,0.07993557876666252
32.131851999999995,4.388860155935733,0.07979178039140236
32.13423999999999,4.402083465227732,0.07961729146754333
32.13661999999999,4.412093968959817,0.07949728442512939
32.13902399999999,4.425177508624957,0.07933801319533072
32.141412,4.439471753103596,0.07915154516655969
32.14379199999999,4.451112270529758,0.07897744514623842
32.146196,4.460890456836365,0.07881737212376927
32.148584,4.468247233515974,0.0787114204989194
32.150964,4.479747981315278,0.07854953797557045
32.153368,4.490876642062244,0.07835454992241346
32.15575199999999,4.494276439077264,0.07823106048918073
32.158131999999995,4.497816005719142,0.07809760405802377
32.160532,4.496420205308409,0.07801565618860606
32.162916,4.497026505644093,0.07791082116374941
32.1653,4.49455977004672,0.07784507450438967
32.167704,4.497867019263124,0.07766881719117304
32.17008799999999,4.496890527732972,0.07755668196349358
32.172467999999995,4.4967054321357365,0.07744862895141401
32.174868000000004,4.49866220691178,0.07730813078710108
32.177252,4.500199672807243,0.07719780889166608
32.179632,4.503879009075982,0.07705439782298364
32.182036,4.5023434390383885,0.07698226308481301
32.18442399999999,4.501739034560574,0.07690399733887418
