Time,Force,Position
32.161468,0.290846141173686,0.0
32.163852,0.279532384829486,0.0
32.166248,0.2729216781124207,0.0
32.168636,0.26724213695513377,0.0
32.171016,0.2624937613576251,0.0
32.173412,0.263751687999367,0.0
32.175799999999995,0.2702245209474413,0.0
32.178184,0.27963062020171076,0.0
32.18058,0.2859636835229249,0.0
32.182967999999995,0.29364722128449805,0.0
32.185348,0.29890934941907366,0.0
32.187743999999995,0.30426402535226627,0.0
32.190132,0.31096917572581784,0.0
32.192512,0.318745261286008,0.0
32.194908,0.33038577871217156,0.0
32.197296,0.34416816651161225,0.0
32.199676,0.3608838206172481,0.0
32.202076,0.37773924434974415,0.0
32.204464,0.3897990706564884,0.0
32.206844,0.4046523936425676,0.0
32.209244,0.4205766518152854,0.0
32.211632,0.43864278036128024,0.0
32.214012,0.45321656409363903,0.0
32.216412,0.4677903478259978,0.0
32.2188,0.47929109562530126,0.0
32.22118,0.4846457715584939,0.0
32.223576,0.48892951230504805,0.0
32.225964,0.4909316130514649,0.0
32.228348,0.4949358145442986,0.0
32.230744,0.4975895415967734,0.0
32.233132,0.49731000234305295,0.0
32.235527999999995,0.49744977196991313,0.0
32.237924,0.4951681319697758,0.0
32.240312,0.48888229047680487,0.0
32.242692,0.4827362186106941,0.0
32.245092,0.4736568804383881,0.0
32.24748,0.4607131104001087,0.0
32.24986,0.4477693403618293,0.0
32.252256,0.4337546351369113,0.0
32.254644,0.418808764352215,0.0
32.257024,0.40386289356751875,0.0
32.25942,0.39077935390237917,0.0
32.261807999999995,0.3818397853569334,0.0
32.264192,0.37168951199798894,0.0
32.266588,0.36354133938546135,0.0
32.268975999999995,0.36074784270612636,0.0
32.271356,0.35180827416068067,0.0
32.273752,0.3442191800555939,0.0
32.27614,0.3356989203907288,0.0
32.278524,0.3285291351662227,0.0
32.28092,0.3257828603151309,0.0
32.283308,0.32196565027740043,0.0
32.285688,0.3213612457995857,0.0
32.288096,0.32476104281460466,0.0
32.290484,0.32895223576254173,0.0
32.292864,0.331141327964062,0.0
32.295264,0.3362636864717773,0.0
32.297652,0.3403151097928541,0.0
32.300036,0.3480911953530442,0.0
32.302432,0.35600705054009457,0.0
32.30482,0.36178103535386796,0.0
32.307204,0.36168848755525085,0.0
32.3096,0.3575917382638001,0.0
32.311992,0.35470569378584804,0.0
32.314372,0.3539615196811731,0.0
32.316768,0.34972500076286217,0.0
32.319156,0.34949268333738487,0.0
32.32154,0.3501915314716859,0.0
32.323936,0.3539634155390423,0.0
32.326324,0.35345155885984464,0.0
32.328708,0.3505182925536495,0.0
32.331104,0.3487957310609531,0.0
32.333492,0.34535060807556023,0.0
32.335876,0.3426968810230856,0.0
32.338272,0.33724965729127593,0.0
32.340664,0.3376689661718566,0.0
32.343048,0.33780873579871673,0.0
32.345444,0.340742002104912,0.0
32.347832,0.3439548076648276,0.0
32.350216,0.35010087953093827,0.0
32.352612,0.35745765621054776,0.0
32.355,0.36881863438299095,0.0
32.357384,0.3832526484884895,0.0
32.35978,0.3956845618475711,0.0
32.362168,0.4049036696467373,0.0
32.364552,0.41347115113984556,0.0
32.366948,0.4229697981927321,0.0
32.369336,0.4304663444992018,0.0
32.37172,0.43488985487261617,0.0
32.374116,0.4433175667388642,0.0
32.376508,0.44788084673913875,0.0
32.378888,0.4532355226723314,0.0
32.38128,0.4580311200980832,0.0
32.383668,0.4594741423370592,0.0
32.386052,0.4631515827479293,0.0
32.388448,0.46599040539763814,0.0
32.390832,0.468130379913046,0.0
32.393212,0.46621893110737705,0.0
32.395616,0.4677053834588577,0.0
32.398004,0.46630389547451706,0.0
32.400383999999995,0.4665305253263866,0.0
32.40278,0.46917666894738447,0.0
32.405168,0.47675628376312496,0.0
32.407548,0.49085216163944456,0.009682873086573727
32.409952,0.512115928882401,0.01942068361699096
32.41234,0.5469259747835823,0.028500645944641162
32.41472,0.5869943571036008,0.037855835997709045
32.417116,0.6388392347609048,0.046997952844285665
32.419504,0.698968262941858,0.056379031059743366
32.421888,0.766310506459822,0.06592048096930163
32.424284,0.8525990305395774,0.0750925867236794
32.426672,0.9495458929417366,0.08424024124466277
32.429052,1.0607359862785526,0.09329319162924485
32.431456,1.1871004761098036,0.1023102680141385
32.43384,1.3257986439279115,0.11142872416784504
32.43622,1.4769230375314932,0.12064479160553865
32.43862,1.6484348380779734,0.12977292225958076
32.441008,1.8457812692991615,0.13877048779606627
32.443388,2.060302301903332,0.14772621067068953
32.445784,2.2974451596222956,0.15665711198685156
32.448172,2.5593517128293284,0.16548294085513907
32.450568,2.8449510263377915,0.17422128744509646
32.45296,3.1510775164160134,0.182886033426829
32.455348,3.4802923623178517,0.1817579951423698
32.457728,3.8257053180725205,0.1805741892068453
32.460132,4.18200892957507,0.18003350128951684
32.46252,4.558981383132107,0.17912649812545486
32.4649,4.950244289452044,0.17836954977110003
32.467296,5.360640467788876,0.17728841327070077
32.469684,5.7916601622098245,0.1759331810150545
32.472064,6.229428437116829,0.17493442105200682
32.474468,6.678368802883305,0.17393373439193768
32.476856,7.131311474284744,0.173053843045818
32.479236,7.59468206244098,0.17216240585057868
32.481632,8.070018033247475,0.17110786408829404
32.48402,8.550336592934823,0.16993360058284346
32.486404,9.027304473293265,0.16883721443922473
32.4888,9.497384003538794,0.16785298167191975
32.491188,9.96029564441768,0.16692000331897272
32.493572,10.416366157011897,0.16599778159041986
32.495968,10.863081583895825,0.165152391570856
32.498356,11.296345175778015,0.16438764508094345
32.500736,11.716808558964525,0.1636899068809945
32.50314,12.120607301589377,0.16310545827053285
32.505528,12.519986325556555,0.1624786544184838
32.507912,12.913455386798837,0.1618385726834505
32.510308,13.295147952703836,0.1612682575316258
32.512696,13.665995188831326,0.1607431230276524
32.51508,14.02557778630073,0.1602800338816709
32.517475999999995,14.36733036436535,0.1599446085740389
32.519864,14.701682735637858,0.1596054792098785
32.522244,15.026632799371836,0.15928234152619042
32.524643999999995,15.352191059299363,0.1588830322095325
32.527032,15.665553515009025,0.15852373811513637
32.529416,15.966440627247103,0.15821297540067497
32.531811999999995,16.261510324558902,0.15789445181850303
32.534196,16.553695873250618,0.15754539561503725
32.53658,16.84057586369525,0.15719038798728982
32.538984,17.124059848840606,0.15679584982295872
32.541372,17.4061499294331,0.15635753373645314
32.543752,17.67911724174078,0.1559243730322246
32.546147999999995,17.946686448002758,0.15546989774900147
32.548536,18.207786613032415,0.1550016479003337
32.55092,18.462417736829728,0.15451646008649728
32.553315999999995,18.704573517155453,0.15406370550026666
32.555704,18.935604428449953,0.15362567163828522
32.558084,19.15681372332534,0.15320107499684674
32.56048,19.364709056967975,0.15281499990919506
32.562868,19.562363465310916,0.15244944299330487
32.565252,19.756202559474005,0.15205317990829062
32.567648,19.9380781668447,0.15168167151730366
32.570036,20.113205193729346,0.15130066368130124
32.572416,20.27357523714226,0.15096320503607752
32.574816,20.42798809600204,0.150612860713669
32.577204,20.577374935868463,0.15024628917418129
32.579584,20.717452015994972,0.14989328517851774
32.581984,20.843516286754426,0.14958920023922392
32.584372,20.961713820012946,0.14929500126697187
32.586752,21.072416702822867,0.14901653861221917
32.589148,21.16398441775802,0.14882786624793048
32.59154,21.246008159669913,0.14867659788425133
32.59392,21.319139554864602,0.14856355522643516
32.59632,21.3895246752082,0.14845206774126252
32.598707999999995,21.456744211820126,0.1483489265023333
32.601092,21.521217473580965,0.14824635914511722
32.603488,21.580662820490573,0.1481603414257356
32.605875999999995,21.637641431802805,0.14806959018532947
32.608256,21.69657681789108,0.14794312540991628
32.610652,21.748669179836817,0.14782768052827933
32.613043999999995,21.79512922245351,0.14771491079123394
32.615424,21.842614874286465,0.14757162215287914
32.617824,21.883769358656075,0.14744328888477845
32.620211999999995,21.918313136308623,0.14733391202825996
32.622596,21.94424410649769,0.1472548337118107
32.624992,21.958349463663353,0.14722611758577758
32.627379999999995,21.969568776351064,0.1471995474354242
32.629764,21.980183684560966,0.1471588864615252
32.632164,21.985770677919632,0.14713361070001682
32.634547999999995,21.98740069161371,0.14711694241435558
32.636928,21.994153063815506,0.14705836711315295
32.639332,22.00430523303232,0.14696391314801063
32.641715999999995,22.01278206258468,0.14686192054745828
32.644096,22.009852587994224,0.14680223717875754
32.646491999999995,22.00245427705998,0.14674786472152115
32.648876,21.99137852571486,0.14669703489791266
32.65126,21.977975808399233,0.14663799561004048
32.653656,21.957962384366546,0.14659759054505628
32.656044,21.933060815109485,0.14656977319127618
32.65844,21.91099996436001,0.1465159088742597
32.660836,21.884423055438493,0.14648042087825713
32.663224,21.853330088344944,0.14646308568026925
32.665604,21.81814037195995,0.1464566982968227
32.668,21.78406881258983,0.14643030129299808
32.670388,21.7499047054211,0.1463931065199522
32.672772,21.721654352693,0.14631201146653142
32.675168,21.6850235099269,0.1462690089388152
32.677552,21.64508731380227,0.14623528419608517
32.679936,21.603708095438655,0.1462024464650218
32.682331999999995,21.558743984462794,0.14618412711696085
32.68472,21.508472419381974,0.1461863466059839
32.6871,21.45233432168877,0.14621901569710663
32.689496,21.39554459768951,0.14625105609604697
32.691884,21.347554672608833,0.14623683414601282
32.694268,21.29849381234152,0.14622961814444171
32.696664,21.245428750581375,0.14624505913552158
32.699052,21.191013214380863,0.14627267826160192
32.701448,21.136178369299774,0.1463087102096276
32.703844,21.080132819405186,0.14635453438179896
32.706232,21.021945399137323,0.1464137078461236
32.708611999999995,20.96268704368282,0.14648053052520105
32.711008,20.900635191548982,0.14656087002040372
32.713396,20.842028462400535,0.1466289604915176
32.715776,20.783793820304428,0.14670296941416475
32.71818,20.728724761939993,0.14676965867246305
32.720568,20.67081498506798,0.14686303847608315
32.722947999999995,20.617281496741143,0.146940817441891
32.725344,20.567565218452028,0.147012368224139
32.727732,20.522876855014147,0.14706754432357966
32.730112,20.482285240867714,0.14711127133164514
32.732512,20.449515038251853,0.14712537068717507
32.7349,20.418559944927296,0.1471450678546149
32.73728,20.393703701640614,0.147141151788128
32.739676,20.362654164659574,0.1471889754349697
32.742064,20.335841146596845,0.14722242882912598
32.744444,20.3147076696914,0.1472407079992353
32.746844,20.30153537394338,0.14722640231435563
32.749232,20.297395194539426,0.1471725506507292
32.751612,20.301076426666032,0.14708911989613455
32.754008,20.3047104369644,0.14701977379645886
32.756395999999995,20.317888420286025,0.14691463955142994
32.75878,20.33646640551122,0.14679930892904017
32.76118,20.355788564841088,0.14669636640518613
32.763563999999995,20.37864839495496,0.14659246636543882
32.765948,20.404673808800506,0.14648183757386504
32.768344,20.43372503675087,0.14636663330432947
32.770728,20.470597676231797,0.14622236364032146
32.773128,20.50877356832484,0.14607999967982488
32.775524,20.544248511537166,0.14596260472855876
32.777912,20.58423951292152,0.14582646506546368
32.780292,20.62166933505202,0.1457128541256835
32.782692,20.66389475460827,0.14557454882724935
32.785076,20.706212721963137,0.14544869852682427
32.787456,20.759472358609866,0.145261891700057
32.789852,20.816968514174903,0.14506248404468494
32.792244,20.879120497538835,0.1448425578806279
32.794624,20.93791990571599,0.14464733223127796
32.79702,20.995368839452787,0.14446590400615925
32.799408,21.05067590281631,0.14429951092053536
32.801788,21.112640894725136,0.14410164061253095
32.804184,21.16939098032763,0.14393600968410672
32.806572,21.23214736816938,0.14373927283893692
32.808968,21.30011866231746,0.14351268359022037
32.811364,21.371442531652313,0.14326526117656022
32.813752,21.440624530613892,0.14303218732998743
32.816132,21.513810731068304,0.1427791803113403
32.818536,21.585274370030014,0.14253396697761783
32.820924,21.660742210484564,0.14226911591814673
32.823304,21.738351921312393,0.1419910780294188
32.8257,21.812469287326582,0.14173884706264556
32.828088,21.892592955580024,0.14145681890005474
32.830468,21.9755101205128,0.14116503223042273
32.832864,22.0545628535796,0.1408919121139174
32.835256,22.130542550713347,0.14063831458017326
32.837636,22.20293735523484,0.14039955500311826
32.840032,22.27188703677094,0.14017311544011063
32.84242,22.339905552747258,0.1399506681687372
32.8448,22.40527034167111,0.13973820583586288
32.8472,22.470774900221812,0.13952429000861377
32.849588,22.530552695786987,0.1393367646173522
32.851968,22.595173310606164,0.13911569608832228
32.854364,22.655277867253307,0.1389134582053357
32.856752,22.710447056847833,0.13873593184468044
32.859131999999995,22.76096041864347,0.13857826609480647
32.861536,22.813895190066106,0.1384044676525814
32.863924,22.86231390331671,0.1382478809772091
32.866308,22.908078889514837,0.13810067277421212
32.868704,22.950258983100714,0.13796680915386048
32.871092,22.995651882246506,0.13781581322940611
32.873472,23.04230270803404,0.13764436737718908
32.875872,23.083646079716623,0.13749121658600572
32.87826,23.119821766921117,0.13735350356375975
32.88064,23.162702604499167,0.1371765978274336
32.883036,23.20213831909182,0.13700990341700736
32.885424,23.241062177005272,0.13684031524407209
32.887808,23.281196739732223,0.1366633480681438
32.890212,23.323101085780117,0.1364695453795834
32.8926,23.36528497108173,0.13627146163049136
32.89498,23.40616560377123,0.13607197053279674
32.897376,23.449467646087726,0.13585665393622567
32.899764,23.487974090978472,0.13566205782634494
32.902144,23.522616104003237,0.13548395744692554
32.90454,23.55995906590873,0.13528594531953392
32.906928,23.596650401508157,0.13508710686530712
32.909312,23.63096754930883,0.13489273507589689
32.911708,23.663701905243673,0.13470082891417698
32.914096,23.698857670805516,0.13449375882175127
32.91648,23.73471228450165,0.13427624903799448
32.918876,23.768332480025894,0.13406120234073915
32.921264,23.799019409243943,0.13385894046720087
32.923644,23.82584190659602,0.1336722779520983
32.926044,23.852664403948097,0.13348576002068313
32.928432,23.873760138314644,0.13332245058190464
32.930812,23.89834821749482,0.13313856556003492
32.933212,23.924007231861644,0.13294963901993342
32.9356,23.943148087310014,0.13278395069183516
32.93798,23.961637316452325,0.13261764479860086
32.94038,23.98054585447522,0.132445050692219
32.942768,23.998523226938335,0.13227599381553895
32.945148,24.014917807535614,0.13210942282020516
32.947544,24.033594028133034,0.13193011443445088
32.949932,24.05404003205139,0.13173448277778407
32.952316,24.072903244103916,0.13154166082597413
32.954712,24.094048096156566,0.13133625722070846
32.9571,24.11333061708967,0.13113752544519602
32.959496,24.134894778022915,0.13092605910428115
32.961892,24.15194288078412,0.13072877996802199
32.964279999999995,24.165266321306216,0.13054449739776963
32.96666,24.170860898096358,0.1303898528335416
32.969056,24.177526410073142,0.13022988955341003
32.971444,24.190897072423482,0.13003371796227883
32.973828,24.206968683654537,0.12981867244031928
32.976223999999995,24.220666107086835,0.1296065185478882
32.978615999999995,24.226774436414047,0.12942176311278128
32.980996,24.22864624682295,0.12924627676653005
32.983396,24.236012502791908,0.12904204089481552
32.98578,24.240725031708386,0.12884513797610464
32.988164,24.241852668012616,0.12865853916674905
32.990559999999995,24.239954490212035,0.12847344512017111
32.992948,24.235402585358973,0.12829541711691972
32.995332,24.225403456774103,0.12813384065029665
32.997727999999995,24.212750601136758,0.12797927553575633
33.000116,24.195581687327383,0.1278378850455693
33.002496,24.173245089039916,0.12770839956022795
33.004895999999995,24.149325698886624,0.12758055871091328
33.00728,24.124103056121207,0.12745003712079428
33.009664,24.09915995260951,0.12731494123521409
33.012063999999995,24.07142335241848,0.12718879691184026
33.014456,24.0521144640937,0.1270225984368479
33.016836,24.034435589462994,0.1268424722684818
33.019236,24.0114020388991,0.12668833415685415
33.021624,23.984084747588646,0.12655480460065835
33.024004,23.95862978739775,0.12641494456365035
33.026399999999995,23.937039259072836,0.12626049812233547
33.028792,23.91745083149433,0.1260975670964308
33.031172,23.894789367982767,0.12594785023604504
33.033567999999995,23.873059070030994,0.12579489203952945
33.03596,23.855332973572043,0.1256254102943789
33.03834,23.84077246084477,0.12545229840498887
33.040735999999995,23.830216149610337,0.12526276108293027
33.043128,23.82124263024173,0.12507119651217874
33.045508,23.8125014282986,0.12488715138994427
33.047904,23.805854874900508,0.12470463965261018
33.050292,23.80423623635365,0.12451273306451992
33.052676,23.804991785605534,0.12431820534643866
33.055072,23.803837781909625,0.12414172505796264
33.05746,23.804918196385607,0.12396497585515405
33.05984,23.813447935339816,0.12376437923673457
33.06224,23.81899718615959,0.12358737938375462
33.064628,23.82342827996448,0.12342791179829166
33.067008,23.829861474515788,0.12326039300060593
33.069404,23.84109026649285,0.12307628649705034
33.071791999999995,23.856695347015076,0.12288236429154817
33.074176,23.874395076082344,0.1226907079607624
33.076572,23.89833342481434,0.12248394683647149
33.078959999999995,23.926228753210925,0.12227381757955773
33.081344,23.958500370152677,0.1220543662900076
33.08374,23.99328594452005,0.12183175309342338
33.086127999999995,24.032308037805727,0.121602227390286
33.088512,24.07463548444994,0.12136914565843107
33.090908,24.1222703851991,0.12112412087468342
33.0933,24.175492279306933,0.12086293636908489
33.09568,24.234440936400304,0.12058400013627021
33.098076,24.292039119053303,0.12031494054694768
33.100468,24.356295230251614,0.12002626959272038
33.102848,24.425998565181732,0.11972387419455402
33.105244,24.498215857537467,0.1194187408794914
33.107631999999995,24.569734301758903,0.1191255012999823
33.110012,24.64483763859259,0.11882455387942976
33.112412,24.72208284579956,0.11851523368587555
33.114799999999995,24.804216198230893,0.11820180684360633
33.117184,24.886861407341428,0.11789390299671523
33.11958,24.96922707719824,0.11759219665050921
33.121967999999995,25.05173251668191,0.11728950656877477
33.124352,25.12781234504575,0.11701604853977632
33.126756,25.206034043782868,0.11673515364100326
33.129144,25.280763397706348,0.11647315115864945
33.131528,25.353862737935746,0.11622528388456362
33.133924,25.426589991112813,0.11597386821081154
33.136316,25.4942421076104,0.11574212815173555
33.138696,25.562965159294635,0.11550760939776188
33.141096,25.632898915792364,0.11526844877146988
33.143484,25.70083057154368,0.11503770620753638
33.145864,25.77183526322805,0.11479674568807166
33.148268,25.83976691897936,0.11456899723237104
33.150656,25.90639532211856,0.11433952434561467
33.15304,25.976516070071394,0.11409530329823124
33.155436,26.048127062091446,0.11384234874805643
33.157824,26.121088528551855,0.11358303155020218
33.160204,26.1939102253854,0.113326901279083
33.162604,26.259701906621306,0.11308437467509404
33.164992,26.319766824871678,0.11285805574992165
33.167372,26.379180116815995,0.11263149238383013
33.169772,26.441666444693368,0.11239557530543111
33.172156,26.507645117384374,0.11214400569078918
33.17454,26.57003889746313,0.1119008513687982
33.176936,26.63327129530305,0.11164693230554816
33.179324,26.692267174224657,0.11139890692814636
33.181704,26.747258851653427,0.11116452121680165
33.184108,26.8034612338957,0.11092450330279133
33.186496,26.85314545721952,0.11070068695914191
33.188876,26.90203828461043,0.11047869160965916
33.191275999999995,26.950698794575857,0.11025060659771214
33.193664,26.99577441192903,0.11003013262428703
33.196044,27.036893049617614,0.10981193505810553
33.198443999999995,27.076800982492696,0.10960020202571974
33.200832,27.105255389396717,0.10941833406894333
33.203212,27.13133560850199,0.10923806806366225
33.205611999999995,27.151316977569394,0.1090675993846616
