Time,Force,Position
32.155668,0.5704822035890489,0.0
32.158064,0.5648952102303789,0.0
32.160456,0.5547449368714344,0.0
32.162836,0.5444548938856297,0.0
32.165236,0.5330939157131865,0.0
32.167628,0.5221522464213239,0.0
32.170012,0.5090687067561843,0.0
32.172408,0.4953335407849868,0.0
32.174796,0.48816375556048064,0.0
32.17718,0.4859293373885865,0.0
32.179579999999994,0.48727981182894553,0.0
32.181968,0.4889098255230248,0.0
32.184352,0.4858840114182126,0.0
32.186752,0.48378936287317864,0.0
32.189139999999995,0.48262587988792305,0.0
32.19152,0.4788086698501927,0.0
32.19392,0.4782042653723779,0.0
32.196307999999995,0.4797417312678402,0.0
32.198691999999994,0.47727499567046877,0.0
32.201088,0.4740168641401793,0.0
32.203475999999995,0.4755543300356417,0.0
32.205859999999994,0.48216693261057614,0.0
32.20826,0.4889193048123709,0.0
32.210648,0.4968823818276644,0.0
32.213032,0.5017724229099025,0.0
32.215432,0.507593629551919,0.0
32.21782,0.5134148361939355,0.0
32.220208,0.5168146332089544,0.0
32.2226,0.5137888191041422,0.0
32.224988,0.5090404435066335,0.0
32.227368,0.5014985712297899,0.0
32.229772,0.48953318857953193,0.0
32.232156,0.48329456891480416,0.0
32.234544,0.4739829133170209,0.0
32.236948,0.4636003225325992,0.0
32.239332,0.4518672573078185,0.0
32.241712,0.44413839357587154,0.0
32.244108,0.43482673797808835,0.0
32.246496,0.42886765756708095,0.0
32.24888,0.421837641969435,0.0
32.251284,0.410523885625235,0.0
32.253676,0.3993498989078951,0.0
32.25606,0.39231988331024914,0.0
32.258455999999995,0.38822313401879843,0.0
32.260844,0.3913433917800969,0.0
32.263228,0.39525504547431356,0.0
32.265636,0.3950227280488363,0.0
32.268024,0.39693228099663613,0.0
32.270408,0.4017751002506311,0.0
32.272808,0.4072695458106839,0.0
32.275192,0.4116930561840983,0.0
32.277576,0.42105193361012455,0.0
32.279979999999995,0.43190105510337007,0.0
32.282363999999994,0.445823212529671,0.0
32.284748,0.4588142043961936,0.0
32.287152,0.4779512681288269,0.0
32.289536,0.48987132480871093,0.0
32.29192,0.5044451085410697,0.0
32.294324,0.5195307489526263,0.0
32.296712,0.5336852238044044,0.0
32.299096,0.5489106338428211,0.0
32.301496,0.5615748646273802,0.0
32.303884,0.5716779161580815,0.0
32.30628,0.5800111843678432,0.0
32.308684,0.5812199933234727,0.0
32.311068,0.582241810823999,0.0
32.313475999999994,0.5942978454150046,0.0
32.315872,0.611753881909577,0.005200256231958876
32.318256,0.6338185243747977,0.010482770381870631
32.32066,0.6568596583701707,0.016200126107004276
32.323055999999994,0.6863245076275056,0.022219754603208717
32.32544,0.7177895617733883,0.02867731061763991
32.327844,0.7493452678600186,0.0356498076089452
32.330256,0.7829937266338137,0.04309407363027939
32.33264,0.826184262573,0.05064322706784927
32.335044,0.8774266316103584,0.058167137575761474
32.337436,0.9436583015449178,0.06565088623332856
32.339824,1.0171031868164877,0.07334983159961216
32.342223999999995,1.1016257192910421,0.0810563857824001
32.344615999999995,1.199600086767335,0.08883305897652995
32.347007999999995,1.30916395812581,0.09672295767319078
32.349412,1.4344613044861612,0.10459134095531544
32.3518,1.5752125865946676,0.11244495110048768
32.354192,1.728903847025715,0.12029836001571867
32.356587999999995,1.8998188265258573,0.12815159636930587
32.358976,2.08516402841576,0.1359810713881657
32.361372,2.276651510456035,0.14385862660942728
32.363768,2.4759112863407613,0.1465671424440939
32.366156,2.6894615149883876,0.14910240983801246
32.368551999999994,2.919723606025911,0.15113409935862532
32.370948,3.166465242027855,0.15274263190395732
32.373335999999995,3.4245187385161295,0.1539078480643944
32.375712,3.6970969010506503,0.154509409287082
32.378116,3.985689973698637,0.15455274166383803
32.380503999999995,4.282569092728142,0.1544741849403259
32.382884,4.581216099220717,0.15446895619486786
32.385288,4.882562158736142,0.15453158656866836
32.387676,5.1905189249686305,0.15437969227993345
32.390055999999994,5.498940326052076,0.15426921688671894
32.392452,5.813972433852587,0.1540626849020202
32.394836,6.1350561698627235,0.15375931057839903
32.39722,6.463494786694597,0.15345982106575518
32.399615999999995,6.7979378099078565,0.15318630769712016
32.402,7.138757326554831,0.15293908435757714
32.404384,7.490469394807558,0.15267702852199816
32.406788,7.854656806531869,0.15240961661704894
32.409175999999995,8.233042123220464,0.15208132066935554
32.411556,8.624414640059845,0.15172203393600137
32.413951999999995,9.020813175892586,0.1514632366439951
32.41634,9.425078449226264,0.1512436099615743
32.41872,9.833485797821766,0.1511192516041105
32.421116,10.252181293545204,0.15096515165762495
32.423503999999994,10.675345625612433,0.15083363893356364
32.425884,11.098882044731997,0.15076080990988536
32.428287999999995,11.525771039038334,0.15066726161034205
32.430676,11.959504953345085,0.15048536592669462
32.433056,12.397057973547438,0.1502352684306437
32.43546,12.837498934085609,0.14993936381356213
32.437847999999995,13.27701062492187,0.14958116269900568
32.440228,13.707352325645077,0.14924519353205723
32.442632,14.134996869203304,0.14884459052980126
32.445015999999995,14.5462563114536,0.14846723090092923
32.447396,14.943878823104919,0.14805523280565516
32.449791999999995,15.326840690798875,0.14759488118530248
32.45218,15.688810747072113,0.14712128888032483
32.45456,16.02131595408802,0.1466705181347137
32.456956,16.32468307292855,0.1462132315931785
32.459343999999994,16.59947118210115,0.14573219808773719
32.46174,16.846983534217937,0.14522578474512335
32.464136,17.062796618905498,0.14473954890139218
32.466524,17.24379017840253,0.14430702003268242
32.4689,17.395690975694563,0.1438964640515121
32.471304,17.51668200563241,0.14354307747618794
32.473692,17.611092334933016,0.14324328055732538
32.476071999999995,17.6810166121414,0.14299718900921157
32.478476,17.728689255429458,0.14280039916534318
32.480864,17.756204913342227,0.142651215964526
32.483244,17.760630319573515,0.14256662725667485
32.48564,17.752208295280877,0.1424878431404533
32.488028,17.73173023639723,0.14241247630218085
32.490407999999995,17.6958435677358,0.14236720870529518
32.492804,17.655489958588454,0.1422803708107273
32.495192,17.60554705044747,0.14220268948065543
32.497572,17.54573530405914,0.14213999891733792
32.499972,17.48145472132701,0.1420808757808641
32.502356,17.41652251228883,0.14201990230778097
32.50474,17.351682851049265,0.14197131086897566
32.507136,17.290241090966852,0.14192395789855008
32.509524,17.231126296854953,0.14188675661490951
32.511908,17.1734998509524,0.14187938895797692
32.514304,17.128350644379303,0.14181455387083924
32.516687999999995,17.08324676377658,0.14178010478286912
32.519084,17.050108265824115,0.14168335618176772
32.52148,17.02576956679023,0.14153164672534907
32.523868,17.005295299622322,0.14135629790418475
32.526252,16.986311276521636,0.1411629192378204
32.528652,16.966163770435692,0.1409634644736627
32.531036,16.951370940282942,0.14072230277733488
32.533415999999995,16.939790915690104,0.14045649209672997
32.535819999999994,16.93286671889616,0.14016535908170105
32.538208,16.923753429900696,0.1399071400911108
32.540588,16.913614531688967,0.13968803678874692
32.542984,16.904731664261114,0.13948815923971158
32.545372,16.89947901541588,0.13930188370975205
32.547756,16.893340526981248,0.13915159379107417
32.55016,16.889249465263404,0.13901896927573318
32.552544,16.891489571008904,0.13887160549848096
32.554924,16.894334081232227,0.13874295294676928
32.55732,16.90285813261283,0.13859864128207042
32.559708,16.922835709964495,0.13838899138833316
32.562088,16.943557461420834,0.13819580108187707
32.564484,16.9722403940346,0.13796785060704628
32.566872,17.00115564407384,0.13775238756850336
32.569252,17.02974413303111,0.1375611982603584
32.571648,17.06093912721262,0.13737584253773188
32.574031999999995,17.096463188111056,0.1371900291615876
32.576415999999995,17.140832373898455,0.13698308682462795
32.578812,17.189251087149056,0.13678307219108918
32.581199999999995,17.236923730437116,0.13661646332018598
32.583596,17.286411483016487,0.13645892329991294
32.585992,17.34600228712656,0.13625406430968603
32.588384,17.411040314968446,0.13602559463213196
32.590764,17.48110625766156,0.13578204133225288
32.59316,17.559692460019537,0.13549643956742213
32.595548,17.64558821722888,0.13517847370708475
32.597928,17.740144003729952,0.1348163138238723
32.600331999999995,17.82948488392469,0.13448984328457217
32.60272,17.920408555985265,0.13416159218126922
32.6051,18.010261292859198,0.13384384687844236
32.607504,18.095550749732855,0.13356573427470347
32.609891999999995,18.181771372166295,0.13328573641177494
32.612272,18.270785491279067,0.13299658827829072
32.614667999999995,18.35816959669776,0.13272789015509634
32.617056,18.44848696842265,0.1324457029432929
32.619436,18.54359993757329,0.13214206084418142
32.621832,18.64336873452282,0.1318210821845406
32.624216,18.744348236285852,0.13149500152024277
32.6266,18.843325637302467,0.13118228824971173
32.628996,18.948449110185187,0.1308372058312988
32.631384,19.058228410866803,0.13047702123740781
32.633764,19.164934675615363,0.13013890896376806
32.63616,19.269638839617507,0.12981445754960438
32.638544,19.37769557880643,0.12947148683018075
32.64094,19.483889986875795,0.1291420156514153
32.643336,19.587290898265824,0.12882710691549867
32.64572,19.68533713372266,0.12854790964446922
32.6481,19.792322937724936,0.12822603483781278
32.650496,19.900519446540716,0.12789733709310197
32.652884,20.00736548091614,0.12758159909719619
32.655263999999995,20.11342011935864,0.12726828589234604
32.65766,20.219614527428003,0.1269553160237441
32.660044,20.322084273258252,0.12666046545273854
32.66244,20.428046363902144,0.12634394716030592
32.664835999999994,20.5300042530532,0.12604881907144894
32.667224,20.625863292166382,0.1257736578020971
32.669604,20.71548371161484,0.12552108447240112
32.672,20.801798777704764,0.12527817676747374
32.674388,20.89202549748891,0.12500732553614094
32.676768,20.974011496861905,0.12476755086815212
32.67916,21.044963279144426,0.12456826278483137
32.681548,21.11074737694885,0.12438270064748884
32.683944,21.1762991573278,0.12418947078011465
32.686339999999994,21.235472548415167,0.12401930488243636
32.688728,21.28747615427802,0.12387220391802534
32.691108,21.341668852342398,0.12370141981511472
32.693512,21.393674354063123,0.12351781902342339
32.695899999999995,21.437067048320365,0.12335662701393924
32.69828,21.478644633286294,0.12318956067220786
32.700675999999994,21.519897353028128,0.12300322848625184
32.703064,21.55947473310551,0.12280803591179995
32.705444,21.594163967958522,0.12262105429764916
32.70784,21.62359297053483,0.12243556230606466
32.710228,21.64748220158072,0.1222567734756286
32.712612,21.66839284035003,0.12206549707077415
32.715011999999994,21.688838844268385,0.12185721177530472
32.7174,21.704024615910036,0.12164974305463667
32.71978,21.709806184155283,0.12146294023844635
32.722184,21.70110841232466,0.12131982726311126
32.724571999999995,21.69259763194914,0.12116083755175604
32.726952,21.68348244709581,0.12098645440312118
32.729356,21.6748337929513,0.12079126852621705
32.731744,21.659434662462864,0.12060940362734482
32.734123999999994,21.63956669563064,0.12042719938126152
32.736528,21.616021288387547,0.12024370612336574
32.738916,21.58065026812105,0.12009623488581479
32.741296,21.54453507374989,0.1199354229823264
32.743692,21.505533834900767,0.11977235141573493
32.74608,21.458850954147948,0.11962503979057049
32.748459999999994,21.40620899298412,0.1194894489181863
32.750856,21.3508207569692,0.11934884209837027
32.753243999999995,21.293617411662964,0.11920015168990047
32.755624,21.23776454079709,0.1190403347448298
32.758019999999995,21.1793977125056,0.11888426335739617
32.760403999999994,21.120379257908052,0.11872561364065363
32.762788,21.05935870256409,0.11857453317142341
32.765184,21.00234234871296,0.11840539566557297
32.767571999999994,20.945325994861832,0.1182356277348705
32.769952,20.892453612130396,0.11804540987258026
32.772352,20.834134005667146,0.11787061978241548
32.774739999999994,20.777025104017394,0.11768689600212877
32.77712,20.71684316643459,0.11751642950800584
32.779516,20.659082638478786,0.11732901750480339
32.781904,20.6021135064559,0.11714001420682617
32.784288,20.550079741485625,0.11692957063426807
32.786683999999994,20.504703905060662,0.11669391079110984
32.789068,20.4515519830755,0.11650122253603926
32.791464,20.399982852956175,0.11630625862464702
32.793864,20.349716975448967,0.1161140366843605
32.796248,20.303967156113792,0.11590766142274157
32.798628,20.25630778383082,0.11572091287734432
32.801027999999995,20.205807693040267,0.11555712145688776
32.803411999999994,20.15274642299586,0.11541136112913523
32.805796,20.097263743324454,0.1152813087677554
32.808192,20.041873611451663,0.11516253730367898
32.810579999999995,19.984713696257934,0.11506153134864551
32.81296,19.924201205877424,0.11497923019146294
32.81536,19.868996169601868,0.114882669024088
32.817744,19.818027652244623,0.11477722257460013
32.820128,19.77394938085816,0.11465613390301985
32.822523999999994,19.731034592456957,0.11454077851891285
32.824912,19.69114561816056,0.11442513169644873
32.827307999999995,19.651861048341985,0.11432555124975527
32.829704,19.617744163001497,0.11421433802578054
32.832092,19.583580055832762,0.11411729405960744
32.834475999999995,19.547366626089378,0.11404327947264775
32.836872,19.522187413436463,0.11393438235254458
32.83926,19.498543770821144,0.11383884221129609
32.84164,19.48286130936325,0.11372285173182259
32.844036,19.469645583502732,0.11361731620860802
32.846424,19.464530808426495,0.11348913196971169
32.848808,19.470590020067593,0.11332428620357217
32.851204,19.481677146559925,0.11315117555294175
32.853587999999995,19.501516850142597,0.11295762213854356
32.855971999999994,19.530528439696194,0.11273702335368362
32.858368,19.565638879287654,0.11250277630995506
32.860755999999995,19.60722025596932,0.11226227965888609
32.863139999999994,19.65382954750222,0.11201491876631392
32.865536,19.70290557463249,0.11177914150150532
32.86792,19.752725775867432,0.11155832249844973
32.870304,19.806223417513248,0.11134091927291262
32.872699999999995,19.865680139570067,0.1111138837582856
32.875091999999995,19.929373380545204,0.11088026154984429
32.877472,19.99381079562501,0.11066201592101067
32.879867999999995,20.06113425518277,0.11044773136139482
32.882256,20.135487730338173,0.11021829491246939
32.884652,20.211796084411752,0.10999686077591773
32.887048,20.29448282777692,0.10975893823763735
32.889432,20.378193284500487,0.10953219277172485
32.891816,20.46120489308975,0.10931834001180747
32.894212,20.544029510223908,0.10912270293120177
32.896595999999995,20.623873639223625,0.10895389526942567
32.898979999999995,20.70902522232829,0.10877513519717803
32.901376,20.794688662112158,0.10860240757057471
32.903763999999995,20.876719987455523,0.10845410875555728
32.906144,20.96033410466473,0.10830630579585704
32.908539999999995,21.047672884113055,0.10814967797369232
32.910928,21.135383750613713,0.10800148567681381
32.913324,21.224305321927872,0.10784715798086265
32.91572,21.314437598055527,0.10768638941612897
32.918108,21.403638708623404,0.1075290605853014
32.920488,21.491768884004642,0.10737823753655845
32.922884,21.5819011601323,0.10722159868984135
32.925272,21.67231297551367,0.10706137687203218
32.927651999999995,21.764075265335403,0.10689307053391417
32.930056,21.854114993664442,0.10672901072673123
32.932444,21.94257193012764,0.10656677819239087
32.934824,22.027583743605454,0.10641149147374059
32.937224,22.10807949891123,0.10626698460764562
32.939612,22.191415972724585,0.10610293946964588
32.941992,22.27372873317955,0.10593141471651314
32.944388,22.357671507328586,0.10574760929775118
32.946776,22.436027288118957,0.10557977663599699
32.94916,22.511729341856853,0.1054177788417025
32.951556,22.58705930854241,0.10525031319335432
32.953944,22.662808584108554,0.10507773767950662
32.956328,22.731248304823325,0.10492296905048529
32.958724,22.796522441806424,0.1047698750469599
32.961112,22.863286822856743,0.10460745374829494
32.963496,22.930470512787643,0.10443976943396228
32.965888,23.000215381972396,0.10425803163016042
32.968276,23.07093863854518,0.10406313152830059
32.970659999999995,23.138868398438618,0.10387631037029023
32.973056,23.206426071279722,0.10368445719638827
32.975444,23.2711902474415,0.10350026317126598
32.977827999999995,23.33451140136429,0.10331511152887943
32.98022,23.397600237861614,0.10312289730485973
32.982608,23.46031698730659,0.10292551985685833
32.984992,23.527085160072648,0.10270404332367646
32.987388,23.58812656985317,0.10249840450574564
32.98978,23.651449619633837,0.10228374072967096
32.99216,23.709325445682687,0.10208059078799286
32.994556,23.766829184679207,0.10187190229599068
32.996944,23.82810480774308,0.10164385864478992
32.999328,23.88793740856798,0.10141481372083071
33.001732,23.944604425661204,0.10118723041689182
33.004116,24.00355308275457,0.10094988230890584
33.0065,24.062921048728512,0.10070736860199796
33.0089,24.116841790970646,0.10047645935796133
33.011284,24.16824857578716,0.10024867266636382
33.013668,24.213928597618153,0.10003583894507088
33.016064,24.254673252396525,0.09983803974936277
33.018452,24.29360279788359,0.09963294887831495
33.020832,24.330809781877957,0.09943059310141993
33.023228,24.369786549193265,0.09921518226165664
33.025616,24.407320294269596,0.09899830789889974
33.028,24.442340081920314,0.09878410996484183
33.0304,24.47642870401125,0.09857250360486358
33.032788,24.504091714982355,0.09838477411154822
33.035168,24.535386840393958,0.09817988217368658
33.037568,24.557370310207776,0.09799441221293036
33.039956,24.581775189648592,0.09779753165848955
33.042336,24.602595176477156,0.0976063325487743
33.044732,24.618479796253105,0.09742918329511373
33.047115999999995,24.634504185655913,0.09725045084185743
33.049512,24.649737179125804,0.09707197188429527
33.051916,24.662595984796944,0.09689352003542404
33.054303999999995,24.672009667482698,0.09671878546940632
33.056684,24.67970078867575,0.09654580846043487
33.059088,24.683527478002826,0.09638209476447156
33.061471999999995,24.68484020990429,0.09621977337771424
33.063855999999994,24.683499214753276,0.09606091289582748
33.066252,24.679736809975264,0.09591344303543871
33.068636,24.675322778891193,0.09576402908508852
33.071016,24.6610380137019,0.0956404210963614
33.073412,24.645822082952833,0.09551854953762737
33.075796,24.630606152203764,0.09539661725413086
33.078176,24.61287626402908,0.09527612621350363
33.080572,24.59877849029489,0.09513857060608372
33.08296,24.582818385441147,0.09500460993305372
33.085352,24.57272481319979,0.09485593209242776
33.087748,24.560908679465737,0.09470886439175834
33.090135999999994,24.5535160561051,0.09454503824907763
33.092516,24.544680410505485,0.09437886469659959
33.094912,24.533191037853395,0.09421596670823339
33.0973,24.52156189557445,0.09405499221879648
33.09968,24.508070422175948,0.0938972646393002
33.102076,24.49872291989714,0.09372689521523177
33.10446,24.489515187245186,0.0935544014744296
33.106856,24.480866533100674,0.09337389407189516
33.109252,24.477432785262497,0.09317702566152757
33.111639999999994,24.473487180745128,0.09297567602736051
33.11402,24.47024042436205,0.09276449513024299
33.116416,24.462337840180084,0.09256153052250804
33.118804,24.46193180230459,0.09233271738223216
33.121184,24.457940871816838,0.09210837803500671
33.123588,24.45208761020953,0.09188736853558882
33.125975999999994,24.445442952669307,0.09166581272273715
33.128356,24.43735527289011,0.09144193641215081
33.130751999999994,24.42512362199121,0.09123026862584856
33.13314,24.40930707848007,0.09102319080510655
33.135524,24.39414216127498,0.09081824240239565
33.137927999999995,24.37576443850998,0.09062391168186654
33.140316,24.35310297499842,0.09044332677618167
33.142696,24.328579180367303,0.0902656003223754
33.145095999999995,24.298608162004374,0.09009533839631843
33.147479999999995,24.26956830920123,0.08992304852784555
33.149864,24.23424261490511,0.08976990495714356
33.15226,24.19877715098213,0.0896183419442028
33.154647999999995,24.169038450044685,0.08945491440102579
