Time,Force,Position
32.282976000000005,0.14343156803453927,0.0
32.285364,0.12534626853537512,0.0
32.28774800000001,0.10926306978262784,0.0
32.290139999999994,0.09490243252257699,0.0
32.292528000000004,0.08068156488938635,0.0
32.29490800000001,0.06618115800247527,0.0
32.297304,0.052751686302202734,0.0
32.299696,0.04146408497520727,0.0
32.302076,0.031247418834850323,0.0
32.304472000000004,0.023312392694630653,0.0
32.30686,0.01430643136777245,0.0
32.30924,0.006511174854412986,0.0
32.31163600000001,0.0016491846472486966,0.0
32.314024,0.0,0.0
32.31642000000001,0.0,0.0
32.318816,0.002068493527829327,0.0
32.321203999999994,0.002068493527829327,0.0
32.323584,0.002068493527829327,0.0
32.32598,0.002068493527829327,0.0
32.328368,0.002068493527829327,0.0
32.330752000000004,0.002068493527829327,0.0
32.333147999999994,0.002068493527829327,0.0
32.335536000000005,0.002068493527829327,0.0
32.33792,0.002068493527829327,0.0
32.340316,0.002068493527829327,0.0
32.342704,0.002068493527829327,0.0
32.345088000000004,0.002068493527829327,0.0
32.347488,0.002068493527829327,0.0
32.349872000000005,0.002068493527829327,0.0
32.352256,0.002068493527829327,0.0
32.354652,0.0020684935278293274,0.0
32.35704,0.0020684935278293274,0.0
32.359424000000004,0.0020684935278293274,0.0
32.361819999999994,0.004136987055658655,0.0
32.364208000000005,0.004994775769989241,0.0
32.36658800000001,0.003784070956490499,0.0
32.368984,0.006364421163517515,0.0
32.37137200000001,0.012529663982797602,0.0
32.373756,0.01906699385441517,0.0
32.37616,0.0283978204053677,0.0
32.378547999999995,0.03716956844887938,0.0
32.380928,0.04459084205203211,0.0
32.383328000000006,0.05345513789416087,0.0
32.385716,0.06404199522898604,0.0
32.388099999999994,0.07528047886986912,0.0
32.390496,0.08824152400344863,0.0
32.392883999999995,0.10385629618950287,0.0
32.395264,0.12012269468161504,0.0
32.397668,0.13797188503956342,0.0
32.400052,0.15554153614379138,0.0
32.402435999999994,0.17390258318093746,0.0
32.404832,0.19398619171077996,0.0
32.407219999999995,0.21285909542712375,0.0
32.4096,0.22938396636191774,0.0
32.411996,0.24590883729671176,0.0
32.414384,0.2642960393510624,0.0
32.416764,0.28403371584577203,0.0
32.419163999999995,0.30004673010136834,0.0
32.421548,0.31689836211812594,0.0
32.42393200000001,0.32802323114935333,0.0
32.426336000000006,0.34291998424793724,0.0
32.42872,0.35902744216001986,0.0
32.4311,0.374762813019765,0.0
32.433499999999995,0.38956701831973184,0.0
32.435884,0.4046507628734191,0.0
32.43826800000001,0.41642915406857367,0.0
32.440672000000006,0.4226205519050584,0.0
32.44306,0.42508728750242974,0.0
32.445440000000005,0.4219670297411312,0.0
32.447835999999995,0.4189865416066929,0.0
32.450224000000006,0.4166576797783125,0.0
32.45260400000001,0.4112557820168767,0.0
32.455,0.4097183161214143,0.0
32.457387999999995,0.4071099150393135,0.0
32.459772,0.4082261761963259,0.0
32.462176,0.40398776142014575,0.0
32.464564,0.395186066643691,0.0
32.466948,0.3881069333599326,0.0
32.46934400000001,0.38153965675537205,0.0
32.471732,0.38014006462890065,0.0
32.474112000000005,0.37510835806193316,0.0
32.476507999999995,0.36900571630832707,0.0
32.478896000000006,0.3623439960472801,0.0
32.48128,0.3563339020922911,0.0
32.483676,0.3486937944432227,0.0
32.486064,0.34566229276480265,0.0
32.488448000000005,0.34900918037797074,0.0
32.490844,0.3618074932157822,0.0
32.493232000000006,0.3829862960915986,0.0
32.495608000000004,0.40467695564661266,0.0
32.498012,0.4234343488954315,0.0
32.500395999999995,0.44605617401022385,0.0
32.502776,0.46667589837859946,0.0
32.505172,0.49157936349352915,0.007732853927812339
32.507555999999994,0.516622598235319,0.015187512310485634
32.509956,0.5478119048432195,0.022395937089320993
32.51235200000001,0.5802119162646189,0.029722673732456475
32.514736,0.6096786613798232,0.03733634979943831
32.517116,0.638865867241307,0.04491971379066648
32.519512000000006,0.6696830867968702,0.05206031257009013
32.5219,0.7005003063524333,0.05936510898591675
32.524283999999994,0.7330400874006928,0.0667423566254757
32.52668800000001,0.7649282421428945,0.07417459191879028
32.529076,0.79523360501926,0.08166212423077457
32.53146,0.827308751216565,0.08900200506397941
32.533852,0.8572892488688361,0.09625285896273995
32.53624000000001,0.8826139187222156,0.10370108847926673
32.538619999999995,0.8974162281643131,0.11173332929980104
32.54102,0.9067713138746011,0.11994403299097767
32.543403999999995,0.9168252477191898,0.127976273811512
32.545788,0.9313026919371932,0.13563157969886533
32.548192,0.941124308356305,0.14361257408773903
32.55058,0.9492233632827202,0.15176777296639138
32.55296,0.9553203174627186,0.15207602160784625
32.555356,0.958763544590242,0.15266246579444018
32.557744,0.9614153757848476,0.15328000081579293
32.560124,0.9683509477260073,0.15329064746636237
32.562520000000006,0.9805014259734994,0.15264177081134767
32.564908,0.9893465508624588,0.15217825047788647
32.567288000000005,0.9931165390719459,0.1523402666597546
32.569683999999995,1.0013100376548476,0.151926504118192
32.572072000000006,1.0100626147451899,0.15132353702284834
32.57445200000001,1.0196065877684504,0.15068640240375458
32.576848,1.0311526615381277,0.14986023823888736
32.579235999999995,1.0413482608674463,0.14926834206028863
32.581616,1.0473998890770704,0.1491137082262865
32.584012,1.0554536180331118,0.14873309478993627
32.5864,1.0663008436684882,0.14798598588463202
32.588784000000004,1.079010400423421,0.14702895538622607
32.591179999999994,1.0934425186710504,0.14602716761474532
32.593568000000005,1.1078746369186796,0.14515691191295882
32.59594800000001,1.124448625539586,0.14396096770965197
32.598344,1.1447472763996056,0.14244616782723932
32.60073200000001,1.1607621865130713,0.14140099138276468
32.603112,1.17463522625326,0.14058480237677334
32.605508,1.1897189708069473,0.13968780035737127
32.607896,1.1985168738676635,0.13954652145220975
32.610276,1.2042417409953245,0.1397497475237633
32.612672,1.2124805655485997,0.13981345437730092
32.61506,1.2208591597287353,0.13980997555211183
32.617444000000006,1.2200186461097047,0.14081191703713639
32.61984,1.221971629170009,0.14154692806406205
32.62222800000001,1.2242041514840338,0.14218385903384279
32.624607999999995,1.2244345730516422,0.142999223981646
32.627024000000006,1.228017569806026,0.1434227973706304
32.629412,1.236535933613022,0.14340488258348216
32.631792000000004,1.246125232606656,0.14328761980805782
32.634187999999995,1.261069207533483,0.1426434323570689
32.636576000000005,1.2781550528335874,0.14183766123356414
32.63895600000001,1.2910969270139976,0.141412500233896
32.641352,1.296961563768519,0.141571515087682
32.643739999999994,1.3025466612693193,0.14180787147513843
32.64612,1.3011942909710912,0.14261934929680153
32.648516,1.304777287725475,0.14301655557523724
32.650904,1.3131558819056106,0.1430228421707005
32.653288,1.3141776994061365,0.14376970387087284
32.65568400000001,1.3190639487726363,0.1441853056012676
32.658072000000004,1.3228792629524977,0.14471267883689848
32.66045200000001,1.3284171386250552,0.14513061484864903
32.662848,1.3358173454171693,0.145403088606494
32.66523600000001,1.3500152503814522,0.14502396784995858
32.667615999999995,1.3595101057186,0.1452644487888471
32.670012,1.366723321055611,0.14577631660785612
32.6724,1.3737967667657613,0.14632574660093442
32.67478,1.3772380980354155,0.1473469086271403
32.677195999999995,1.3806794293050701,0.14834743785897775
32.67958,1.3830498253880859,0.14944113640088597
32.681960000000004,1.3829988118441041,0.15077697000914925
32.68436,1.3814575542329033,0.15227974878100212
32.686747999999994,1.3840602677413965,0.15342187244568053
32.689128,1.39238974423542,0.1541690029383133
32.691528000000005,1.4067255229686937,0.15445184543620954
32.693916,1.4302804095011339,0.15398462500597973
32.696296000000004,1.4530439001006556,0.15355839858201728
32.6987,1.473945059580621,0.15327666568451334
32.701088,1.5036460179791715,0.15235475343030952
32.703472000000005,1.5308330189521075,0.1515402312285891
32.705867999999995,1.560161890298321,0.1505563062239504
32.708256000000006,1.5871165738457798,0.14966629341540816
32.710635999999994,1.6109982214601832,0.14897735419018657
32.713032,1.6350196387014468,0.14828638518827647
32.715419999999995,1.6609506088905104,0.1472889177839574
32.7178,1.6920964853859064,0.14590854508269602
32.720200000000006,1.7261756281874976,0.14435810363935167
32.722588,1.759742914309891,0.14270423815687378
32.724968000000004,1.7903769341260893,0.14125496599109377
32.727368,1.8190088531958708,0.13993340008212685
32.729755999999995,1.8429849444667608,0.1388600230994646
32.732136,1.8624449775656189,0.13800561756055607
32.734532,1.8758987084252268,0.13759094252576695
32.73692,1.8874901081652782,0.13729358417528553
32.739304000000004,1.893214975292939,0.13741386390448804
32.741699999999994,1.895587267233824,0.13781119580215678
32.744088000000005,1.8994025814136852,0.13819449819732482
32.746472,1.9033104433921635,0.13870082301695802
32.748868,1.9027475731689842,0.1396826611978563
32.75125200000001,1.9099116708198827,0.1406263364572768
32.753632,1.9216824785835602,0.14184781050287817
32.756032000000005,1.941737436870887,0.14327371133803166
32.75842,1.9841365768771553,0.14432754547562981
32.7608,2.0469231238263217,0.14537753443436546
32.76319600000001,2.1321445044351774,0.14652105920455155
32.765584000000004,2.23854279206198,0.1479191470544636
32.767968,2.368492174505484,0.14947243751683986
32.770364,2.5346096607220057,0.1508503912637461
32.772752,2.7383382729505197,0.1520550507004854
32.775136,2.9799103286165054,0.15312819251353227
32.77753200000001,3.2647730514517708,0.15394417901435067
32.779920000000004,3.593485519963757,0.1544792520736022
32.782304,3.962742380793932,0.15473517398239361
32.7847,4.37124038133018,0.15485634158314274
32.787088,4.815115089706527,0.15491915249893817
32.789468,5.289478360698605,0.15501417001264653
32.79186800000001,5.7926548546419605,0.15511988188097958
32.794256000000004,6.323481088551336,0.15511474182506332
32.79664,6.88163219720264,0.15481817659804234
32.799036,7.457471659773996,0.15450928229512023
32.801424,8.048440192869412,0.15400480346180773
32.803808000000004,8.654911779399097,0.1532518980551381
32.806203999999994,9.257705925517913,0.15268886260523953
32.808592000000004,9.855521274471608,0.15214157453452687
32.810976,10.439000844692032,0.15156837090911565
32.813372,11.007727223156472,0.15089829655678325
32.81575600000001,11.560164839827332,0.15012244364859037
32.81814,12.082253663509322,0.14944513121162006
32.820552000000006,12.573529059351488,0.14881639572068053
32.82294,13.029382421383179,0.14821381541103934
32.825320000000005,13.448929805872865,0.1476436162283513
32.827715999999995,13.828259559126323,0.14714793377963667
32.830104000000006,14.173610300808289,0.1466650271386803
32.83248400000001,14.479859672411038,0.14625913787393416
32.83488,14.752454897666384,0.14587673296737813
32.837267999999995,14.99428202105228,0.1455071910491683
32.839652,15.210741044472293,0.14514091471467705
32.842048000000005,15.404485694978893,0.14475903915251065
32.844432,15.57747085149026,0.14436607981083344
32.846816000000004,15.732303019230619,0.1439646095164224
32.849208000000004,15.871076846745009,0.14355306982978588
32.851596,15.99067207627213,0.14317723792703768
32.853976,16.100772450462102,0.1427846039811815
32.856392,16.194765366739993,0.14244876489892686
32.85878,16.28489574700978,0.1420921618938348
32.86116,16.367391707204106,0.1417548929183666
32.863556,16.442904873629026,0.14143809888928743
32.865944,16.513297577404103,0.14112742654699476
32.868328000000005,16.57759143114131,0.14084632873525377
32.870724,16.641373428199323,0.14056211456089293
32.873112000000006,16.69714702227167,0.14033379355064807
32.875496,16.751198054851315,0.14011319764306
32.877892,16.800593259632066,0.13991983099186084
32.88028,16.853760348480183,0.1396896782419765
32.88266,16.90697465915654,0.13944330718510728
32.885056000000006,16.961167357220912,0.139175472049089
32.887444,17.012753550061056,0.13890493719218786
32.889824000000004,17.063036490289086,0.13863464383661017
32.892224,17.109502220479385,0.13837280413294825
32.894608000000005,17.15564308544559,0.13808968797450938
32.89698800000001,17.199456984441287,0.13779731401818743
32.899388,17.240804147839608,0.13749810890058278
32.901776,17.275680374147726,0.13721771899460147
32.904156,17.311302670418385,0.13690596271905986
32.906552000000005,17.343946374412475,0.13658367289992382
32.90894,17.375194277995835,0.13624643064361627
32.91132,17.403044280422044,0.13590629392821096
32.91371600000001,17.433455462102113,0.1355427236177639
32.916104000000004,17.46377409598356,0.1351657489136875
32.918488,17.495722743559092,0.13477059323667298
32.920884,17.533817463000727,0.13433568957610675
32.923272,17.57205195206923,0.13389754000346696
32.925656000000004,17.609495045204817,0.13346019100091008
32.928051999999994,17.638278109048674,0.1330701745169951
32.930440000000004,17.663196741026553,0.13270164902878215
32.93282000000001,17.682528379645767,0.1323604544961077
32.935216,17.69683210341375,0.1320349457153113
32.937608,17.705084198972113,0.13171626149132037
32.939988,17.708867458186685,0.13140081347490193
32.942387999999994,17.701104643631577,0.13113184541692793
32.944772,17.690455784598523,0.1308630312483883
32.94715600000001,17.676269254781456,0.13059233527092487
32.949552,17.659336450113297,0.13031788991761145
32.95194000000001,17.635373629847493,0.13006914182420048
32.954324,17.606615212155933,0.12984481108354878
32.956720000000004,17.573340736292344,0.12963860937743213
32.959112000000005,17.538064159682342,0.12944324860665496
32.96149200000001,17.49598988490017,0.1292837426526536
32.963888,17.453915610117996,0.12912323774489526
32.96627600000001,17.40690596828321,0.1289894250463072
32.96866,17.354029793836034,0.12888681557812842
32.971059999999994,17.300362223455938,0.12878482506648475
32.973444,17.252049329009036,0.12864508526406868
32.97582800000001,17.208811571241608,0.12847424606870678
32.978224,17.165853352727897,0.12829684509602543
32.980616,17.125456313468046,0.1280950553423713
32.982996,17.086130209394835,0.12788515990716456
32.985392000000004,17.044382695694622,0.12769523778979183
32.98778,17.002355642740692,0.12751059594135053
32.99016400000001,16.96670697907835,0.1272978713477173
32.99256,16.92877667541587,0.12710216619868092
32.99494800000001,16.892009854738646,0.1269122628214463
32.997332,16.85747745223331,0.12672078440857448
32.999728000000005,16.832908331631824,0.12648739951256568
33.002116,16.80936292438873,0.1262630751979984
33.00450000000001,16.78642192162345,0.12605697344302144
33.006896,16.766366963336125,0.12585155461951386
33.009288,16.755204351766,0.1256120646541972
33.011668,16.742923583180993,0.12539673517481098
33.01408000000001,16.73432025500686,0.12518117665560033
33.016468,16.732746942430367,0.12494042100122636
33.018851999999995,16.737132710264888,0.12468243998840443
33.021264,16.739329385897886,0.12445695715101752
33.023652,16.744551875635693,0.12423039990267508
33.026032,16.757735546530927,0.12397616236472636
33.028428000000005,16.774736427463893,0.12372002764759263
33.030816,16.793831956941894,0.12346693374256577
33.033196000000004,16.825824034629925,0.12316080462642698
33.035596,16.863635423102107,0.12284201094641713
33.037983999999994,16.90261029455954,0.12253130329210805
33.040364,16.95061728236104,0.12218836378947526
33.042764000000005,17.000998457961295,0.12184345429995762
33.045152,17.05347428210658,0.12150260920057239
33.047532000000004,17.103249157371152,0.12119022734193613
33.049932,17.157400321180894,0.12086483248066693
33.052319999999995,17.21928034872258,0.12050323839164837
33.0547,17.28074106738369,0.12015092100902103
33.05711600000001,17.338849210858022,0.11982421257435853
33.059504000000004,17.40361528287766,0.11946877722985684
33.061884000000006,17.46931252045708,0.11911076604255506
33.064284,17.537663485088977,0.11874794692501517
33.066672,17.603872579347595,0.11840109378216182
33.069052,17.66994190397935,0.11805792582302561
33.071448000000004,17.734009127864688,0.11772683052256168
33.073836,17.790207718391223,0.11743576371855488
33.076216,17.846406308917754,0.1171467767907933
33.078616,17.902465129817422,0.11686152668975551
33.08100400000001,17.951866022171785,0.11660812128676368
33.083383999999995,18.00089482747381,0.11634921590961066
33.085792,18.04941177609664,0.11608661180557267
33.088179999999994,18.088989156174023,0.11586855856065825
33.090564,18.128706305878268,0.1156488624873229
33.092960000000005,18.170984634836366,0.11540999988354812
33.095348,18.210749006368854,0.11517651751222416
33.09773200000001,18.248139190102584,0.11494604510734883
33.100128,18.279942380477646,0.114737296235057
33.102515999999994,18.314958376412623,0.11451076451671821
33.1049,18.35160438604168,0.1142680071697926
33.107296000000005,18.383734337498705,0.11404064076227256
33.109684,18.415631971530253,0.11380395279325663
33.11206800000001,18.438078180337158,0.11360380098165367
33.114464,18.45801043171845,0.11340849168441185
33.116851999999994,18.480503862353597,0.11319380030308519
33.119232,18.505418702615742,0.11296264606288338
33.121632000000005,18.535827988437937,0.1126994892487109
33.12402,18.566656583140716,0.11242983222936494
33.12640400000001,18.598975421910716,0.11214720227486642
33.1288,18.62649866325496,0.11188342087068653
33.131192,18.649086537546594,0.11164158257404182
33.133572,18.669672311091812,0.11140912155000231
33.135968000000005,18.689885997584692,0.11116857232823951
33.138356,18.7057233955324,0.1109387786772544
33.140736000000004,18.716345887173773,0.11073616203969
33.143136,18.72510604769559,0.11053956281662
33.145523999999995,18.736008078590693,0.1103318680282784
33.147904,18.750262684672563,0.11010462842614112
33.1503,18.758138901462846,0.10989661186142496
33.152688,18.763361391200654,0.10969561707051183
33.155072000000004,18.76606992351285,0.10949842300004037
33.157467999999994,18.766776355078633,0.10931021295228324
33.159856000000005,18.77204606664468,0.10909357749403481
33.16224,18.779597418210873,0.10886310959207247
33.164636,18.78128223716467,0.10865639288273457
33.167024,18.77724029313294,0.108470629923127
33.169404,18.770404852421873,0.10829421567317006
33.171803999999995,18.75891358391192,0.10813281024287642
33.174188,18.744768588349487,0.10797768141780571
33.17657200000001,18.73490733353361,0.10780008879726867
33.178968,18.728119114650784,0.1076083520245994
33.181355999999994,18.7236125357681,0.10740295516601236
33.18374,18.724041323938028,0.10717773628699417
33.186144,18.727123839160427,0.10694620654783109
33.188531999999995,18.72848379289013,0.10671752558516591
33.190916,18.73263724329917,0.10647985702030507
33.193312000000006,18.73143601777502,0.10626986864485138
33.195704000000006,18.72674244743723,0.10608185161092862
33.198083999999994,18.73056913676431,0.10586548726831607
33.200484,18.73555930907664,0.10565656464084212
33.202872,18.74599670512078,0.10543332244746434
33.205256000000006,18.760018993777177,0.10520186484007399
33.207652,18.77534453504569,0.1049757659903065
33.210036,18.786106796313923,0.10477640735755005
33.212416000000005,18.79593789202238,0.1045792445552071
33.21482,18.808282945156453,0.1043786493201771
33.217203999999995,18.819137754223306,0.10419139609885716
33.219584,18.829573254409578,0.10401171261041561
33.22198,18.84038084164819,0.10383974225992382
33.224368,18.846904688140246,0.10368937540134118
33.226748,18.852078060191943,0.10354980287673364
33.229152,18.854830022616646,0.10342628050966059
33.231539999999995,18.855300345041208,0.10331626551705635
33.23392,18.857632998585327,0.10320096191985038
33.236316,18.867834285488254,0.10305643422658273
33.238704,18.87724417645826,0.10291212972294994
33.241084,18.888004541868625,0.102757070816348
33.243483999999995,18.900767008025408,0.10259415133601929
33.245872000000006,18.905009214517328,0.10245839186447203
33.24825200000001,18.90780839877027,0.10232037318044919
33.250656000000006,18.904880820037686,0.10220105895874211
33.25304,18.89408460794629,0.10211072867846703
33.255424000000005,18.879423963988923,0.1020335779714836
