Time,Force,Position
4.288855999999999,9.24511287326215,0.1484245367149184
4.291239999999998,9.263175210092406,0.1483382388747771
4.293624000000001,9.286964309908193,0.1481868237975888
4.296019999999999,9.311684575283756,0.1480288048765302
4.298407999999999,9.340409042152157,0.1478189181045482
4.300792000000001,9.37164746644617,0.1475914234757156
4.303187999999999,9.39809029331443,0.1474188269949571
4.305575999999999,9.42653522092911,0.1472207212315976
4.307956000000001,9.454468291864586,0.1470152622857309
4.310351999999998,9.484822772427064,0.1467677809851649
4.312740000000002,9.51638795780304,0.1465002912091354
4.315124000000001,9.5471617472461,0.1462382092347639
4.317519999999998,9.57835484556974,0.1459593682487857
4.319908000000002,9.610386561654542,0.1456468610553262
4.322288,9.641487112179563,0.1453457745749315
4.324687999999998,9.670725331585029,0.1450644755939354
4.327076000000002,9.70252473024435,0.1447366713488564
4.329456,9.728876905171864,0.1444624193077107
4.331855999999998,9.750852791554207,0.1442264010510076
4.334243999999998,9.771106116443852,0.1440035056821061
4.3366240000000005,9.792058289467798,0.1437532654478937
4.339027999999999,9.81021696581241,0.143532224872406
4.341415999999999,9.827584246224104,0.143316770892089
4.343796000000001,9.83829359809049,0.1431708215642557
4.346195999999999,9.851284589957013,0.1429915955027822
4.348579999999998,9.864974429957837,0.142786234788625
4.350960000000001,9.88373940663813,0.1425204608133533
4.353368,9.903715088131923,0.1422364978179789
4.355751999999999,9.926763805558776,0.1419173457149446
4.358135999999998,9.948881357425847,0.1416087252947271
4.360531999999999,9.970207513360002,0.1413049605241817
4.362919999999999,9.991813208547876,0.1409917075998119
4.365300000000001,10.011696342243054,0.1406904255145438
4.367695999999999,10.031579475938232,0.1403906301885417
4.370083999999999,10.051881918513988,0.1400761783106469
4.372464000000001,10.074745540343605,0.1397196651080666
4.374859999999998,10.094815665493886,0.1393895301055698
4.377248000000002,10.115025560271029,0.1390535980843222
4.379632000000001,10.135375224675029,0.1387131274153778
4.382027999999998,10.156004428332752,0.1383616929932852
4.384416000000002,10.174259444191716,0.1380200199344837
4.386811999999999,10.19107143781171,0.1376789175438517
4.389208,10.204578078073167,0.1373558808450273
4.391596,10.220785667215344,0.1369833200627354
4.393975999999999,10.23154603262571,0.1366562329539473
4.396380000000001,10.238861275050684,0.1363523803912356
4.3987680000000005,10.243942099303762,0.1360536065006739
4.401152,10.247719670944727,0.1357512060230487
4.403548000000001,10.24497908366724,0.1355052400911643
4.4059360000000005,10.238141747098306,0.135278111221949
4.408315999999999,10.227347430864782,0.1350645493240115
4.410720000000001,10.214458466086224,0.1348484903745134
4.413108000000001,10.198403917575993,0.1346428481641992
4.415488,10.180394490147588,0.13442910849015
4.417884000000001,10.158288313427732,0.1342335728251652
4.420272000000001,10.129803747416288,0.1340880030858776
4.422656,10.09866545435237,0.1339611151183619
4.425052000000001,10.071671132408143,0.1337851958355779
4.427440000000001,10.043885414531,0.1336111908522828
4.429824,10.017962027773414,0.1334206252839103
4.432220000000001,9.993481663254803,0.1332293260005329
4.434604,9.97072386022889,0.1330268263478699
4.436988,9.946755352389475,0.132842228075823
4.439384,9.924090097162178,0.1326621507614806
4.441772,9.90314740342758,0.1324709466861794
4.444151999999999,9.881645631185537,0.1323003869729635
4.446548,9.859584780436052,0.1321502592199816
4.448936,9.835893915992491,0.1320337626379236
4.451315999999999,9.817790044907602,0.1318697338847803
4.453720000000001,9.804062462367884,0.1316765078420014
4.456108,9.794431629119613,0.1314647479141594
4.458492,9.786755674789518,0.1312610638003883
4.460888000000001,9.787320440870566,0.1309926171606337
4.4632760000000005,9.788489611429428,0.1307560380640058
4.46566,9.7944071575858,0.1305046779777318
4.468063999999998,9.807494488966675,0.1302021765001097
4.470452000000002,9.827379518519724,0.1298358308813686
4.472832,9.844331281766577,0.1295004075970728
4.475235999999999,9.863005606506125,0.1291560906767345
4.477619999999998,9.881819700872532,0.1288084996972501
4.480004000000001,9.90156496079872,0.1284545196279993
4.482408,9.922101616657825,0.1280995741754873
4.484791999999999,9.94622316512918,0.1277196926397502
4.487176000000002,9.971275879160318,0.1273347643599366
4.4895679999999984,9.997631845803568,0.1269562444154606
4.491955999999998,10.028923179499431,0.1265321483276948
4.4943360000000006,10.061145678755071,0.1261022752493814
4.496735999999999,10.093228408383858,0.1256765330173043
4.499120000000001,10.122098332452724,0.1252893537723144
4.501504000000001,10.151619882827648,0.124907744801092
4.503900000000002,10.182212368389209,0.1245165849801817
4.506288000000001,10.21266508432391,0.124131879129896
4.508668,10.238834059512063,0.1237986018005321
4.511064000000001,10.267284674700347,0.1234373227327003
4.513448,10.296806225075272,0.1230672789595952
4.515832,10.32297520026342,0.1227398226898594
4.518224,10.346303456943993,0.1224631787944523
4.520612,10.368001699930485,0.1222182585601085
4.522991999999999,10.387558072543698,0.1219973498308868
4.525396000000001,10.40669513627633,0.1217925756342572
4.5277840000000005,10.425832200008964,0.1215888903176364
4.530163999999999,10.4437585589281,0.1214022438641459
4.53256,10.46382678822051,0.1211942106967193
4.534948,10.480682211953008,0.1210209552287538
4.537327999999999,10.497956944566084,0.1208336634452854
4.539724,10.511879101992388,0.1206862937054652
4.542112,10.526592655351603,0.1205382458878473
4.544491999999998,10.545310410203658,0.1203555725353471
4.546896,10.568032366548543,0.1201385680523159
4.549284,10.58982315733365,0.1199291273044807
4.551663999999999,10.611474178491898,0.1197263412806832
4.554064,10.634475674090504,0.1195043478236388
4.556448,10.66362324155522,0.119229171855491
4.558827999999998,10.69156010420644,0.1189710391639551
4.561236000000001,10.717215326857522,0.1187407184479559
4.56362,10.743941484695242,0.1184998826764815
4.566004,10.771366490667262,0.1182365256732652
4.5684000000000005,10.799862431825922,0.1179619337100351
4.570788,10.832083035223691,0.1176644698087562
4.573167999999999,10.860299437128637,0.1173995545740313
4.575564,10.885163263846795,0.117171051191119
4.577952,10.907093824258766,0.1169642598148957
4.580335999999999,10.925020183177905,0.1167919641262389
4.582732,10.942294915790978,0.1166155675013673
4.58512,10.958498713217418,0.1164504160115274
4.587499999999999,10.975401358778155,0.1162621152414632
4.620968000000001,10.821553265999423,0.1161474673058273
4.623348,10.80065210651946,0.1161380417281372
4.625751999999999,10.786036788532464,0.1160705737012129
4.628136000000001,10.772492405732107,0.1159925679305252
4.630516,10.76202105886481,0.115887845520221
4.632919999999999,10.751969020878091,0.1157690948228168
4.635307999999998,10.73577091102526,0.1157031739346329
4.637688000000001,10.721854441172566,0.1156115987944778
4.640084000000002,10.702862834640396,0.1155630890363397
4.6424720000000015,10.681869127361816,0.1155308456065448
4.644852,10.657010988217262,0.1155269245503939
4.647248000000001,10.637507525005898,0.1154701254717603
4.649636000000001,10.618143831421396,0.1154087372817423
4.652016,10.600782238583308,0.1153308296089743
4.654416000000001,10.584072272051278,0.1152562955490172
4.6568000000000005,10.570295571825444,0.1151586755458027
4.659179999999999,10.559452137905806,0.1150379352011347
4.661580000000001,10.552752675105864,0.114878630418866
4.663964,10.540558766745864,0.114777807196746
4.666360000000001,10.529156254318783,0.114675604759656
4.668759999999999,10.512538835585374,0.1146221340740318
4.671143999999998,10.498714913531296,0.1145503554388777
4.673528000000001,10.481026559611246,0.1145063310493564
4.6806920000000005,10.413946792626176,0.1144880711650288
4.683095999999999,10.397981000198822,0.1144363376495708
4.685483999999999,10.380804502957972,0.1143998990637741
4.687864000000001,10.369774077583228,0.1143089441238682
4.690259999999999,10.36353924963424,0.1141836605677635
4.692647999999998,10.36438165911114,0.1139981367667023
4.695028000000001,10.36322196784162,0.1138291847654269
4.697431999999999,10.36313321175874,0.1136492152300082
4.699819999999999,10.36304445567586,0.1134686496474995
4.702200000000001,10.361093368473426,0.113299282317153
4.704595999999999,10.357791806830631,0.1131502206456915
4.7069800000000015,10.348064634068004,0.1130653932769721
4.709364000000001,10.33633536055896,0.1129970441004131
4.711759999999998,10.32474585667678,0.1129238040085874
4.714148000000002,10.314367057608097,0.1128346769360966
4.716528,10.30505919372605,0.112734519384259
4.718924000000001,10.29225898503037,0.1126765323147922
4.721312000000001,10.278248071521189,0.1126341330888784
4.723707999999999,10.269312294691485,0.1125471207069166
4.726103999999999,10.26037651786178,0.1124599298326588
4.728487999999999,10.253303072151626,0.1123607862601881
4.7308720000000015,10.247021022374396,0.1122608116998562
4.733263999999998,10.242880842970438,0.112139266938521
4.735651999999998,10.237529958752988,0.1120332828123155
4.7380320000000005,10.229106038602474,0.1119542867633553
4.74044,10.214396276958992,0.111933734437986
4.742823999999999,10.201828385688788,0.1118917209192389
4.745208000000002,10.192333530351643,0.1118227384471493
4.747603999999999,10.184980545387774,0.1117326326627402
4.749991999999999,10.184704797849792,0.1115838515521657
4.752372000000001,10.186059064005889,0.1114054119183701
4.754767999999999,10.19691197721487,0.1111380865833211
4.757155999999998,10.208696055983632,0.1108652128927389
4.759536000000001,10.227417602551425,0.1105397890616966
4.761935999999999,10.246930545052134,0.1102146622002177
4.764320000000001,10.269236984232178,0.1098739585316515
4.7667,10.29410460266608,0.1094988723743469
4.769100000000002,10.322976422592816,0.1090930142145627
4.771484000000001,10.349566602519417,0.1087142300853004
4.773879999999998,10.378019113565571,0.1083253129458111
4.776275999999999,10.404609293492172,0.107947905134179
4.778663999999999,10.428545746366291,0.107584058442401
4.781047999999998,10.453925221479391,0.1072250800041792
4.783443999999999,10.481027258085188,0.1068616326374051
4.785831999999999,10.50920022987762,0.1064882791862194
4.788215999999999,10.544450439095945,0.1060606766751394
4.790611999999999,10.581423209806967,0.1056310749915431
4.792995999999999,10.61518317495807,0.1052324949036025
4.7953800000000015,10.65173663678851,0.1048213982876499
4.797784,10.683214961939475,0.1044523135151695
4.800172,10.712923503769504,0.1041161010494092
4.802551999999999,10.740350405599395,0.1038075126059722
4.804948,10.768056846683006,0.103490761271116
4.807331999999999,10.790548381460283,0.1032181603061352
4.809716000000002,10.81024641955823,0.1029602139560364
4.812116,10.829292831350116,0.1026996448740013
4.814504,10.843264106462527,0.1024761188515755
4.816887999999999,10.855373050455384,0.1022630752150595
4.819284,10.866830368142182,0.1020458201635118
4.821672,10.877636059522922,0.1018249580464198
4.824055999999999,10.8895126860903,0.1015950739899529
4.826452,10.90246024784432,0.1013568901988837
4.82884,10.914244326613083,0.1011065191324667
4.831219999999998,10.922443512769592,0.1008702283877449
4.83362,10.933715734859158,0.10061258516954
4.836008,10.937910719522831,0.1004047186546474
4.838387999999998,10.935308006014338,0.1002370812196398
4.840783999999999,10.934055766946203,0.1000516195680672
4.843171999999999,10.9289390960121,0.0998887001919775
4.845555999999998,10.925684756197548,0.0997169508386057
4.847951999999999,10.924851826009991,0.0995187878331009
4.850339999999999,10.920945859889382,0.0993428160490876
4.8527200000000015,10.918622685634611,0.0991672298221502
4.855115999999999,10.916858589887278,0.0989738790113311
4.857503999999999,10.916025659699724,0.0987757808355564
4.8598880000000015,10.912911089512034,0.0985995997150306
4.862283999999999,10.918736087869789,0.0983674909095904
4.864671999999999,10.922419215854266,0.0981524939158126
4.867068,10.926753970144802,0.0979419489951354
4.869464000000001,10.931600581114536,0.0977406807001869
4.8718520000000005,10.940171854323385,0.097523645101854
4.874231999999999,10.947392653091873,0.0973243146335945
4.876628,10.955125308539555,0.0971343972811542
4.879016,10.967793331039855,0.0969158495572116
4.881395999999999,10.976317382420458,0.0967273253731545
4.883800000000001,10.99177890160009,0.0964979280352528
4.886188000000001,11.01389834932503,0.0962359129645095
4.888567999999999,11.037600588915806,0.095975746802737
4.890964,11.065167260372556,0.0956966110017452
4.893356000000001,11.091802766269527,0.0954223271612949
4.895735999999999,11.118438272166502,0.0951495018135887
4.898132,11.146004943623256,0.09487270632961
4.90052,11.171569514333587,0.0946090074220821
4.902904,11.199508272842674,0.0943473443485857
4.9053,11.231171693590875,0.0940714923693679
4.907688,11.262835114339078,0.0937952724740689
4.910067999999999,11.290075024713865,0.0935579426763424
4.9124680000000005,11.32397286363396,0.0932913799330598
4.914852,11.358941637740696,0.0930177062254493
4.917231999999999,11.39391041184743,0.0927450357772556
4.919632,11.424874984461333,0.0924973679730015
4.92202,11.458633053754566,0.0922399229984996
4.924399999999999,11.491180418234302,0.0919949919391693
4.9268,11.517581710847926,0.0917888681932364
4.929183999999999,11.546916269767747,0.0915684275964582
4.931567999999999,11.57145523126182,0.0913713927657749
4.933964,11.590127660143498,0.091204111725442
4.936351999999999,11.606658218651898,0.091052626596235
4.938748,11.62118667641388,0.0909132643324163
4.941144000000001,11.635435594922146,0.0907821567711274
4.943532000000001,11.650475909363326,0.0906524128069029
4.945912,11.667658094177789,0.0905083191920375
4.948312000000001,11.687121918992382,0.0903460809639938
4.950696000000001,11.704863182314286,0.0901872171285647
4.953075999999999,11.717948617837296,0.0900456306348527
4.955472,11.730242657427384,0.0899031276747592
4.95786,11.742956005898057,0.0897490988101467
4.960243999999999,11.751293065823557,0.0896047301200431
4.9626480000000015,11.758838729816135,0.0894600247741438
4.965036000000001,11.766524163435578,0.0893117594166224
4.967420000000001,11.772347265935467,0.0891698023891988
4.969816000000002,11.773654310263325,0.0890402903666757
4.972204000000001,11.778453699404816,0.088881885613162
4.974588000000001,11.791261491531971,0.0886827468700656
4.976984000000002,11.800344621420017,0.0884965309823172
4.9793720000000015,11.80849658574828,0.0883131758639162
4.981752,11.820932290823102,0.0881012855128431
4.984151999999998,11.83099380809917,0.0878866564552518
4.986536000000001,11.837982289442175,0.0876893341541823
4.98892,11.845529849292632,0.0874764270669323
4.991316000000001,11.84921297727711,0.0872801653756097
4.993704000000001,11.847820968582116,0.0871113252017729
4.996084,11.84028288802101,0.0869768197974639
4.998484000000001,11.832605037833044,0.0868462273920873
5.000872000000001,11.826649749137774,0.0867131529296486
5.003256,11.824419122681617,0.086567655848371
5.005652000000001,11.818324064359487,0.0864383080019276
5.008040000000001,11.808224804544528,0.0863288549654859
5.01042,11.797054609542924,0.0862262666961593
5.012823999999998,11.784301622675486,0.0861217520840335
5.015211999999998,11.772759340621548,0.0860060031935205
5.017596000000001,11.762427763381108,0.0858789511475342
5.019991999999999,11.745950114274557,0.0857857717097023
5.022376000000001,11.722674766995835,0.085721264935354
5.024756,11.69925965009026,0.0856605267157458
5.027159999999999,11.677706864304236,0.0855935234128551
5.029547999999998,11.654943373704713,0.085536987710653
5.031932000000001,11.636044314971166,0.085464207053166
5.034327999999999,11.61556246437178,0.0853892965330168
5.036712000000001,11.59307851302598,0.0853238384120892
5.039096000000001,11.573807367240091,0.0852373036970776
5.041492000000002,11.556817861454345,0.0851326874920871
5.0438800000000015,11.545043261974923,0.0849970546216427
5.04626,11.532756805816314,0.0848522424530626
5.048663999999999,11.518608018538142,0.0847131093007542
5.051051999999999,11.503667835327056,0.0845729973943128
5.053432000000001,11.492592083981942,0.0844169588616987
5.055835999999999,11.485101225249078,0.0842527785837712
5.058223999999999,11.477470596889358,0.0840923363474549
5.060607999999998,11.468489494089276,0.0839464083937707
5.063003999999999,11.456155816102418,0.0838247846918884
5.065391999999999,11.441260958861704,0.0837287667291846
5.0677720000000015,11.429159598300323,0.0836237121687686
5.070167999999999,11.41878079923164,0.0835166012403581
5.072555999999999,11.410404100909371,0.0833993781755244
5.074940000000002,11.40188763296025,0.0832861406844116
5.077335999999999,11.395373265757538,0.0831631363918146
5.079723999999999,11.387228884860749,0.0830631437769556
5.082104000000001,11.383880101389712,0.0829444437602782
5.084503999999999,11.383045275344289,0.0828250766561842
5.086891999999999,11.37778693892545,0.0827371614247397
5.089272000000001,11.374251163999311,0.0826475140498528
5.091671999999999,11.368154209819313,0.0825836249579597
5.094059999999999,11.36177771638559,0.0825276119546079
5.096440000000001,11.362478460377762,0.0824360206956611
5.098835999999999,11.363179204369931,0.082344663618301
5.101223999999998,11.362669243548604,0.0822641420365371
5.103608000000001,11.363090448287052,0.0821809645652514
5.106003999999999,11.369517955264753,0.0820700466701951
5.108391999999999,11.377156167055954,0.0819483326084059
5.110772000000001,11.391871616273042,0.0817918338031398
5.113175999999999,11.410731036609825,0.0816123433218088
5.115559999999999,11.427867895453913,0.0814341704445112
5.117940000000001,11.44407358873822,0.0812586771207459
5.120343999999999,11.459208346835888,0.0810899082874234
5.122731999999999,11.474482874560415,0.0809173852700555
5.1251120000000014,11.48668436635189,0.080761262819649
5.127516,11.498374001464164,0.0805958072627158
5.129899999999999,11.507921766203165,0.0804438255778142
5.1322800000000015,11.520542566875218,0.0802770385338957
5.134684,11.537586877920686,0.0800799149461809
5.137072,11.554770958593016,0.0798796617177641
5.139451999999999,11.573305513705703,0.0796648827508749
5.141848,11.597427062177063,0.0794359391722769
5.144235999999999,11.616473473968949,0.0792332231456214
5.146616000000002,11.634309180947334,0.0790413420449264
5.14902,11.650282556806165,0.0788542411824234
5.151408,11.665464536732074,0.0786661484815155
5.153787999999999,11.67156717848568,0.0785200853854227
5.156184,11.682046108784457,0.0783700831232171
5.158572,11.688660607217262,0.0782341537492111
5.160951999999998,11.696485810463562,0.0780887485056322
5.163347999999999,11.708175445575838,0.0779302404758987
5.165735999999999,11.723077886248031,0.0777536268899672
5.168116000000001,11.73891149248,0.0775746337587767
5.170508000000002,11.754605329085113,0.07739968681152
5.1728960000000015,11.76936800013044,0.0772267170335221
5.175291999999999,11.789066038228384,0.0770354491100666
5.177688,11.81276827781916,0.0768281046622356
5.180076,11.831674919984184,0.0766370243538503
5.182459999999999,11.851233188455266,0.0764523249949087
5.184856,11.871722622486129,0.0762664640325742
5.187244,11.893143222076766,0.0760789412103564
5.189623999999999,11.906043562002536,0.0759152142279162
5.192019999999999,11.918943901928314,0.0757517260841899
5.194407999999999,11.93012168036139,0.0755886807325866
5.1967880000000015,11.94609505622022,0.0754114630621865
5.199188,11.966072633571883,0.0752194079035417
5.201571999999999,11.99126511722988,0.0750014040773838
5.203952000000001,12.011010377156063,0.0747930462707884
5.206351999999999,12.035551234508,0.0745715848239893
5.208739999999999,12.0578104518598,0.0743662913663134
5.211120000000001,12.079929899584744,0.0741659291134007
5.213515999999999,12.10298051286946,0.0739652484942967
5.215903999999998,12.128312766154314,0.0737505030162939
5.218284000000001,12.15513526350639,0.0735200205623991
