Time,Force,Position
6.010252,12.607818380368244,0.151370212979057
6.0126,12.62769961820555,0.1511777966944913
6.014944,12.635056394885162,0.1510992074493705
6.019636,12.654979166977103,0.1510806588640328
6.02198,12.682955668025093,0.1510278359157044
6.024328,12.723175195119186,0.15093739301459
6.026676,12.7711689119156,0.1508187683318366
6.029028,12.824190543563244,0.1506738400970158
6.031372,12.88582687853224,0.1504110449027833
6.033712,12.950118836411578,0.1500660904758958
6.036064,13.010688027909676,0.1496918555918451
6.038404,13.057943258175024,0.1493682029502399
6.040752,13.092164066461343,0.1490859699695658
6.0431,13.120892325045478,0.1488047058011287
6.04544,13.142218480979633,0.1485597497455526
6.04778,13.163963945794366,0.1483031294059974
6.050124,13.180726821728245,0.1481128734881384
6.052468,13.200887598819277,0.1479262314435215
6.054812,13.22095393225382,0.1477843681635721
6.057156,13.24893422501754,0.1476132231799885
6.059504,13.286318721177665,0.1473898808353078
6.061844,13.326077405136544,0.1471578057563209
6.064188,13.363461901296663,0.146934760422821
6.06654,13.40331502891203,0.1466614767915205
6.068876,13.432832787571217,0.1464492766723102
6.071232,13.45988381063303,0.1462290576926998
6.073576,13.488192760336588,0.1459739885185875
6.075916,13.512824269629276,0.1457261231888404
6.07826,13.532752729294826,0.1455346480454393
6.0806,13.551982340826076,0.1453644763010482
6.082948,13.569162629782667,0.1452337168423689
6.085288,13.5963062006431,0.1450394660115261
6.087632,13.630060478220596,0.1448169967311809
6.089972,13.668051274716404,0.1445760509861044
6.092316,13.710697899011102,0.1443032915487772
6.094652,13.752692896999742,0.1440305652750416
6.096996,13.80311560685463,0.1436806843640516
6.099336,13.846508301111877,0.1433710628295653
6.101684,13.887434259771746,0.1430516558961607
6.104028,13.928314892461245,0.1426971517368021
6.106368,13.96258481843368,0.1423715237625427
6.108712,13.993037534368382,0.1420537927607758
6.111044,14.025399803250885,0.1417035683471428
6.113388,14.052966474707636,0.1413904193401458
6.115736,14.080533146164386,0.1410763714302772
6.118076,14.10744819131508,0.1407618097984541
6.12042,14.130498804599798,0.140477264581785
6.122764,14.1515473171381,0.1402090005004964
6.125104,14.175064461131644,0.1398931768801154
6.127448,14.1916913591544,0.1396104683900558
6.129796,14.203989190460227,0.1393294732493661
6.132144,14.20530002650382,0.1390984493205257
6.134488,14.198557133591375,0.138894027881459
6.136828,14.184272368402084,0.1387216178483776
6.139172,14.164308062055506,0.138568557201124
6.141516,14.141457711230974,0.1384163368919294
6.143848,14.112648279995431,0.1382902700412765
6.146196,14.0828151354015,0.138153072672927
6.14854,14.05032826375509,0.1380298579801812
6.150884,14.01169532024257,0.1379574473642766
6.153224,13.972690289677711,0.1378752756559691
6.155568,13.935315272806935,0.1377672223352165
6.157912,13.893144658510405,0.1376924951337556
6.160248,13.845526820482068,0.1376507246840497
6.162596,13.798468060961168,0.1375930829548151
6.16494,13.748755574387795,0.1375491893220523
6.167284,13.698391461508365,0.1375030747173012
6.171972,13.589515063136975,0.1374784741455638
6.17432,13.538312332496384,0.1374549780911777
6.176656,13.491206351147245,0.1374161594914032
6.179004,13.445635939835691,0.1373948695551601
6.181356,13.405884839308293,0.1373496262007646
6.183692,13.369439092139425,0.1372909327235194
6.186036,13.334436367209529,0.1372314252356493
6.193064,13.224768572905225,0.1372051190531318
6.195408,13.198144442155469,0.137149512658462
6.197756,13.17603636957774,0.1370666156267037
6.2001,13.158025046291469,0.13696827686412
6.202444,13.140897666736723,0.1368852132785222
6.204792,13.1280068061003,0.1367830785768085
6.207128,13.12321689624815,0.1366330347859544
6.209472,13.120801174194762,0.1364764413539218
6.211812,13.122901510313405,0.1362931090679326
6.214156,13.12537393348438,0.1361194005753577
6.216488,13.132502184454252,0.1359147488816089
6.218828,13.141492766543683,0.1356972170145924
6.221172,13.149132874192752,0.1354979732839396
6.223504,13.155702046655184,0.135308950866893
6.225852,13.17041939173014,0.1350514380450223
6.228192,13.184996967178238,0.1347987817721098
6.23054,13.201157334492173,0.1345429132273852
6.23288,13.221833759978136,0.1342617093501255
6.235224,13.245722991024016,0.1339513469950145
6.237572,13.28148505692154,0.1335501383204342
6.239904,13.320459928378977,0.1331216148122886
6.242248,13.352637101664245,0.1327445597432158
6.244588,13.384814274949512,0.1323691107980857
6.24694,13.415129117115224,0.1320068833804363
6.249276,13.449587930400629,0.1316120503467771
6.25162,13.483255347753117,0.1312201891749784
6.25396,13.51827323954596,0.1308140524799687
6.256308,13.553430900965669,0.1304058963656253
6.258652,13.58551552645232,0.1300235548736389
6.260996,13.622023662312388,0.1296014116628656
6.263344,13.65932319410537,0.1291798811108243
6.265688,13.700766697018048,0.1287268184772067
6.268036,13.748775580677416,0.1282178504107817
6.27038,13.799205873963784,0.1276843440069173
6.272732,13.842838469077982,0.1271992440623482
6.275072,13.88661083381904,0.1267122136650368
6.27742,13.926798305947845,0.1262435813013563
6.27976,13.964192281397311,0.1257931467999314
6.282096,13.99679065942103,0.1253733730376456
6.284444,14.02152040408594,0.125009201290306
6.286784,14.0431771128178,0.1246697367090129
6.289128,14.067255231176652,0.1243052791411368
6.291472,14.087748456923247,0.1239577249113456
6.293816,14.111454488229764,0.1235855405135141
6.296164,14.130784230991113,0.1232332272535729
6.2985,14.151324678565954,0.1228695608511107
6.300848,14.167860924647965,0.1225344457493707
6.303188,14.18546810591661,0.1221922845233571
6.305528,14.205636466439117,0.1218228769588109
6.307868,14.219798524722371,0.1214944032086666
6.310212,14.23251756076665,0.1211659202136482
6.312556,14.241511934571816,0.1208577845460765
6.314896,14.242497905391316,0.1206030603933047
6.317244,14.243344106583953,0.1203525457900317
6.319592,14.248474048523146,0.1200693430112737
6.321928,14.25323190341,0.1197771771552058
6.324272,14.258129527923714,0.1194809117075758
6.32662,14.261584130198452,0.1191831937594395
6.328956,14.268111768406248,0.1188641463955486
6.331296,14.275850111427545,0.1185330352765843
6.33364,14.281074497023225,0.1182083506646642
6.335992,14.284017242618765,0.1179035283215114
6.338328,14.292966290453556,0.1175609642409422
6.340672,14.29390693530268,0.1172691266082194
6.343032,14.292426170524807,0.1170001516929405
6.345372,14.2869412042541,0.1167563740498089
6.347716,14.280664842050475,0.1165132300920879
6.35006,14.26759078167468,0.1163087287937585
6.352404,14.252095311671887,0.1161273957167887
6.35474,14.242606143908349,0.1159082175983282
6.357084,14.235630933570423,0.1156830809814804
6.359428,14.22823641435192,0.1154683506830997
6.361768,14.224426787745664,0.1152391930074325
6.364112,14.218335521139274,0.1150295763895857
6.366456,14.206889578599691,0.1148595579003019
6.3688,14.195024327179526,0.1146999892623838
6.371136,14.18995677393153,0.1145031875194516
6.37348,14.18633224292251,0.1143081260279008
6.37582,14.182707711913492,0.1141131663588184
6.378164,14.178663872023892,0.1139285575174459
6.380504,14.180067255866105,0.1137219943103074
6.382848,14.184543675641368,0.1134957737237686
6.385192,14.182874023550523,0.1133091081221613
6.387524,14.18828160888557,0.1130787931475855
6.389868,14.197041769407388,0.1128216810382239
6.392208,14.207012634742703,0.1125527592515406
6.394552,14.217263039331744,0.1122765131144921
6.396892,14.233379976533174,0.1119675777571322
6.399236,14.248705517801682,0.1116590730378244
6.401588,14.256302195338243,0.1113912821462429
6.403932,14.253516282090386,0.1111724598265901
6.406276,14.248775489924355,0.1109445117277287
6.40862,14.244733545892624,0.1106993798412766
6.410964,14.241250680368337,0.1104400032322249
6.413308,14.240049454844184,0.110161253310103
6.415652,14.23391286226742,0.1099095749924085
6.417988,14.220978571518486,0.109694229217806
6.420328,14.21153662558319,0.1094493940585177
6.422676,14.199952809274617,0.1092193987531565
6.425016,14.18864853221976,0.1089821302789193
6.42736,14.16989493068668,0.1087768534287249
6.429708,14.148208062847404,0.1085868020823295
6.432048,14.126381425381268,0.1083997028651674
6.434392,14.101481751982076,0.1082313122816506
6.436728,14.076442308956024,0.1080659195280327
6.439076,14.055267297795943,0.1078807738000228
6.441428,14.035675078501706,0.1076942788880066
6.443772,14.014080758461049,0.1075187959562653
6.446116,13.99248643842039,0.1073428017137789
6.44846,13.97661888136526,0.1071393888292102
6.4508,13.9675490224823,0.1069005362543171
6.453144,13.963367308823711,0.1066555233972348
6.455488,13.954762084791708,0.1064434041057313
6.457836,13.946156860759702,0.1062310463875239
6.460172,13.936620471167917,0.1060221828028927
6.462512,13.93444085825574,0.1057650781380395
6.464864,13.935613820530342,0.1054826353148183
6.4672,13.932503042058393,0.1052299496148144
6.46954,13.9307427380268,0.104962733934569
6.471884,13.931264073995342,0.1046778755203355
6.474232,13.940445439255612,0.1043527830700898
6.476568,13.952420301195216,0.1040168020482115
6.478912,13.969610069441153,0.1036487969299072
6.481268,13.988662168806648,0.1032740998014053
6.483616,14.007574498545278,0.1029036151227003
6.48596,14.022203087537362,0.1025620589710837
6.488304,14.035760741342798,0.1022277759549525
6.490644,14.04931839514824,0.1018935125626898
6.49298,14.06874258156607,0.1015322226725509
6.495324,14.086024897610624,0.1011855264342165
6.497676,14.104890005521012,0.1008392614840699
6.500016,14.12082184712521,0.1005075763169414
6.502364,14.137405315035462,0.1001782322756461
6.504708,14.156083431490748,0.0998563059883257
6.507056,14.175925030931284,0.0995443994635131
6.5094,14.19306568149111,0.0992611477359513
6.511748,14.20336141205052,0.0990288768613918
6.514088,14.21244643779643,0.0988066375907464
6.51644,14.222974485781318,0.0985881999230134
6.518784,14.231872520072129,0.0983907676845157
6.521128,14.233413777683328,0.0982376979787982
6.523476,14.231090603428555,0.0981013824540997
6.525808,14.226485789173644,0.0979821188822703
6.528156,14.21880793898568,0.0978795078328109
6.5305,14.212573111036686,0.0977804984371291
6.53284,14.210202714953674,0.0976649659546053
6.535184,14.211836520363487,0.0975298830441757
6.537528,14.213982182452504,0.0974016366432842
6.539876,14.208771067861909,0.0973162944499355
6.542216,14.20435134920423,0.0972310276181892
6.54456,14.199931630546557,0.0971458401229878
6.546904,14.1945807463291,0.097063702437456
6.549248,14.1935136028582,0.0969554273389146
6.551592,14.189932501961684,0.0968500679227724
6.553932,14.191194220319163,0.0967058310953985
6.556276,14.192455938676645,0.0965616623335253
6.55862,14.200143268153957,0.0963784193467625
6.56096,14.210763863937462,0.0961825277024234
6.563308,14.218311423787917,0.0960026659410672
6.565644,14.224136422145673,0.0958255990686701
6.567992,14.234524700503702,0.0956160464575557
6.57034,14.24984834591434,0.0953845872746956
6.572676,14.265171991324983,0.0951534787905028
6.575012,14.282637507108902,0.0949095593208064
6.577352,14.294935338414732,0.0946739585000192
6.5797,14.303648277108309,0.094447574139593
6.58204,14.309427949495689,0.0942344107038906
6.584384,14.316046239644228,0.0940016804115526
6.586732,14.327088040166188,0.0937403207555821
6.589068,14.33654704882231,0.0934782218189262
6.59142,14.343212560799092,0.0932251235702045
6.593764,14.356163914268848,0.092938617988785
6.596108,14.36604223180555,0.0926681173920424
6.598444,14.376200088595972,0.092391038200619
6.600788,14.377790463893286,0.0921637083602136
6.60314,14.37872921288454,0.0919326893227072
6.60548,14.375523990756102,0.0917228367294652
6.607824,14.37380901269488,0.0914976000745048
6.610168,14.377588480193715,0.0912390540034155
6.612516,14.385511918812242,0.0909599028436374
6.614852,14.39208488299041,0.0906938570106326
6.617196,14.396515976795303,0.0904404473581126
6.619536,14.401226609853914,0.0901808457054184
6.62188,14.406216782166243,0.0899151450112202
6.62422,14.418144422277608,0.0896213083290838
6.626564,14.43514719906844,0.0893054255984326
6.628908,14.452429515112994,0.0889838058721185
6.631244,14.4720860189563,0.0886654793163909
6.633592,14.487878090933636,0.08836082020756
6.635944,14.506743198844024,0.0880425406827413
6.638284,14.52896088194119,0.0877043952020961
6.640628,14.545312032425969,0.0873890738132741
6.642972,14.56394482291088,0.0870598788681495
6.645316,14.582577613395792,0.0867309202207117
6.647652,14.60577368388098,0.0863725367177342
6.65,14.627247192873472,0.0860155794710127
6.65234,14.653004442612517,0.0856362561561544
6.654684,14.672475850858593,0.0852876545553015
6.657028,14.689945158358247,0.084948985038168
6.659372,14.701547933245516,0.0846310541793255
6.661724,14.7158516570135,0.0842906914757862
6.66406,14.730295150408343,0.0839476306751034
6.666408,14.742736543056772,0.0836124131481492
6.668752,14.752896295705062,0.0832912555241379
6.671096,14.755839041300604,0.0830019321912012
6.673436,14.748771283164062,0.0827504685043057
6.67578,14.74035305058716,0.0825105827697554
6.678124,14.72448549353203,0.0822883055069481
6.68046,14.710480267596456,0.0820610058772227
6.682812,14.696335272034023,0.0818369896561595
6.685156,14.680979571658094,0.0816213906024442
6.687496,14.664413166468664,0.0814135301830821
6.689836,14.647706991652376,0.0812088288761358
6.692188,14.632071752022725,0.0809986265720512
6.694524,14.615645116460154,0.0807871246878473
6.69686,14.606155948696616,0.0805518820528422
6.699204,14.594664680186655,0.0803238155482947
6.701552,14.586525986863478,0.0800766316320302
6.703888,14.574383092047464,0.0798434447704022
6.706232,14.56917766503048,0.0795869010370406
6.70858,14.554473590960606,0.0793722714807302
6.710916,14.538326494651756,0.0791519449029536
6.713264,14.522598707223487,0.0789217231793303
6.715604,14.50715045904894,0.0786847151096192
6.717952,14.494263390128248,0.0784274409540195
6.720296,14.490455659379863,0.0781364967176194
6.722636,14.483202805646084,0.0778460907994222
6.724984,14.48195625415156,0.0775342756506464
6.727328,14.485133213030448,0.0772001547794472
6.729672,14.486447840789776,0.0768701434832685
6.732016,14.483898036683138,0.0765500870187652
6.734356,14.487773843696326,0.0762008132704805
6.736696,14.486062657350844,0.0758619051725647
6.739036,14.484211701378502,0.0755264103987304
6.74138,14.48301237171222,0.0751954578726974
6.74372,14.475806739806687,0.0748849134102523
6.746064,14.469532273460931,0.0745726151892788
6.748408,14.465120138234733,0.0742571498165877
6.750752,14.461918707822033,0.0739330932235798
6.753084,14.451640039983443,0.07363292206049
6.755424,14.45137187587694,0.0733002398692398
6.757764,14.455899309196187,0.0729571016850088
6.760104,14.46214930400813,0.0726139359310101
6.762452,14.473753974753269,0.0722486503320861
6.764792,14.48722097661796,0.0718806292446441
6.767132,14.500827748109511,0.0715115261310335
6.769472,14.522303152959871,0.071121866045254
6.771816,14.542055996317536,0.0707333105756769
6.774156,14.555942307062807,0.0703604856992423
6.7765,14.571458631502162,0.0699719981831402
6.778844,14.594331732621123,0.069556746785575
6.781188,14.612409236314337,0.0691528378943572
6.783528,14.635981185567598,0.0687243810291721
6.785864,14.659041278141665,0.0682891297329201
6.788208,14.681589514036531,0.0678470654582542
6.790552,14.70348612362534,0.06739984226796
6.792892,14.726361120602173,0.0669333403784687
6.795236,14.747653325713166,0.0664645379017508
6.79758,14.76936483970474,0.0659869215636492
6.799928,14.794708468136813,0.0654876118705976
6.802272,14.815955347277432,0.0649839252891955
6.80462,14.831615233059384,0.0644880917867987
6.806972,14.849696528468332,0.0639803837483178
6.809316,14.86084035607825,0.063489528571285
6.81166,14.871984183688168,0.0629996305579935
6.814004,14.878472183499197,0.062515214378771
6.816348,14.880164585884469,0.0620394223881981
6.818684,14.88465048494908,0.0615620651863035
6.821032,14.89300081587966,0.0610786183394054
6.82338,14.897998571623472,0.0606092145017565
6.82572,14.896990025128028,0.0601540754225642
6.828064,14.896633104938642,0.0597036142291255
6.830404,14.89050219993548,0.0592789776277916
6.8327480000000005,14.881577798252987,0.0588556301263357
6.835096,14.871862000637575,0.0584297097094245
6.837436,14.865219238955222,0.0579956363958211
6.839784,14.856806693951924,0.0575795387333182
6.84212,14.847323213761992,0.0571664663977808
6.844464,14.838211820624396,0.0567637241666991
6.846812,14.830822988979495,0.0563630687228335
6.849148,14.822875078827154,0.0559731420814836
6.851488,14.814507859794237,0.0555905613893336
6.853828,14.799715029641485,0.0552276735764925
6.856176,14.787575926541203,0.0548652108356418
6.85852,14.77436588825429,0.0545059333642831
6.860860000000001,14.762738641833211,0.0541507320295559
6.863212000000001,14.750040460225494,0.0537977950623104
6.865548,14.727611314139413,0.0534558364655384
6.867900000000001,14.69810493062744,0.0531264697211703
6.870240000000001,14.669529712675248,0.0527954531880782
6.872588,14.63774168916314,0.0524718089274184
6.874924,14.594220600426253,0.0521601389234781
6.877264,14.545671596838131,0.0518348510746193
6.879616,14.485249758398377,0.0515225593494623
6.881959999999999,14.408019718054366,0.0512300557156288
6.8843,14.307463316887652,0.0509581872987248
6.886644,14.180135431912843,0.0507012939484576
