Time,Force,Position
5.065583999999999,5.447647610448528,0.1818309723224383
5.067964,5.879103676470881,0.1752028394238927
5.070356,6.283563524691139,0.1709920643625239
5.072744,6.654648765817717,0.1682889453642194
5.075123999999999,6.9962710535448265,0.1660306271068783
5.077527999999999,7.307219683058973,0.1641785398226464
5.079912,7.587587202158771,0.1625624955159484
5.082291999999999,7.838537093829478,0.1611914794754643
5.084688,8.0653295903478,0.1599255032546165
5.087071999999999,8.269220722497609,0.1587897288622052
5.089468,8.453328852182333,0.1577579508015337
5.091859999999999,8.627896800559537,0.1566702566888888
5.094248,8.789060135763243,0.1555883881591877
5.096627999999999,8.93388559148726,0.1545567103280456
5.099024,9.067215986985582,0.153469865376797
5.101407999999999,9.184675033713036,0.1523820789253892
5.103804,9.284819709430645,0.1512807698849149
5.106199999999999,9.364437208578495,0.1502158743187346
5.108583999999999,9.423759848582067,0.1491936961233634
5.110963999999999,9.46432319947895,0.1482340206470668
5.11336,9.482260933545298,0.1474561346409146
5.115748,9.484229083468556,0.1468595412219331
5.118127999999999,9.486010241936713,0.1462979479010612
5.120531999999999,9.489047431188736,0.1457683737486228
5.122919999999999,9.495435299769673,0.1452715691669956
5.125299999999999,9.50289220767938,0.14484492207192
5.127696,9.51798353566454,0.1443906862360609
5.130084,9.53353949850066,0.1439751711136796
5.132463999999999,9.546162195030584,0.1435935261575509
5.13486,9.554967681522776,0.1432246585475366
5.137243999999999,9.55776876163359,0.1428425927697509
5.13964,9.548047276444573,0.1425173147365867
5.142035999999999,9.531529988941257,0.1421834748146487
5.14442,9.510591086922393,0.1418289934625852
5.146799999999999,9.478106111133853,0.1415734587799778
5.149196,9.43644924937439,0.1414043219630298
5.151579999999999,9.388366776495095,0.1413249567055894
5.153972,9.342239182533977,0.1412481292571367
5.156367999999999,9.29927717230453,0.1411538861663087
5.158752,9.25547654431392,0.1410919039553044
5.161147999999999,9.216751053002785,0.1409651479520889
5.163544,9.182960928744258,0.1407786364983003
5.165927999999999,9.150149191873757,0.1405489475616527
5.168308,9.11631374164486,0.140301111167767
5.170703999999999,9.08001155581859,0.140035890779668
5.173091999999999,9.042593108835304,0.1397263048063789
5.175471999999999,9.000705825508234,0.1394226847426382
5.177868,8.955932497703213,0.1391191011273481
5.180251999999999,8.91036777396527,0.13881752930981
5.182648,8.865873985413968,0.1384983634935305
5.185039999999999,8.826687650967617,0.1381316907622193
5.187427999999999,8.791970152865051,0.1377540571709886
5.189807999999999,8.758368915919501,0.1374181494227931
5.192204,8.724580687518847,0.1371188796182539
5.194588,8.697822474715837,0.136760493922588
5.196983999999999,8.676231946390917,0.1363615806606691
5.19938,8.663161677730862,0.135869949244741
5.201763999999999,8.646878603510892,0.1354244905728677
5.204148,8.626963414850424,0.135042817757944
5.206552,8.607280543615435,0.1346808971834886
5.208936,8.588481616111979,0.1343418880873535
5.211316,8.566981739727806,0.1340576147367392
5.21372,8.547529290060423,0.1338084839121038
5.216108,8.530124267109834,0.1335948494534391
5.218487999999999,8.513835505316255,0.133426150256319
5.220884,8.50210812766508,0.1332775336805356
5.223267999999999,8.493638881544197,0.1331433256688015
5.225648,8.491640572513518,0.1329776116368378
5.228043999999999,8.4991862365061,0.1327417143298882
5.230428,8.511200736842472,0.1325004353919494
5.232823999999999,8.523168015350599,0.1322940093878458
5.23522,8.539651352030758,0.1320504015296721
5.237608,8.55892818539025,0.1317807032357767
5.239988,8.582161998414332,0.1314972818597857
5.242384,8.604557193677255,0.1312515000131678
5.244767999999999,8.627044936738793,0.131033837569329
5.247164,8.646691961292756,0.1308778462922774
5.249559999999999,8.666850842525914,0.1307301366613251
5.251944,8.690454846744466,0.1305584700988879
5.254323999999999,8.716712578015493,0.1303661012100594
5.25672,8.742271461152217,0.1302036272099158
5.259103999999999,8.772206632834115,0.1300095064756334
5.2615,8.79827737265004,0.1298560732661759
5.263904,8.8278404572796,0.1296473310754184
5.266292,8.861407743401994,0.129392043690935
5.361839999999999,9.366193571221364,0.1292248636545405
5.364236,9.379320540999007,0.1292246077445556
5.366624,9.396172173015763,0.1291921336513077
5.369019999999999,9.41302380503252,0.1291601517429264
5.373799999999999,9.447983099849909,0.1291333763185451
5.376175999999999,9.47479801377051,0.1290258388317129
5.37858,9.502404323624026,0.1289156801836318
5.380967999999999,9.533875065343516,0.1287685368678002
5.383348,9.557477173704198,0.1287020089842991
5.385752,9.583872778744215,0.1286109607106699
5.395296,9.664869015581974,0.1286077860659631
5.397687999999999,9.687492736554638,0.1285800132076611
5.404852,9.756060851749057,0.1285542660803861
5.407244,9.783572717946088,0.128508029485146
5.409632,9.81615972082259,0.128406936530352
5.412023999999999,9.850376737393171,0.1282752359211107
5.41442,9.883802358030838,0.1281470857290529
5.416808,9.917367748295362,0.128014996095276
5.419188,9.952842691507684,0.1278428975990234
5.421592,9.997676512146032,0.1275713145713824
5.42398,10.03399007311952,0.1273735114594143
5.426359999999999,10.07244550446628,0.12715263182769
5.428756,10.106245108014152,0.126967329398579
5.431139999999999,10.144188682681715,0.1267381170127887
5.43352,10.184553666976278,0.1264763989723686
5.435915999999999,10.23283450645789,0.1261158627128356
5.438303999999999,10.28381629482022,0.1257143268753827
5.4407,10.334565765757072,0.1252950549227477
5.443092,10.384151753708672,0.124867828735399
5.44548,10.42801097867474,0.124488765178509
5.44786,10.467493915095634,0.1241343243137579
5.450256,10.512890605957164,0.1237023094137916
5.452639999999999,10.558846375326135,0.1232532250747632
5.455036,10.599354920963297,0.1228428936707496
5.45744,10.640562314734758,0.122412568617315
5.459823999999999,10.675763406266968,0.1220397950163404
5.462204,10.709381705933342,0.1216715741377073
5.464608,10.738483947427683,0.1213310889947166
5.466996,10.758506850749724,0.1210747732357932
5.469375999999999,10.768938559220258,0.1208947131529558
5.471772,10.780580972504294,0.1206984675446607
5.474155999999999,10.788918032429793,0.1205142690208998
5.476535999999999,10.799536732355431,0.1203023707367189
5.47894,10.807361935601731,0.1201101639340368
5.481328,10.8123936421687,0.1199379669029997
5.483708,10.80983625463058,0.1198217387491379
5.486103999999999,10.80006186003971,0.1197734455443617
5.488491999999999,10.790427235075702,0.1197202068298923
5.490872,10.775857243059082,0.119707897307904
5.493271999999999,10.764639826229242,0.1196574545414471
5.495656,10.75677498458617,0.1195689361586012
5.49804,10.740901739957437,0.119549481406214
5.500432,10.722514537903084,0.1195387057154987
5.50282,10.70640897584887,0.1195008925901496
5.5052,10.68750991711532,0.1194807526592162
5.507596,10.670380641702714,0.1194257937333466
5.509983999999999,10.650877178491353,0.1193748019977923
5.51238,10.637380017519238,0.1192727120909875
5.514776,10.62923753248032,0.1191162593994922
5.517159999999999,10.62123481706826,0.1189544626823084
5.519539999999999,10.614442806469697,0.1187770693883632
5.521939999999999,10.60564869512472,0.11861620003608
5.524327999999999,10.596063187846823,0.1184565097140556
5.526707999999999,10.587828155009284,0.1182762521803006
5.529107999999999,10.578801726238831,0.1180971527091264
5.531492,10.571497858961074,0.1179101016463392
5.533871999999999,10.570619602803148,0.11765747309951
5.536268,10.56988111627208,0.1174002848773048
5.538651999999999,10.574077996793624,0.1171025581751149
5.541048,10.575201841382112,0.1168326505321684
5.543443999999999,10.575394520410825,0.1165693297721335
5.545831999999999,10.58001070981295,0.1162572513493353
5.548216,10.583555964028433,0.1159555157859506
5.550607999999999,10.58230562081817,0.1156882459358189
5.552996,10.579844572794403,0.1154364963193861
5.555387999999999,10.576684676636338,0.1152087613621039
5.557791999999999,10.577109673090527,0.114961702608345
5.560179999999999,10.570597201745684,0.1147705293905222
5.56256,10.561942860027568,0.1146006885940532
5.564964,10.557292719802284,0.1143973900079643
5.567352,10.550640478830582,0.1142106321480664
5.569732,10.547852669724854,0.1139953634482412
5.572127999999999,10.545856256552044,0.113778906937199
5.574512,10.545861944125653,0.1135466721388274
5.576891999999999,10.544005300579702,0.1133253996120506
5.579288,10.543359361847251,0.1130887911206094
5.581676,10.539500617554884,0.1128839942575705
5.584056,10.535362334008797,0.1126887105605355
5.586452,10.53043265452979,0.1124945742640243
5.588839999999999,10.5275050757972,0.1122841391360581
5.59122,10.524437727437752,0.1120785156862787
5.593615999999999,10.52295317094414,0.1118715803143158
5.596003999999999,10.526124442249422,0.1116373157873851
5.598383999999999,10.532601066913235,0.1113941681056488
5.600783999999999,10.53707559083063,0.1111660702235245
5.603168,10.538896387695551,0.1109494981830731
5.605551999999999,10.536712983067638,0.1107644742618264
5.607944,10.53653167918614,0.1105625612668998
5.610336,10.534488044185087,0.1103713439531494
5.612731999999999,10.532304639557177,0.1101853042260315
5.615128,10.528910530115766,0.1100139811248597
5.617512,10.525656190301216,0.1098382422535744
5.619895999999999,10.522262080859806,0.1096672624220133
5.622292,10.5135132954852,0.1095474606264115
5.62468,10.510071964215548,0.1094039950187648
5.62706,10.507142489625087,0.1092693326159182
5.629455999999999,10.503002310221133,0.1091493107338978
5.631843999999999,10.498722361190318,0.109034004582351
5.634224,10.490018901786089,0.1089640586563824
5.636628,10.480104737568356,0.1089089440589591
5.639016,10.468700329283408,0.108878215879217
5.641396,10.4571561513716,0.1088518388821445
5.643799999999999,10.44253893752674,0.1088506886363689
5.646184,10.430203363682011,0.1088244576277037
5.648567999999999,10.424805257636317,0.1087467468583278
5.650964,10.421781339389376,0.1086669541149658
5.653352,10.423553018568182,0.1085557698237904
5.655731999999999,10.427978424799466,0.1084332619143302
5.658128,10.438782220322338,0.1082785623222791
5.660511999999999,10.448235541404848,0.1081435501919173
5.662896,10.461413524726476,0.1079875810153807
5.665291999999999,10.471890559167385,0.1078702861149013
5.667679999999999,10.482367593608291,0.1077531149616021
5.670076,10.499502556594509,0.1075948468823255
5.672471999999999,10.511981691781832,0.1074630871387924
5.674859999999999,10.52352966140938,0.1073368473023492
5.677239999999999,10.53815066696998,0.1071856878403758
5.679636,10.551840506970803,0.1070396904118838
5.682024,10.574469915517074,0.1068288376511534
5.684408,10.59989282074268,0.1066030299617155
5.686803999999999,10.625595265222003,0.1063672834148668
5.689192,10.648504213021996,0.106147921094745
5.691571999999999,10.666338024142512,0.1059669078974102
5.693975999999999,10.681238568956832,0.1058068132048899
5.69636,10.689993041905042,0.1056968049770196
5.698739999999999,10.700237758920473,0.1055634285594112
5.701136,10.708480375189488,0.1054453405272098
5.703524,10.716722991458502,0.1053276400603272
5.705904,10.718447448809068,0.1052454079354499
5.708307999999999,10.71751817910716,0.1051735064854706
5.710695999999999,10.712864247166136,0.1051217888661519
5.713075999999999,10.712773595225388,0.105022477496435
5.715472,10.71296248253836,0.1049140434318338
5.71786,10.706493441306025,0.1048451892936738
5.720239999999999,10.70509953675316,0.1047378007213164
5.722636,10.70184330108074,0.1046401742370604
5.725019999999999,10.69844729578146,0.1045472483655845
5.727416,10.697053391228598,0.104439924477136
5.72982,10.688722018876708,0.104380645272053
5.732208,10.678388545778398,0.1043356077895401
5.734587999999999,10.668846468613006,0.1042902184177904
5.736984,10.656882981820615,0.1042728499505855
5.739372,10.653067667640755,0.1041934600793848
5.741752,10.649764210140091,0.1041228022063163
5.744147999999999,10.647531687826064,0.1040424913064717
5.746535999999999,10.64501962625832,0.1039714332122862
5.748916,10.641296859877077,0.1039143659210598
5.751311999999999,10.637853632749549,0.1038482196639825
5.7537,10.63813506786114,0.1037624773653006
5.756079999999999,10.641861625958123,0.1036661554063342
5.758476,10.650383781480857,0.1035411012943477
5.760859999999999,10.6535512610704,0.103463372971319
5.763256,10.655228496592724,0.1034086860524084
5.765651999999999,10.66090993360788,0.1033253689133088
5.768036,10.662028090622762,0.1032889491798599
5.770415999999999,10.668873010623171,0.1032193022856362
5.772812,10.676928635437084,0.1031362806845789
5.775195999999999,10.684704720997274,0.1030625836719683
5.777592,10.694343137677023,0.1029791962630336
5.779988,10.70440086323735,0.1028824149129951
5.782375999999999,10.717811163984454,0.1027541661657254
5.784756,10.73750730622453,0.1025753601399784
5.787148,10.754130412531548,0.1024205981516812
5.789536,10.772103993278924,0.1022480706464083
5.791931999999999,10.793662466638557,0.1020620846531149
5.794328,10.811356508132214,0.1018986942285212
5.796711999999999,10.832542894439507,0.1016996570171509
5.799092,10.849445540000248,0.1015366639465084
5.801496,10.86448585444143,0.1013830594913645
5.803884,10.880085247390053,0.1012121824245197
5.806263999999999,10.89289114365934,0.1010558948412092
5.808667999999999,10.909841011048323,0.1008682327478578
5.811052,10.929072518437442,0.1006582899804499
5.813431999999999,10.948164256199702,0.1004536055991255
5.815835999999999,10.968746238029182,0.1002264361727897
5.818223999999999,10.982390752059633,0.1000444150137521
5.820604,10.991751525343524,0.0998981776054315
5.823008,11.00246277306778,0.0997349358558859
5.825396,11.014524495232392,0.0995544483802354
5.827776,11.028169009262845,0.0993746197272407
5.830171999999999,11.040463048852937,0.0992136147713453
5.832559999999999,11.045679851017134,0.0991003555848226
5.83494,11.050896653181336,0.0989871663186504
5.837335999999999,11.05411135459912,0.0988870630959792
5.839724,11.051878832285094,0.0988084912120676
5.842103999999999,11.058446108889656,0.0986786089153348
5.8445,11.06380268068072,0.0985622434016271
5.846888,11.077307425084308,0.0983910563529537
5.849271999999999,11.094676601353868,0.0981994597225529
5.851675999999999,11.109764137623294,0.0980293478085644
5.854063999999999,11.12364096907922,0.0978719490722241
5.856444,11.132582433482536,0.0977439219491132
5.858848,11.139661566766293,0.0976243891769408
5.861236,11.146740700050051,0.0975051924123821
5.863612,11.156753099640008,0.0973700671793427
5.866012,11.173842736655848,0.0971896792590837
5.868395999999999,11.194284948858469,0.0969800001365146
5.87078,11.210443420314531,0.096803812608904
5.873175999999999,11.226322352516876,0.0966368548059297
5.875563999999999,11.238336852853248,0.096490331723952
5.877939999999999,11.245555755763863,0.0963680969129347
5.88034,11.257849795353955,0.0962125274071555
5.882724,11.272285705317326,0.0960410446648819
5.885107999999999,11.288863485653968,0.0958533798614084
5.887507999999999,11.308374532296808,0.0956490443844713
5.889896,11.32029648483456,0.0954820930568477
5.892275999999999,11.331007732558817,0.0953278430029051
5.894672,11.337575009163375,0.09520299742921
5.89706,11.341348789088602,0.0950902392385415
5.89944,11.347404209013966,0.0949573643074079
5.901835999999999,11.356812204126106,0.0947966530766402
5.904223999999999,11.371435105544576,0.0946002745883413
5.90662,11.389922438829023,0.094385420006251
5.909015999999999,11.405895814687852,0.0941737156895845
5.911403999999999,11.417213362747791,0.0939814518325034
5.913784,11.42201275188928,0.0938157454203055
5.916179999999999,11.426951910657632,0.0936464839243662
5.918567999999999,11.4333813134932,0.0934566481074221
5.920952,11.438227924462934,0.0932660853759989
5.923347999999999,11.444564779499888,0.0930549817876568
5.925735999999999,11.453462813790695,0.0928152954463902
5.928115999999999,11.464642488081644,0.0925573246367042
5.930512,11.47209750013348,0.0923141963151284
5.9329,11.477829950692618,0.0920745082746672
5.935283999999999,11.483841940505476,0.0918269199840278
5.93768,11.490133469572054,0.0915705446046564
5.940068,11.495121746026518,0.0913045793278744
5.942447999999999,11.49494233800289,0.0910468848397389
5.944844,11.493180138113429,0.0907877893171948
5.947232,11.492908182291185,0.0905096730509657
5.949627999999999,11.48770085941633,0.0902570643464682
5.952024,11.480770975048776,0.0900077047356039
5.954412,11.467183162135916,0.0897861224133889
5.956792,11.454666284409695,0.0895564870592519
5.959192,11.44401173780303,0.089319680158817
5.961575999999999,11.435219522315922,0.0890753991044218
5.963956,11.423494040522618,0.08884512040147
5.96636,11.411908328356173,0.0886103433834895
5.968743999999999,11.40046238581659,0.0883710661220309
5.971124,11.390878774396564,0.088125087191386
5.973528,11.38488005558879,0.0878704456007293
5.975916,11.374085739355264,0.0876362470960407
5.978296,11.366364459054797,0.087384114975284
5.980699999999999,11.359574344314105,0.0871286537394625
5.983087999999999,11.352923999200272,0.0868692178157405
5.985467999999999,11.348927381138914,0.0866043225562709
5.987871999999999,11.346932863823971,0.0863289514648794
5.990255999999999,11.350385570240844,0.0860383692175165
5.992635999999999,11.356631773337048,0.0857387084656264
5.99504,11.358454466059838,0.0854718774116884
5.997427999999999,11.363210425088823,0.085191435692028
5.999808,11.364474039304172,0.0849398262183318
6.002203999999999,11.369741855012355,0.0846673761433155
6.004591999999999,11.37473013146682,0.084402869619428
6.006971999999999,11.377716307174865,0.0841482248155328
6.009371999999999,11.379631547696272,0.0839002028077952
6.011756,11.384200515270155,0.0836472476154161
6.014135999999999,11.390631813963592,0.0833887496376984
6.016539999999999,11.395712638216676,0.0831449681686136
6.018924,11.397580656909838,0.0829222119332473
6.021303999999999,11.392511207803976,0.0827320964197295
6.0237,11.385671975377171,0.0825686410402198
6.026088,11.37641133332337,0.0824272610444402
6.028468,11.367522778321906,0.0822992382292545
6.030871999999999,11.358866540745916,0.0821885824528116
6.03326,11.346997497610015,0.0820985700463697
6.035639999999999,11.333218901526312,0.082039637109149
6.038043999999999,11.319300535815753,0.0819845599339205
6.040431999999999,11.30417146529169,0.0819401058661614
6.042812,11.29369822256652,0.0818814940967193
6.045216,11.284016375774268,0.0818239976123074
6.047604,11.27940966566149,0.0817405401171999
6.049984,11.275454581854769,0.0816623720122337
6.052379999999999,11.270568332488269,0.0815867595709254
6.054767999999999,11.268615349427964,0.0814988794367826
6.057148,11.270526798233634,0.0813961938645075
6.059552,11.271507081479523,0.081296360936696
6.06194,11.267272458419082,0.0812257756194025
6.06432,11.265179705731915,0.081141698466701
6.066723999999999,11.264157888231392,0.0810507417151866
6.069111999999999,11.269002603343257,0.0809355760662098
6.071491999999999,11.277479432895616,0.0807879427963451
6.073888,11.284885327261335,0.0806466615079232
6.076276,11.290708429761224,0.0805027710328821
6.078655999999999,11.295088510022133,0.0803522512938074
6.081052,11.30161046065632,0.0801881036168838
6.083435999999999,11.310973129798086,0.0799905154203422
6.08582,11.319404633380072,0.0797959924214839
6.088215999999999,11.327696367335198,0.0796056557425781
6.0906,11.329190403118156,0.0794417255668955
6.092979999999999,11.327751172594915,0.0792896320717942
6.095376,11.32337867576548,0.0791495499561742
6.097764,11.314862207816354,0.0790317497653132
6.100144,11.3089994669197,0.0789100508056969
6.102547999999999,11.303788352329104,0.0787940351004152
6.104936,11.29657513699209,0.0786872535768058
6.107315999999999,11.290293087214856,0.0785779679326808
6.109712,11.294812937102623,0.0784254673852878
6.112095999999999,11.303057449229508,0.0782638507073644
6.114476,11.314235227662584,0.0780913453655481
6.116883999999999,11.323271135722386,0.0779321229937888
6.119268,11.335891936394438,0.077768228447125
