Time,Force,Position
5.029932,8.667157213966897,0.1554644125198492
5.032312,8.790512952414163,0.1550411989420411
5.034720000000001,8.902838265486684,0.1545801026175421
5.037104,9.000548260572215,0.1541246653341139
5.039484000000001,9.086064347297748,0.1536198264691166
5.04188,9.14951579155806,0.1532085417662988
5.044264000000001,9.190762823726288,0.1528953525589196
5.046644,9.214693589026805,0.1526313433081122
5.049048,9.226149010855732,0.15240511865291
5.056220000000001,9.205204421263264,0.1523299508876006
5.058608,9.2067872131291,0.1523213547140261
5.060988000000001,9.226387015854815,0.1521633085483944
5.06338,9.254644952014392,0.151990015753983
5.065767999999999,9.29575221455576,0.1517129938229965
5.068148,9.34561205418747,0.1513561380669993
5.070552,9.39668259863268,0.1509774456918012
5.07294,9.444587559346216,0.150616327374426
5.0753200000000005,9.49407720778346,0.150162830096051
5.077716,9.53756244983932,0.149702624511746
5.080104,9.572761645513662,0.1492754764194901
5.082479999999999,9.600046881858823,0.1488925950207791
5.084888,9.622024664099037,0.148558140683679
5.087272,9.640277784100132,0.1482652242216957
5.089652,9.660765322273123,0.1479654468111718
5.092056,9.680274473058091,0.1477065158556874
5.094444,9.697734301268405,0.1475032001443985
5.096824000000001,9.721432749143444,0.1472448477145571
5.099224,9.749507485563656,0.1469482816959152
5.101612,9.780003631610862,0.146608120523119
5.103996,9.810174912433974,0.146227309638883
5.1063920000000005,9.83373548654002,0.1458918626286899
5.10878,9.851244432436443,0.1455816492790452
5.111160000000001,9.86484362049652,0.1452630769133141
5.113556,9.86582579960028,0.1450578102815483
5.115944,9.860848898293034,0.1448950385547533
5.118324,9.856151536239503,0.144721427791867
5.120728000000001,9.85452721011903,0.1445095255132831
5.123116,9.850062165490982,0.1443546557067352
5.125496000000001,9.84885525239322,0.1442093589323192
5.127892,9.848904370079334,0.1440970491376008
5.130275999999999,9.851839532243398,0.1439813293810047
5.132672,9.858778895900295,0.1438183824087167
5.135076000000001,9.866789194743834,0.1436413069265102
5.1374640000000005,9.872565075415476,0.143469131240518
5.13984,9.874756063474866,0.1433270017065031
5.142248,9.878437295601476,0.1431534272545703
5.1446320000000005,9.875320829555916,0.1430549716702504
5.147012000000001,9.871692506831158,0.1429490957600603
5.149408,9.86834372336012,0.1428321753798797
5.151796,9.86429609175478,0.1427428128206838
5.1541760000000005,9.86103985608236,0.1426497786992281
5.15896,9.846564307722227,0.142610182082023
5.161344000000001,9.84377270690076,0.1425537828524039
5.163736000000001,9.84591647313191,0.1424414228803111
5.166124000000001,9.847268843430138,0.1423327504770211
5.168500000000001,9.84596748667589,0.1422454396909867
5.170896,9.841872633242309,0.1421846845613054
5.173284,9.83782500163697,0.1420944483778631
5.175680000000001,9.833684822233014,0.1419801116589009
5.178076,9.8301037213365,0.1418439894348938
5.180464,9.822937727827734,0.1417376590582425
5.182844,9.813118007266487,0.1416521022309676
5.185239999999999,9.805579926705384,0.1415322693840221
5.1876240000000005,9.808192119503222,0.141292503354627
5.190004000000001,9.809873146741284,0.1410613922432313
5.1924,9.818771181032094,0.1407428909434735
5.194788,9.8293917768156,0.1404138193538928
5.1971680000000005,9.838522128531888,0.1401150259217568
5.199572000000001,9.843788048382203,0.1398555053434042
5.201960000000001,9.85291840009849,0.1395572636209623
5.2043360000000005,9.858044550321946,0.1393023518523069
5.206732,9.867035132411372,0.1390076614846241
5.209116000000001,9.877096649687438,0.1386997691597441
5.211496,9.884736757336508,0.1384317124285239
5.213912,9.891026390545216,0.1381883281236384
5.216296000000001,9.894754844500069,0.1379882002715496
5.218675999999999,9.903278895880671,0.1377395046954785
5.221072,9.909101998380558,0.1375407395843554
5.223456,9.916507892746282,0.1373358255416074
5.225836,9.9232149389777,0.1371585813566189
5.2282280000000005,9.93429827375429,0.1369501819109679
5.230612,9.949618127449195,0.1367162492515147
5.232992,9.96782402562205,0.1364828808608942
5.235388,9.973598010435824,0.1363983052469921
5.2377720000000005,9.982817118234989,0.1362915533258351
5.242568,9.986122471593523,0.1362745908015059
5.2449520000000005,9.989707364205778,0.1362471748552333
5.247332000000001,9.999298559057282,0.1361549610585333
5.249747999999999,10.006747883535509,0.1360903421085247
5.2521320000000005,10.02313677655918,0.1359318613233206
5.254528,10.036732172903516,0.1357982284107764
5.256932,10.050187799620993,0.1356707428376366
5.259316000000001,10.066996001525244,0.1354996410662176
5.261696,10.085946073802775,0.1353025062261433
5.264092000000001,10.111181987573271,0.1350319594050595
5.266476,10.136837210224355,0.1347484505466433
5.268856,10.163982676942656,0.1344358718005304
5.271248000000001,10.19154745254154,0.1341092899171307
5.273636000000001,10.218088514782028,0.1337676087881882
5.276032,10.24197584997004,0.1334460320293067
5.278424,10.264420162919071,0.1331267532650063
5.280808,10.282627956949796,0.1328316846565951
5.283188,10.311917189899244,0.1324217185987788
5.285584000000001,10.33883223504994,0.1320215349512769
5.287972000000001,10.36588704982749,0.1316149413853823
5.290363999999999,10.40109003721757,0.1311254704356027
5.29276,10.435361859047871,0.1306478568003545
5.295148,10.466420875318256,0.1302101995087778
5.297528000000001,10.49454662528245,0.129799356006559
5.299928,10.518668173753808,0.1294307852850829
5.302316,10.542230643717724,0.1290812648254748
5.304696000000001,10.563651243308364,0.1287567298568506
5.307087999999999,10.581859037339088,0.1284709507467816
5.309476000000001,10.598716356929453,0.1282078397644102
5.311872,10.610498539840348,0.1279963373349416
5.314276,10.618788377937603,0.127831648688437
5.31666,10.62894054715442,0.1276533566887829
5.31904,10.637882011557732,0.1274925240079134
5.321435999999999,10.647055793386524,0.1273492472640969
5.323824000000001,10.656089805588456,0.1272110827887934
5.326204,10.66391311297689,0.1270902111282264
5.328608,10.675321312977577,0.1269467253341312
5.330991999999999,10.68193391555251,0.1268440128906714
5.333372,10.689198144433504,0.1267444493209558
5.335772,10.699675178874411,0.1266100552449426
5.338156000000001,10.700141709583235,0.1265685025553989
5.340535999999999,10.698606139545642,0.1265454121463623
5.342932,10.69814150469469,0.126510759292324
5.345316,10.702472467269486,0.1264376435001235
5.347696,10.708945300217556,0.1263418454268967
5.350092000000001,10.717048146859712,0.1262152706062414
5.352476,10.728363799061782,0.1260546139653078
5.354856000000001,10.739539681636993,0.1258988176640983
5.3572560000000005,10.751414412346502,0.1257193022413495
5.35964,10.767433114175706,0.1254990923140947
5.36202,10.788666722311245,0.1252278615430931
5.364436,10.808037999327222,0.1249709905707822
5.36682,10.82941137708962,0.1246973557597359
5.369216000000001,10.851343833359458,0.1244050324008994
5.371608000000001,10.874347224815931,0.1241022677904657
5.373996000000001,10.895208745899131,0.1238212129425125
5.376372000000001,10.912485374370076,0.1235624414243353
5.378768,10.929622233214165,0.1233087131786404
5.381152000000001,10.94703863131197,0.123046634948335
5.383532,10.9623131590365,0.1228077695815181
5.385943999999999,10.984944463440636,0.122496265309992
5.388332000000001,11.007715537471636,0.1221804827348974
5.390712,11.026761949263522,0.121889649875003
5.393116,11.043573942883512,0.1216008231876238
5.395504,11.057312900570448,0.1213409171539004
5.397884,11.072914189376942,0.1210697050517209
5.400276000000001,11.088235938929714,0.1208093999580049
5.40266,11.104116766989929,0.1205310104068084
5.4050400000000005,11.120788990983057,0.1202521533468113
5.407436,11.135738653483491,0.1199821860139986
5.409820000000001,11.145241092252116,0.1197448997216147
5.4122,11.151950034341407,0.1195251529423753
5.414596,11.156936414938004,0.11931347885318
5.41698,11.161783025907738,0.1191065970220813
5.41936,11.166909176131188,0.1188913014037093
5.421755999999999,11.173665340048723,0.1186468618256152
5.424144000000001,11.179909647287058,0.1183943418121985
5.426524,11.184431393032698,0.1181487630169704
5.428920000000001,11.184017771725724,0.1179414407002173
5.431304,11.184163228926192,0.1177160043789625
5.433684,11.181375419820464,0.1175134020721587
5.436100000000001,11.1770048188489,0.1173131151987363
5.438484,11.178920059370308,0.1170555067737175
5.440864,11.17748272470494,0.1168329863745662
5.44326,11.176604468547014,0.1165920636395303
5.445644000000001,11.174934816456163,0.1163531104835953
5.448023999999999,11.170099580633648,0.1161189872671394
5.45042,11.162191308878077,0.1159105230468706
5.452804,11.152560475629803,0.115708817961426
5.455184,11.141579167941178,0.1155261098144588
5.457580000000001,11.129387155439051,0.1153575088054899
5.459968000000001,11.121199344429757,0.1151568876485731
5.462352,11.113011533420464,0.1149562177129297
5.464764,11.107105362411309,0.1147310621116998
5.467152,11.097055220282456,0.1145414479137043
5.469536000000001,11.0887276396463,0.11434512888992
5.471928000000001,11.08263447718204,0.1141500521188617
5.474316000000001,11.07654131471778,0.1139544418533402
5.476696,11.077385620052551,0.1137064143570175
5.479088,11.075528976506604,0.1134962766558463
5.481476,11.071111153706797,0.1133195560110432
5.483856,11.068276122772826,0.1131405931897064
5.486268,11.059946646278805,0.1130163930241754
5.488652000000001,11.054550436090972,0.1128708949369582
5.491032,11.050317708888398,0.112736992877092
5.493448,11.04180124093927,0.112642948333547
5.495836,11.03365686004248,0.112561282435088
5.498216,11.028166206198163,0.1124674908670478
5.500628,11.023978804965964,0.1123808241474838
5.503016,11.02272467003996,0.1122732761723582
5.505396,11.025986593285989,0.1121429016488343
5.5078000000000005,11.028689438024577,0.1120309554863591
5.510184,11.03111274350944,0.1119281294284394
5.512568000000001,11.02925230824775,0.1118649624271664
5.514964,11.032187470411811,0.1117703818199475
5.517352,11.036053798135656,0.1116709045639409
5.519732,11.037126629180165,0.1115873416311767
5.522124000000001,11.044997158396844,0.1114582893517177
5.5245120000000005,11.049794651680465,0.111354494774225
5.526892000000001,11.05808448977772,0.1112128181928232
5.529304000000001,11.068655967875117,0.1110470618749794
5.5316920000000005,11.080018841905424,0.1108809261067709
5.534072000000001,11.093523586309011,0.110695203103065
5.536468,11.10809926589924,0.1105004555779964
5.538851999999999,11.124304959183547,0.1102795376831873
5.541248,11.14451485396069,0.1100288285849349
5.543640000000001,11.16565591429761,0.1097728911706401
5.546028000000001,11.190940945754225,0.1094851435286448
5.548407999999999,11.210778753479026,0.1092224305125302
5.550804,11.226891898964716,0.1089805812419274
5.553188,11.24142225258457,0.1087409707788252
5.5555840000000005,11.25851378545828,0.1084708764047767
5.55798,11.274953692025932,0.1081971127013183
5.560364000000001,11.29739990083284,0.1078814849099818
5.562744,11.319194483333684,0.1075638962090111
5.565148,11.336984864341698,0.1072751233833683
5.567536,11.359850382029183,0.1069497752767481
5.569916,11.3759182015445,0.1066687185580477
5.572312000000001,11.393056956246456,0.1063793276677334
5.574696,11.412058042067963,0.1060824986377095
5.577076000000001,11.433200998262754,0.1057690123735799
5.579479999999999,11.453552558524622,0.1054566260552753
5.581868000000001,11.476185758786633,0.1051236794079339
5.584248,11.500681290168195,0.1047837470798569
5.58664,11.521824246362986,0.1044755007718425
5.589028,11.541244641065076,0.104172666409339
5.591408,11.562946675767304,0.1038494104868199
5.593812000000001,11.578782177857146,0.1035626485273328
5.5962000000000005,11.603417478865572,0.1032235000591354
5.598576,11.634059082113248,0.1028470133174044
5.600972,11.66577162054756,0.1024634833052011
5.603356000000001,11.691338087115762,0.102123649723355
5.605735999999999,11.71983781999016,0.1017680051338241
5.608132,11.74140008506553,0.1014558991962819
5.610516,11.76189141495426,0.1011532896361217
5.612896,11.783593449656488,0.1008376445624376
5.615291999999999,11.802222448425663,0.1005445418843408
5.617676,11.82592658387431,0.1002192124953466
5.620056000000001,11.848839323390038,0.0998951279291824
5.6224680000000005,11.867747861412932,0.0995970386097406
5.624856,11.882791967569856,0.0993200674971898
5.627236000000001,11.897184447420717,0.0990392598072954
5.629627999999999,11.907572725778747,0.0987833902926966
5.632016000000001,11.912234241151248,0.0985560096433487
5.634392000000001,11.918386000590964,0.0983084688537245
5.636788,11.92640009115024,0.0980532713027989
5.639176,11.932551850589958,0.0978068616289038
5.6415560000000005,11.941776645962731,0.097540704840257
5.643952,11.95034981502945,0.0972726787126833
5.64634,11.951194120364216,0.0970436278807816
5.64872,11.949896555325708,0.0968303065910797
5.651116000000001,11.95502460140703,0.0965707029290504
5.653504000000001,11.954565654129686,0.0963335257441618
5.655884,11.958390447598893,0.0960652748788131
5.6583,11.960352909948543,0.0958043035278385
5.660688,11.968461444164303,0.0955066804764774
5.663068,11.976989287260649,0.0951976340931738
5.665464000000001,11.98058176330438,0.0949153118058515
5.667848,11.983382843415187,0.0946328132766632
5.670232,11.984740901287024,0.0943450418036407
5.672628,11.989171995091915,0.0940387822820393
5.675016,11.99267192333703,0.0937357237829801
5.677396000000001,11.99831372195542,0.0934175954654989
5.679808,12.007447865387446,0.0930688923452052
5.682196,12.01336920325956,0.0927421753496649
5.684576000000001,12.01877868445247,0.0924079176922886
5.686972,12.020323733779412,0.0920907875340064
5.689356000000001,12.020285991240517,0.0917730854469348
5.69174,12.017454752022282,0.0914667007912618
5.694135999999999,12.018627714296882,0.091138280465851
5.6965200000000005,12.02315325175826,0.0907847983601622
5.698900000000001,12.021392947726664,0.0904711778876961
5.701296,12.02521963705374,0.0901375700243553
5.703679999999999,12.025181894514844,0.0898208739145206
5.7060640000000005,12.027286022349225,0.0894896750743937
5.70846,12.022312912757714,0.0891976645670635
5.710852,12.014546306486872,0.0889147482032689
5.7132320000000005,12.005988304283113,0.0886301860534782
5.715644,11.99607982763899,0.08835992194267
5.718032,11.989756243607122,0.0880805532420082
5.720415999999999,11.981430558828835,0.0878114277782533
5.722812,11.97403603961033,0.0875386612277257
5.725196,11.964499650018546,0.0872795334721981
5.727576,11.95454395154618,0.0870320275519141
5.729992,11.949942929007008,0.086749803379049
5.73238,11.94320003609456,0.0864811000704208
5.7347600000000005,11.94446554616778,0.0861732416837869
5.737172,11.944520351427505,0.0858757363735893
5.73956,11.938289315194252,0.0856142204197997
5.7419400000000005,11.930056178214585,0.0853621702314459
5.744344000000001,11.91875000530186,0.085126745779446
5.746732000000001,11.910656637949051,0.0848705249787114
5.749111999999999,11.898698838730272,0.0846296530126163
5.751508,11.888603370631047,0.0843823445082348
5.753896,11.875434866598766,0.0841507617360515
5.756279999999999,11.857330995513877,0.0839398937147006
5.758684,11.842812017041236,0.0837209705061371
5.761068000000001,11.831086535247934,0.0834929540403231
5.763452,11.820571758268128,0.0832537811910488
5.765848000000001,11.806332319049208,0.0830254633013999
5.768232,11.79209287983029,0.0827966903867216
5.770616,11.782509268410262,0.0825544506077492
5.7730120000000005,11.773856822550016,0.0823089423655218
5.775396,11.76320227594335,0.0820724323373431
5.777776,11.749334923776772,0.0818556852190512
5.780171999999999,11.738400837916384,0.0816267719192049
5.7825560000000005,11.722391615376528,0.0814228278876691
5.78494,11.709036119889143,0.081214635524179
5.787336000000001,11.70168692664101,0.0809783577640887
5.7897240000000005,11.698853791564908,0.0807332631128759
5.792104000000001,11.694018555742392,0.080496547309674
5.794516000000001,11.687832845479516,0.0802738521929881
5.7969040000000005,11.685511567082612,0.0800372579054456
5.799284000000001,11.685983785365044,0.0797935275701579
5.80168,11.691111831446364,0.0795373909904774
5.804068,11.710254582752606,0.079220527418141
5.80646,11.731399434805262,0.0788970723263252
5.808856,11.75454638760434,0.0785666105440929
5.811243999999999,11.778624505963192,0.0782343895317091
5.813624,11.80656705618802,0.0778894644641473
5.816016,11.834230067159124,0.0775522509944482
5.818404,11.85644585439842,0.0772267579609829
5.820787999999999,11.882665843130548,0.076886185532095
5.823184,11.912890033355511,0.0765301582423263
5.825572,11.942834684326757,0.0761818004795852
5.827952000000001,11.97170840011136,0.0758409138784629
5.830352,11.998440245522684,0.075511403461963
5.83274,12.023309759814456,0.0751869464302771
5.835135999999999,12.05176416671848,0.0748597161942855
5.837532,12.074911119517552,0.0745386430976465
5.83992,12.103133208996098,0.0741967400118358
5.842300000000001,12.130843441795449,0.0738456836864041
5.844696,12.15589994754232,0.0734984691021306
5.847084,12.176160855863442,0.073165526120775
5.849464,12.194978741945588,0.0728269451191561
5.851859999999999,12.201923793176093,0.0725315659423844
5.854252,12.202071146234427,0.0722570728031258
5.856632,12.197283132240154,0.0719993704404463
5.859028,12.195428384552072,0.0717331892921668
5.861415999999999,12.193433867237127,0.0714712729418542
5.863796,12.191998428429631,0.0711946096771917
5.866192000000001,12.19056298962213,0.0709173805485623
5.868580000000001,12.1846114926426,0.0706457383282003
5.870976,12.176937434170371,0.0703744329341501
5.873368,12.169682684578724,0.070091955203402
5.875756,12.16070537349438,0.0698088794255639
5.878140000000001,12.154940867969955,0.0695094369404415
5.880544,12.150387067259029,0.0692010606107179
5.882931999999999,12.137732315763811,0.0688998864832087
5.885312,12.126520586507574,0.0686054787396012
5.887716,12.110233720571864,0.0683295444448722
5.890104,12.09594895538257,0.0680463539503172
5.8924840000000005,12.0807330246335,0.0677639866828181
5.894888000000001,12.067798733884562,0.0674668742927552
5.897276000000001,12.053653738322131,0.0671781913722004
5.899655999999999,12.042302239439032,0.0668835869068139
5.902052,12.034954942048769,0.0665750284771296
5.90444,12.03082045021842,0.0662506945941598
5.906820000000001,12.02310106577582,0.06592914154685
5.909216,12.012727954280749,0.0656080089013444
5.911604,12.00300646909173,0.0652925519455639
5.913984,11.996078480582044,0.0649729614948124
5.916379999999999,11.99087305356506,0.064654068640826
5.918768000000001,11.984456921734578,0.0643435945037542
5.921148,11.97990312102365,0.0640308060565045
5.923552,11.979213752178696,0.0637098540581271
5.92594,11.97680182184104,0.0633875947508565
5.928316,11.972667330010696,0.0630639207458586
5.930715999999999,11.979194968218488,0.0627178821409214
5.9331000000000005,11.98949449049364,0.062344732921067
5.935480000000001,12.002215422395787,0.0619548269629962
5.937884,12.016938455044352,0.0615610249386174
5.940271999999999,12.033803358066194,0.0611586090462353
5.942652,12.051459657020953,0.0607594650841816
5.945056,12.069395495229434,0.0603536239447911
5.947439999999999,12.089752743064915,0.0599322292610862
5.949824,12.109458364594335,0.0595056648789653
5.952228000000001,12.129163986123755,0.0590803711918596
5.954616000000001,12.147007276533618,0.0586566415338961
5.9569920000000005,12.164990336570344,0.0582291664664921
5.959388,12.182601309554732,0.057789367659492
5.961772000000001,12.194625289180449,0.057353655469869
5.964156,12.200270879514576,0.0569179993185757
5.96656,12.193019921638667,0.0564837798277482
5.968948,12.168076818126968,0.0560571262052588
5.971328000000001,12.121577137113512,0.0556428476232539
