Time,Force,Position
7.664996,5.470551842612361,0.170885729057159
7.667384,5.908805606806883,0.1651498027331853
7.669767999999999,6.3234138325282165,0.1616594953610808
7.672164,6.710187222686294,0.1594101613497238
7.674552,7.069125777281117,0.1576272258978187
7.676935999999999,7.396178072991607,0.1563266454599817
7.679332,7.694556915377681,0.1552587121509502
7.681716,7.96551833522321,0.1543926428655144
7.684099999999999,8.215393499991539,0.1536157108445239
7.686496,8.449861950839958,0.1528808536126145
7.688884,8.671809732246414,0.1521891547241065
7.6912639999999985,8.877884269024136,0.1515828992810425
7.693659999999999,9.075814424905069,0.1509539235448439
7.696047999999999,9.260432515411122,0.1503400143188416
7.698431999999999,9.445520928341736,0.1495063849736465
7.700828,9.613107978807404,0.1487014493569416
7.703215999999999,9.764032284569288,0.1478763504644267
7.705612,9.89764221932133,0.1470282940159107
7.708008000000001,10.004531683809258,0.146310118641379
7.710396000000001,10.08930928400372,0.145696580793556
7.71278,10.157747108860622,0.1451588984169788
7.715176000000001,10.219481679201843,0.1446467127437032
7.717564000000001,10.281216249543062,0.1441400817375493
7.719948,10.338060778802044,0.1437404620336436
7.722344000000001,10.398303209218176,0.1433483590104398
7.724736000000002,10.46278215855262,0.1429288994949024
7.727116,10.528936447551514,0.1425256489281033
7.7295120000000015,10.596301441363911,0.142101289155133
7.731900000000001,10.66469204439257,0.1416154424381148
7.73428,10.72693847141299,0.1411282155021831
7.736676000000001,10.77493977164088,0.1407030607437247
7.739064000000001,10.816192491382717,0.1402443751378788
7.741448,10.840825896533271,0.1398574731977751
7.743844000000001,10.857080707503693,0.1394708852062932
7.746232000000001,10.855550825039703,0.1392199891556723
7.748612,10.848061862164712,0.139006093523457
7.751008000000001,10.836428928170024,0.138839382458527
7.753396,10.82274667160068,0.1387201347576771
7.75578,10.812881625069062,0.1385911838271931
7.758180000000001,10.807345645254376,0.1384598638528452
7.760568000000001,10.810702012156892,0.1382660179629879
7.762948,10.814802553164082,0.138096666683118
7.765344000000001,10.818763324544408,0.1379330231373756
7.767732,10.824773418499396,0.1377218264958996
7.770111999999999,10.828409324655633,0.1375195660961755
7.772516000000001,10.830462438946029,0.1373232135801525
7.774904000000001,10.834285336557368,0.1370906471114399
7.777284,10.841181270101762,0.1368266151218583
7.779680000000001,10.846307420325216,0.1366001778651242
7.782068000000001,10.84910470872029,0.1364290237041989
7.784447999999999,10.85730199901893,0.1362433533160018
7.786844,10.867826255288078,0.1360767556314262
7.789232,10.885193535699774,0.1358956589021338
7.791628000000001,10.904468473201398,0.1357480870539907
7.7940239999999985,10.932635757420222,0.1355402751761401
7.796408000000001,10.96503956055736,0.1353109827783992
7.798792000000001,11.001168025933614,0.1350537034665683
7.801188000000002,11.03901905280256,0.1347881435706805
7.803576000000001,11.077801245231289,0.1345162705527871
7.805956,11.110716905047624,0.1342981473596459
7.808359999999999,11.139488593744264,0.1341265158967446
7.8107479999999985,11.16560655538843,0.133971707048096
7.813128000000001,11.191584747405736,0.13382294033972
7.815527999999999,11.220728523154715,0.1336653169641817
7.8179159999999985,11.253037882635368,0.1334993681758061
7.820300000000001,11.287721429914775,0.1333274741108509
7.822695999999999,11.323847999433156,0.1331582108352127
7.825083999999999,11.359555260070955,0.1330051278415116
7.827464000000001,11.39298088070862,0.1328792522748386
7.829867999999999,11.43096978134656,0.1326976197999167
7.832251999999999,11.472590796424994,0.1324696189026924
7.8346360000000015,11.51421181150343,0.1322429626792644
7.837031999999999,11.555740278783246,0.1319974367546811
7.839419999999999,11.598526672704804,0.1317124954904464
7.841800000000001,11.635865842894557,0.1314650169172919
7.844195999999998,11.67162222121847,0.1312242860851248
7.846580000000001,11.701512066929991,0.1310328010680707
7.848964,11.726606315215763,0.1308788669757799
7.8513600000000014,11.750909167568617,0.130727725374638
7.853748000000001,11.779216221414304,0.1305406848423848
7.856128,11.80351907376716,0.1303886520675089
7.858524000000001,11.831686357985989,0.1302060620569221
7.860912000000001,11.853987109592422,0.1300714846579282
7.863308000000002,11.87577600451966,0.1299313391375493
7.865703999999999,11.892536984595669,0.1298132028082897
7.868091999999999,11.904781906499649,0.1297235091117183
7.870472000000001,11.911439835044956,0.1296733114338521
7.872867999999999,11.912930079112176,0.1296489807973172
7.8752559999999985,11.915910567246614,0.1296002301138746
7.901532000000001,11.826815275482438,0.1295832225116313
7.903920000000001,11.807311812271076,0.1295548384977481
7.9063,11.782128807902424,0.1295445257187884
7.908700000000001,11.763790723534186,0.1294552525387731
7.911088000000001,11.7389344802475,0.1294110268130259
7.913483999999999,11.70928263953506,0.1294046560604778
7.91588,11.680329646956924,0.1293757995907702
7.918267999999999,11.649933632139811,0.1293470761012686
7.932595999999998,11.421981444351978,0.1293249907820938
7.934976000000001,11.38092519535459,0.1293095916322857
7.937379999999999,11.343873147850038,0.1292582957326505
7.958883999999999,11.021053579342125,0.1292074313472135
7.961271999999999,10.996848962361495,0.1291632410066015
7.9636520000000015,10.973947597992982,0.1291239313320007
7.966047999999999,10.958495558102696,0.1290298489820383
7.968439999999999,10.944207001197666,0.1289454928505433
7.970820000000002,10.933363567278027,0.1288433288031884
7.973215999999999,10.92647711302298,0.1287308063967642
7.975600000000002,10.92676044399244,0.1285732904930537
7.977984000000001,10.928067488320291,0.1284300716042918
7.9803799999999985,10.929467080446765,0.1283084280383452
7.982768000000002,10.930307594065797,0.1282057896688405
7.985163999999999,10.931380425110303,0.1281201468510508
7.98756,10.933476969513208,0.1280492166100682
7.989952000000001,10.94102073764792,0.1279421859345807
7.992331999999999,10.948936592834972,0.1278478898434061
7.994728,10.958994318395298,0.1277312429040586
7.997120000000001,10.97757230362049,0.1275502252150779
7.999499999999999,10.994148188099263,0.12738704115558
8.001896,11.015799209257512,0.1271770188411858
8.004284,11.04303722377443,0.1269255488417974
8.006668,11.071858030157186,0.1266711913479146
8.009064,11.097326261353162,0.1264578706124414
8.064012,11.304938264026344,0.1264481042947712
8.066408000000001,11.32165012641624,0.1264309841582932
8.068800000000001,11.339432923992776,0.1264028612881044
8.07118,11.356005016755812,0.1263898114547222
8.073580000000002,11.374718979892126,0.1263554106805631
8.075968000000001,11.394224338961363,0.1263193654758267
8.078348,11.416011338030732,0.1262571441392629
8.080748000000002,11.43579623635368,0.126212586763175
8.083132,11.460516501729249,0.126127980732401
8.085512,11.481651874492558,0.1260641908617385
8.087908,11.50986448468176,0.1259389583657215
8.090300000000001,11.53728569893804,0.1258151317592446
8.09268,11.56885088431402,0.1256530265656068
8.095076,11.601906313757214,0.125468756709961
8.097464,11.638314318387186,0.1252489013080755
8.099844,11.675793258203798,0.1250194100048073
8.10224,11.70875613984838,0.1248164125935085
8.104632,11.742278100000398,0.1245971324028184
8.107012,11.7725872545925,0.1244107502622498
8.109412,11.806481301796858,0.1242060234559297
8.1118,11.84531071605383,0.123964758325921
8.11418,11.877854288817826,0.1237814489131125
8.116576,11.913610667141738,0.1235691762140919
8.118964,11.953650786212204,0.1233164903350625
8.121348,11.992619970096031,0.1230760664068049
8.123744,12.032148232487303,0.1228200482694064
8.126132,12.071164638199376,0.1225586898242812
8.128516,12.111391748724948,0.1222842599590957
8.130912,12.147754427384546,0.1220383172736034
8.1333,12.183837566790425,0.1217998226892771
8.135679999999999,12.218337914330466,0.1215673279206898
8.138076,12.256190837057282,0.1213021800385941
8.140464,12.295114694970737,0.1210300734767992
8.142847999999999,12.328963416204722,0.120799131601902
8.145244,12.358807935945872,0.1205992248208239
8.147632,12.38972339087366,0.1203912527371568
8.150028,12.423432342480782,0.1201665341857586
8.152424000000002,12.453928488527987,0.1199710733484477
8.154812000000002,12.483912777895997,0.1197688607777802
8.157192,12.513897067264008,0.1195689047800067
8.159592000000002,12.538945989579403,0.1194054871059216
8.161976000000001,12.569349587827997,0.1191950989085711
8.16436,12.592675948650696,0.1190386452796032
8.166756000000001,12.617213014286897,0.1188707132856875
8.169144000000001,12.641889849549957,0.1186997575942194
8.171528,12.665355979999518,0.1185429053377414
8.173924000000001,12.68812326231478,0.1184065847508169
8.176312000000001,12.70795727832384,0.118290057126442
8.178696,12.729933164706184,0.1181555656212698
8.181092000000001,12.75591325258136,0.1179927091946844
8.183480000000001,12.77975147008326,0.1178491127778393
8.185864,12.799305946838604,0.1177421581929926
8.188260000000001,12.81099179023514,0.11768780439584
8.190648000000001,12.825890439191593,0.1176063317273794
8.193028,12.842511649640745,0.1175184500191121
8.195428000000001,12.853917953783562,0.1174719398030763
8.197816000000001,12.866255423486155,0.1174205868342959
8.200196,12.87952405874853,0.1173639656419526
8.202592000000001,12.892792694010904,0.1173074387692996
8.204984000000001,12.900474335914607,0.1172815334874338
8.209764000000002,12.911833418229184,0.1172579536887553
8.219320000000002,12.92356458759609,0.1172451507535632
8.221704,12.924123666103531,0.1172294983448834
8.224103999999999,12.929897650917306,0.1171735910136778
8.226491999999999,12.932226512745686,0.1171296993824893
8.228876000000001,12.934602596402309,0.1170638433111142
8.231271999999999,12.9336733267004,0.1170057803073403
8.233659999999999,12.933862214013374,0.116916604927357
8.236044000000001,12.937962755020562,0.1167812984493783
8.238436000000002,12.941039582669356,0.1166328580483524
8.240824000000002,12.94644527214653,0.1164414411377095
8.2432,12.95683355050456,0.1161961253410285
8.245603999999998,12.965778806623613,0.1159494119023542
8.247992000000002,12.97463151494405,0.1156843482832606
8.250372,12.986045402518345,0.1153914074824856
8.252764,13.002441878973494,0.1150456621323283
8.255152,13.019816742816666,0.1146736956861282
8.257544000000001,13.042034425913831,0.1142539239781684
8.259939999999999,13.065882122705077,0.113813427939461
8.262324000000001,13.090288898003765,0.1133576450328737
8.264704,13.118048248489224,0.1128732310601313
8.267096,13.14888063490774,0.112368782431102
8.269484,13.174637884646785,0.1118989474360692
8.271880000000001,13.195599536960078,0.1114575002895347
8.274284,13.22135678669912,0.1109910623400322
8.276667999999999,13.246554957930725,0.1105424621799767
8.279048000000001,13.273475690655026,0.110087755985977
8.281443999999999,13.303701776737858,0.1096286420330607
8.283828000000002,13.339095547298784,0.1091575271952903
8.286208,13.3743023264046,0.1087131210640121
8.288611999999999,13.40638884774912,0.1083124241155073
8.290999999999999,13.435914189839783,0.1079403244767128
8.29338,13.46916419416956,0.1075535311826053
8.295772000000001,13.508233509283484,0.1071583696022531
8.298160000000001,13.547395372196023,0.1067837265140297
8.300555999999998,13.582877898839824,0.1064658470228941
8.30296,13.61896482996144,0.1061736582155075
8.305344,13.653654064814454,0.1059199774637198
8.307723999999999,13.68415210671953,0.1057153253132656
8.310132000000001,13.721400624968531,0.1054988653125736
8.312516,13.760464252508848,0.1052971282045159
8.314896,13.800831132661278,0.1051037230944239
8.317292,13.848507567665076,0.104883959369774
8.31968,13.89748725528099,0.1046708785190664
8.322059999999999,13.944836929202822,0.1044809245060399
8.324464,13.992558690176994,0.1043026919557849
8.326848,14.047729775629394,0.1040966152832367
8.329227999999999,14.10327294813413,0.1039029181417137
8.331636000000001,14.156254941385008,0.1037359789473007
8.33402,14.21137880500916,0.103555918672589
8.3364,14.269575704566371,0.1033589512986919
8.338796,14.332568201549336,0.1031424768802437
8.341184,14.391696266666326,0.1029456599866083
8.343563999999999,14.445516877678363,0.1027652069157599
8.34596,14.497335387943986,0.1025959677384512
8.348348,14.552134386344049,0.1023933986982837
8.350727999999998,14.608563398438188,0.1021721172356698
8.353124,14.662757992360431,0.1019487312255867
8.355512,14.721655635909816,0.1016895543936653
8.357892000000001,14.772592098301772,0.101453179012793
8.360287999999999,14.819711350655998,0.1012150762165731
8.362675999999999,14.861802688158996,0.1009850981543491
8.365056000000001,14.90151983786324,0.1007575691617122
8.367452000000002,14.939002569395589,0.1005269431142103
8.369836000000001,14.975321817942682,0.1002874102734634
8.372231999999999,15.008755022011824,0.1000424101156419
8.374628,15.03422704492354,0.0998188196960375
8.377016,15.054950692237748,0.0995959747891107
8.379399999999999,15.072276438394804,0.0993607347151207
8.381796,15.085645204887276,0.0991260107620707
8.384179999999999,15.09598815727493,0.0988886523534017
8.386564000000002,15.101023655557634,0.0986647156464613
8.388959999999999,15.103125887534148,0.0984530719702274
8.391347999999999,15.101503457271544,0.0982536008326578
8.393728000000001,15.097926148090767,0.0980442796465627
8.396123999999999,15.091275802976934,0.0978509472177251
8.398511999999998,15.07982986043735,0.0976765133325319
8.400908,15.064519486031791,0.0975174142249705
8.403312000000001,15.043761887894428,0.0973736688835972
8.405696,15.023655916063118,0.0972329571952655
8.408076,15.004481109791588,0.097088877538263
8.410480000000002,14.985957929826114,0.0969477965537938
8.412868000000001,14.964361713927588,0.0968221836650415
8.415248,14.94728155620109,0.0966843755240044
8.417651999999999,14.93206372959415,0.0965404353813187
8.420036000000001,14.917357759666404,0.0964028202805037
8.422416,14.907819474216751,0.0962567587633944
8.424812000000001,14.901726311752494,0.0961050855671449
8.427200000000001,14.899310589699104,0.0959608334346547
8.42958,14.90178301287008,0.09581496579946
8.431976,14.907281250145871,0.0956734817932142
8.434364,14.912360178541082,0.0955413464233824
8.436744,14.92623890585488,0.0953742568146212
8.439148000000001,14.94956905839332,0.0951758511385991
8.441536000000001,14.97606479466343,0.0949789080630791
8.443916,15.00921845947885,0.0947602670991923
8.446320000000002,15.047027952093163,0.0945280797376267
8.448708000000002,15.09256630843942,0.0942675815527535
8.451088,15.140199313330715,0.0940145203943533
8.453491999999999,15.192767685274616,0.0937425254454486
8.455879999999999,15.24542860501714,0.0934868265693085
8.458260000000001,15.303676518118332,0.0932160781268561
8.460655999999998,15.363227683831637,0.0929521356478361
8.463044000000002,15.422918619171805,0.0926874341842362
8.465424,15.480839771191032,0.0924448888415059
8.467820000000001,15.53806207507596,0.0922175067292223
8.470208000000001,15.592071573400972,0.092008683207598
8.472588,15.641517791725708,0.0918289319024481
8.474984000000001,15.689101678930887,0.0916553184219792
8.477372,15.732960903896956,0.0914933201612944
8.479752,15.773886862556829,0.0913429118759214
8.482148,15.818537483455811,0.0911824432291785
8.484532,15.857181802115546,0.0910481703007429
8.486911999999998,15.88888865297625,0.0909419558068594
8.489316,15.920735273463816,0.0908334285321783
8.491704,15.945784195779211,0.0907495076398942
8.494083999999999,15.968039621415276,0.0906736547236517
8.496488000000001,15.990295047051337,0.0905987238842234
8.498872,16.012830011941123,0.0905181750003062
8.501256,16.033502645711344,0.09044331204999
8.503652,16.057015997989154,0.0903436283433447
8.506036,16.074523048027704,0.0902676189045943
8.508415999999999,16.09286871582742,0.0901744371612957
8.51082,16.10814134769408,0.0900946370211559
8.513208,16.124252597321902,0.0899977283270998
8.515588,16.14455503989766,0.089865302497774
8.517984,16.162623064301528,0.0897284678147415
8.520372,16.187256469452084,0.0895575632541489
8.522751999999999,16.21072639161738,0.0893773012204633
8.525148,16.237409119342594,0.0891821174256052
8.527536,16.264511155948394,0.088978533726105
8.529932,16.288028299941935,0.088781895769695
8.532328000000001,16.310893817629417,0.0885819477277296
8.534716000000001,16.3373914497574,0.0883584487561942
8.537096,16.363237455579323,0.0881324330771437
8.539496000000002,16.389223231028108,0.0879034329459527
8.541884000000001,16.414277840917112,0.0876768087566354
8.544264,16.43453685338037,0.0874651580514888
8.546667999999999,16.452933534724064,0.0872582355225025
8.549055999999998,16.468396949761566,0.0870612726919083
8.551440000000001,16.479856163306234,0.0868794745703519
8.553835999999999,16.49415609535848,0.0866736618164852
8.556223999999998,16.50752486185095,0.0864705209557333
8.558604,16.521312937223996,0.086259137185144
8.561008,16.53202797666399,0.0860600391671855
8.563396,16.538319505730563,0.0858841816835396
8.565776000000001,16.548475466663117,0.0856971073029112
8.568168000000002,16.554906765356556,0.0855192701059778
8.570556000000002,16.56292085591583,0.0853429933047049
8.572936,16.565068413862715,0.0851850551193936
8.575339999999999,16.56749551106332,0.0850216910247031
8.577727999999999,16.572064478637206,0.084848727514373
8.580108000000001,16.58063764770392,0.0846623762286206
8.582503999999998,16.584275449718024,0.0844919566476004
8.584888000000001,16.58605092061257,0.0843257562255452
8.587268,16.586103830014423,0.0841605468617299
8.589664,16.58936954497619,0.0839811951305291
8.592052,16.59184386400504,0.0838008782181598
8.594432,16.59646005340716,0.0836111454486604
8.596828,16.60028484687637,0.0834204285983207
8.599212,16.604109640345577,0.0832296229905528
8.601612000000001,16.604861397881727,0.0830503966785008
8.604007999999999,16.60561315541788,0.0828713012523642
8.606392000000001,16.60436281220762,0.0826987931521517
8.608776,16.606604813810993,0.0825066777595112
8.61118,16.608055419481442,0.0823135117797892
8.613563999999998,16.60885439884584,0.082117279428478
8.615948000000001,16.61193501821037,0.0819094443548034
8.618343999999999,16.614503780895706,0.0816955998766434
8.620728000000002,16.62121651470073,0.0814659680102984
8.623112,16.62872064443868,0.0812376210439021
8.625508000000002,16.634502212683927,0.0810105087025317
8.627892000000001,16.636419349063207,0.0807939174727232
8.630272,16.642852543614516,0.0805710185286925
8.632668,16.64914596853896,0.0803507793826415
8.635056,16.660654299769742,0.0801108905100688
8.637436,16.670300299880964,0.0798752170834779
8.639832,16.681157004805687,0.0796322223706924
8.64222,16.69136208342435,0.079386089270706
8.644620000000002,16.70571113316271,0.07912527809317
8.647015999999999,16.72033972215479,0.0788591087348353
8.649400000000002,16.738041347079925,0.0785827253295574
8.65178,16.757745072751472,0.0783010828742917
8.654176000000001,16.7820120784233,0.077997320717503
8.65656,16.806790940774324,0.0777012123514004
8.658956000000002,16.83599331349876,0.0773859409700713
8.661351999999999,16.858258218424172,0.0770896938049766
8.663739999999999,16.87544798667011,0.0768099596081563
8.666120000000001,16.890356114915907,0.0765415321601801
8.668515999999999,16.90340191204215,0.0762767184564937
8.670903999999998,16.915004686929418,0.0760075139568902
8.673284,16.927678397003323,0.0757343969818642
8.675680000000002,16.936487675211254,0.0754694343331505
8.678068000000001,16.944785096739988,0.075198819180856
8.680448,16.956574863082356,0.0749110026298081
8.682844000000001,16.963289492745254,0.074638853625406
8.685232000000001,16.9681417912886,0.0743696723402072
8.687627999999998,16.977277830578494,0.0740848805407517
8.690024,16.98641386986839,0.0738005410523628
8.692407999999999,16.988891980612976,0.0735286785507764
8.694792000000001,16.989647529864865,0.0732566816389211
8.697187999999999,16.98560748169101,0.0729940888137197
8.699575999999999,16.977051375345113,0.0727357822858483
