Time,Force,Position
7.11392,2.993791737490752,0.1600802110842913
7.116268,3.178914101244524,0.1585466451734474
7.118608,3.3496062426085342,0.1574069180889171
7.120951999999999,3.507730492702343,0.156553649152857
7.1233,3.653147081899088,0.1558428783023466
7.125636,3.785856010198768,0.155278756229887
7.127984,3.90674122133292,0.1548584765313273
7.130324,4.016873650488181,0.1544980411698814
7.132672,4.12384239176964,0.1539473045018287
7.135012,4.223084165177021,0.1534216812158116
7.1373560000000005,4.309523834030852,0.153123518949941
7.139704,4.384791412025212,0.1529415011964335
7.174835999999999,4.624878911197587,0.1528078843535468
7.177175999999999,4.629719834593713,0.1528055714801398
7.17952,4.633537044631442,0.1527748508518969
7.18186,4.635539145377859,0.1527224659158812
7.184203999999999,4.639730338325797,0.1525435703195041
7.186544,4.64755364571423,0.1522363206176561
7.188888,4.659520924222357,0.1518182042951873
7.191228000000001,4.674002160156097,0.1513697484367018
7.193572,4.691089901314072,0.1509372010705983
7.195912,4.712786248442693,0.1504643255851969
7.198252,4.73601816560891,0.1500426517700551
7.200595999999999,4.757992156133383,0.1497235352030558
7.2029440000000005,4.784342435203027,0.1493337579778268
7.205284000000001,4.812275506138507,0.1489296732954227
7.207636000000001,4.847565353753596,0.1483277572281232
7.20998,4.886487315809182,0.1476056460238532
7.21232,4.928110226745487,0.1467887447612901
7.214663999999999,4.964425683576841,0.1460681598611402
7.217003999999999,4.993291815929968,0.145496528579112
7.219352000000001,5.022856796417398,0.1448657151399712
7.221696,5.0500475891060725,0.144262095655452
7.22404,5.0755158203020505,0.1436836930649655
7.226380000000001,5.095117518885639,0.1432395295095707
7.228724,5.118071792656002,0.1427003912112993
7.231071999999999,5.141305605680087,0.1421457059443325
7.233411999999999,5.15909219497236,0.1416927101414493
7.235759999999999,5.172083186838883,0.1413430688515127
7.238099999999999,5.176321601615063,0.1411243417226984
7.240444,5.178744907099931,0.1408843630433963
7.242784,5.179073564039764,0.1406434589339585
7.245127999999999,5.175165702061285,0.1404577169445587
7.247468,5.172748084150027,0.140212074773787
7.249815999999999,5.171261631798546,0.1399519915069515
7.26154,5.147198680302648,0.1397362258609081
7.263876,5.152878221459933,0.1396841571213092
7.266220000000001,5.165959865267204,0.1395618202266474
7.268564,5.1815082446718455,0.1394667209070504
7.270911999999999,5.202224308554576,0.1393092882634979
7.273251999999999,5.226897352101898,0.139119810276546
7.275596,5.252174800127035,0.1389937596489444
7.277948,5.280989918936181,0.1388751371375314
7.280284,5.316555514089253,0.1386881708025625
7.282628000000001,5.358219959280192,0.1384303109164958
7.284967999999999,5.412361643800588,0.1380060294738182
7.287312,5.4684582072391565,0.13760114568319
7.289652,5.527301045528817,0.1372051626059853
7.291995999999999,5.589449237177011,0.1367752631700954
7.29434,5.6533199903178994,0.1363336441064545
7.296683999999999,5.714909103458652,0.13595965441205
7.299028,5.774635885479848,0.1356245637723463
7.301372000000001,5.839717343434236,0.1351733134849531
7.303716,5.90843091582912,0.1346315903301331
7.306051999999999,5.981056141918223,0.133985355654938
7.308391999999999,6.056010229835705,0.1332515090076624
7.310732,6.125424546222759,0.132572954071018
7.313079999999999,6.189810947758585,0.1319577736412422
7.31542,6.255175736682433,0.1312907371308404
7.317764,6.318306107434386,0.1306414037436452
7.320104000000001,6.383346031134139,0.1299287251103704
7.322456000000001,6.44522037110222,0.1292349461340111
7.324804,6.502486105099653,0.128566134388943
7.327152,6.554444384992134,0.1279612015800714
7.329496000000001,6.60058335410047,0.1274060369655268
7.33184,6.63820206354394,0.1269703317767488
7.33418,6.676100312241131,0.1265241594637081
7.33652,6.714837178699482,0.1260361522147717
7.338856,6.75706638997147,0.1254848159162766
7.341203999999999,6.79943537087032,0.1249338469661675
7.343544,6.8402215599033305,0.1243896554670945
7.345888,6.880076583376566,0.1238592937356991
7.348228000000001,6.919419750170602,0.1233277954832465
7.350567999999999,6.954898485098664,0.1228512140021175
7.352912,6.983859061108278,0.1224509480737174
7.355252,7.00760473081156,0.1221353030850037
7.3576,7.03065155238054,0.121858404148931
7.35994,7.051044646897045,0.1216050901348734
7.362296000000001,7.070786115107493,0.1213511578135995
7.364635999999999,7.090807122571662,0.1210861928911088
7.36698,7.110688360408971,0.1208328333049227
7.36932,7.132059842313496,0.120542576077839
7.371663999999999,7.153151784964306,0.1202671320025757
7.374012,7.175733971682332,0.1199550119734566
7.376355999999999,7.200178489519917,0.1196253955600995
7.3787,7.229745365865218,0.1191907112494539
7.381043999999999,7.257077824038624,0.1187588696004838
7.383392000000001,7.284038195159692,0.1183146469596793
7.385724,7.3055513425489504,0.1179216949243301
7.388064,7.323759136579675,0.1175453586873152
7.390408000000001,7.343736713931337,0.1171208436581589
7.392756,7.365344304977081,0.1166567288760176
7.395092,7.38280792490313,0.1162495244441347
7.397432,7.403484350389094,0.1157996629913326
7.39978,7.426162876621476,0.1153254025722592
7.40212,7.448841402853858,0.1148494330351121
7.404476000000001,7.470356446100984,0.1143567292906008
7.406815999999999,7.492942424534749,0.1138487868696447
7.409164,7.513386532595236,0.1133740927735993
7.4115,7.529686669536029,0.1129537870233616
7.41384,7.5425416834914305,0.1125553040081746
7.416192000000001,7.557119258939528,0.1121507621040545
7.418536,7.571836604014483,0.111739760694741
7.42088,7.587996971328417,0.1113359108842548
7.423223999999999,7.604669195321545,0.110946116663847
7.425572000000001,7.620223262299793,0.1106136125785103
7.427908,7.637360121143878,0.1102806331197584
7.430251999999999,7.651796031107245,0.1100035655092569
7.432592,7.667674963309587,0.1097312377240109
7.434939999999999,7.686999018497324,0.1094434736911027
7.437279999999999,7.705344686297039,0.1092022160519
7.439624,7.720198009283118,0.1090160715431102
7.44196,7.737053433015614,0.1088089585672582
7.444296,7.748554180814917,0.1086709845791312
7.44664,7.763360281972754,0.1085241607688732
7.448976,7.783101750183202,0.1083299743329621
7.451319999999999,7.804146471005765,0.1081469983837483
7.453659999999999,7.828636314813722,0.1079501663650867
7.540367999999999,7.443421070369183,0.1078809294524821
7.542719999999999,7.417259678612512,0.107838137715434
7.54974,7.342451047895498,0.1078286284334079
7.552084000000001,7.324575702520344,0.1077961117848514
7.554435999999999,7.312659437556199,0.1077377723703416
7.556775999999999,7.305491548189562,0.1076743845842524
7.55912,7.312151372592739,0.1075101081335982
7.561463999999999,7.325282134086121,0.1073346396307014
7.563803999999999,7.337806595243823,0.107222794750064
7.566148,7.354567575319831,0.1070951681194611
7.568491999999999,7.375053217634955,0.1069395463961346
7.570831999999999,7.401497940361085,0.1067571885786322
7.573180000000001,7.431387786072609,0.106559594384704
7.575524,7.46779579070258,0.1063130081244122
7.577868,7.507928457571666,0.1060385279054125
7.580208000000001,7.544429010000253,0.105824973966951
7.582552,7.587727260601011,0.1055501139841841
7.584899999999999,7.637403900493355,0.1052358661361798
7.587244,7.687080540385701,0.1049284829807707
7.589587999999999,7.735826014718268,0.1046322111462031
7.591932,7.788063833864471,0.1042868953760704
7.594272,7.845516559317006,0.1038853341228737
7.596615999999999,7.899524161784148,0.103498176328113
7.598952000000001,7.951809202758595,0.103122292230666
7.6013,8.002930760747786,0.1027352761645635
7.603648,8.048605095005168,0.1023840115883433
7.605992,8.083896838478127,0.1021156156489099
7.608332000000001,8.11816486859269,0.1018282684897854
7.610676,8.15727571796125,0.1014703162986065
7.613020000000001,8.196666106583528,0.1011047167265343
7.615364,8.236056495205807,0.1007426252904404
7.617711999999999,8.277076897522164,0.1003469524839533
7.620063999999999,8.319028465398302,0.0999490629524061
7.622403999999999,8.356836062154745,0.0995946370347503
7.624748,8.395435054844105,0.0992437967265372
7.627096,8.435524291600686,0.0988627331033494
7.629436,8.473471657983989,0.0985094205996525
7.631779999999999,8.508625527687956,0.0981780648568572
7.634124,8.54056659183201,0.0978823993661122
7.636471999999999,8.5728797430284,0.0976052868717787
7.638804,8.600909153478236,0.0973740368489189
7.641147999999999,8.626936463181655,0.0971623198362834
7.643504,8.658271226990024,0.0969302954023466
7.64584,8.694261818597285,0.0966754461163155
7.648187999999999,8.734349159495995,0.0964219447435047
7.650532,8.77709022744718,0.0961586235963774
7.652868,8.821693626517924,0.095884987769272
7.655203999999999,8.864946551148307,0.0956362782967759
7.657548,8.908711332457889,0.095403990652338
7.659903999999999,8.951405178580831,0.0951846008175676
7.662248,8.995961355823331,0.0949588397281055
7.664588,9.045964756797638,0.0947154203629864
7.666931999999999,9.09983258963792,0.094453651574873
7.669271999999999,9.157844393597896,0.0941599098109313
7.671607999999999,9.215856197557873,0.0938696344453673
7.673952,9.2786635989436,0.0935557357785232
7.676292,9.342541935515966,0.0932357852072185
7.67864,9.406560041715194,0.0929144460267089
7.680984,9.475001658287836,0.0925544152433694
7.683324000000001,9.543210957434995,0.0921763415972957
7.685675999999999,9.616914702142214,0.0917508445855546
7.688015999999999,9.691968921289792,0.0913122802778095
7.69036,9.763997326332555,0.0908703911402826
7.6927,9.82578291021776,0.0904757827854896
7.695055999999999,9.879747082572402,0.0901032153826963
7.697395999999999,9.935760577501702,0.0896931297958772
7.69974,9.99354385575194,0.0892543185998882
7.70208,10.049372255084004,0.0888014475244494
7.704420000000001,10.100592048445424,0.0883435468089486
7.706764,10.15279022919486,0.087857455578186
7.709108,10.201822826212624,0.0873721114385183
7.711460000000001,10.24145121983399,0.0869046708578714
7.713799999999999,10.270604474872318,0.0864601811656356
7.716144,10.294078188753357,0.0860150168263293
7.718488000000001,10.313874462223522,0.0855570073832059
7.720824,10.332367483081576,0.0850928121202511
7.723172,10.349836790581232,0.0846114368102278
7.725516000000001,10.362790039908855,0.0841424013269881
7.727855999999999,10.370296065504672,0.0836905031390121
7.7302,10.37729023442129,0.0832297410526144
7.732544000000001,10.380419971471934,0.0827885829625795
7.734895999999999,10.378893880723686,0.0823639494959941
7.737235999999999,10.382442926654912,0.0819134606287452
7.73958,10.39628201557194,0.0814030918013839
7.741928,10.41505647154158,0.0808709734041437
7.744260000000001,10.430757891578164,0.080359536690783
7.746604,10.445388376428111,0.0798581611267982
7.748951999999999,10.463603753890313,0.0793522982189395
7.751284,10.48312238396463,0.0788594323469616
7.753627999999999,10.501290539598587,0.0783849847723553
7.755972,10.522252191911877,0.0779053816222665
7.758319999999999,10.54717082388976,0.0774347181904455
7.760655999999999,10.580050637025067,0.0769545368030559
7.763,10.619029300198244,0.0764718606192288
7.765356000000001,10.66224448228973,0.0759921870199153
7.767692,10.70331779400794,0.0755300226116171
7.770028,10.744902962405344,0.0750817336574666
7.772372000000001,10.79528792972134,0.0746034972659626
7.77472,10.85032872483622,0.0741168141189832
7.777051999999999,10.90909418219022,0.0736264978664681
7.779396,10.969210113984577,0.0731254119798776
7.781751999999999,11.034401182458405,0.0726050713581365
7.784096,11.094796653506478,0.0721059627101874
7.786440000000001,11.149837448621364,0.0716426416192126
7.788784,11.20287614298983,0.0711919397343858
7.791124,11.259779269224271,0.0707341589517741
7.79346,11.319755431391766,0.0702683839952127
7.795804,11.379871363186124,0.0698044901239561
7.798147999999999,11.442408704607477,0.0693261395096362
7.800488,11.504154650095916,0.0688485837025902
7.802832,11.566040365211212,0.0683729765216914
7.805172000000001,11.630627029207227,0.067876824598319
7.807516,11.693119044658207,0.0673720281102231
7.809851999999999,11.754168037870212,0.0668648825181867
7.812196,11.816707275149431,0.0663478432937825
7.814532,11.880457217242157,0.0658260094520387
7.816872,11.950213461574128,0.0652925298357764
7.819215999999999,12.017176209226765,0.0647707543601421
7.82156,12.089214093558876,0.0642404100346082
7.823907999999999,12.160972438637264,0.0637236323574391
7.826248,12.236036137074183,0.0632182461878521
7.828588,12.311611692190304,0.062728242345666
7.830932000000001,12.386767938425844,0.0622510511148895
7.833276,12.468070256527495,0.0617586512029501
7.835616,12.5524456105622,0.0612617247816886
7.837960000000001,12.63281676310407,0.0607803001799842
7.840304,12.710114879712888,0.0603139006457848
7.842644,12.786342061135064,0.0598566211270814
7.844991999999999,12.860427372183963,0.0594123906209755
7.847332,12.938237345471975,0.0589685592966281
7.849688,13.011111951707376,0.0585384666935896
7.852028000000001,13.080773752382864,0.058125478855182
7.854372,13.14987647455091,0.0577289346621365
7.856716,13.222564089331213,0.0573380891018256
7.859052,13.289897028178316,0.0569703164687101
7.8614,13.356578340719365,0.0566005195948711
7.86374,13.41366845840891,0.0562475490170276
7.866084000000001,13.471177884979037,0.0558893182115764
7.868423999999999,13.517885411884158,0.0555531961130856
7.870768,13.560076880617244,0.0552186270590642
7.873112000000001,13.60082532711136,0.0548791551843849
7.875448,13.637057715433444,0.054540849384737
7.877791999999999,13.676502909315444,0.0541937350617722
7.880144,13.707288073905715,0.0538587985258885
7.882488,13.7339292673763,0.0535366728049429
7.884828000000001,13.7596392952871,0.0532154351111888
7.887172,13.78506978394418,0.0529014436758455
7.889524,13.80570467517551,0.0525927550725844
7.891868,13.827270731966625,0.0522851613273661
