Time,Force,Position
5.4158,7.769396803153342,0.1664823014680432
5.418176,7.765211297779011,0.1662877756036662
5.420571999999999,7.764423693561832,0.1660904222575217
5.422956,7.776764954980167,0.1657351273873195
5.425351999999999,7.7892913119957345,0.1654375058828719
5.427744,7.808288606101508,0.1650845196519529
5.430132,7.831242879871872,0.1647019541373509
5.432508,7.863741126665496,0.1642048652917883
5.434903999999999,7.904991950549463,0.1636047390114097
5.437288,7.95033952372488,0.1629715495522728
5.439683999999999,7.996059183952634,0.1623587609076409
5.44208,8.042150931232726,0.1617642475467446
5.444463999999999,8.093829671871488,0.1610953150185005
5.446844,8.142155837323475,0.160498892793479
5.449248,8.193787356133992,0.1598752083200616
5.451636,8.25086609867632,0.1591884333971213
5.454016,8.30845669789785,0.1585184209207191
5.456419999999999,8.36763008898521,0.1578344432424051
5.458804,8.425313236005353,0.157197387733479
5.461184,8.481645908585138,0.156611390167289
5.463587999999999,8.53956137303076,0.1560240357681125
5.465975999999999,8.597988694155578,0.1554530567367833
5.468355999999999,8.655764388974339,0.1548867754286078
5.470752,8.705950989688013,0.1544265660567066
5.473135999999999,8.761632035961739,0.1538741308940158
5.475519999999999,8.811865858503657,0.1533877101225142
5.477916,8.861308285112655,0.1529116237336468
5.480303999999999,8.906374423176484,0.1524808472487328
5.482684,8.943991236762084,0.1521420887763175
5.485088,8.977603848854853,0.1518623637348271
5.487472,9.013078792067176,0.1515643707820084
5.489852,9.047762339346582,0.1512718713807081
5.492252,9.080955642558768,0.1510193599642485
5.49464,9.114800572077012,0.1507679702464703
5.497016,9.14650363122198,0.1505519613879294
5.528088,9.330972472811824,0.1504272377802708
5.530475999999999,9.348847818186975,0.150373006427888
5.535267999999999,9.37677709740672,0.1503306757622862
5.537655999999999,9.391766398303918,0.1502822202897023
5.540036,9.405452446589004,0.1502310348669126
5.542431999999999,9.422630839687727,0.1501222332813301
5.544819999999999,9.440228541667029,0.1499963238523178
5.547199999999999,9.455172516593857,0.1498936100825106
5.549596,9.472537901147678,0.1497483774758101
5.55198,9.492184925701642,0.1495680421673326
5.554363999999999,9.50703635282985,0.1494413479638582
5.556767999999999,9.528313391077893,0.1492210772913591
5.559152,9.552943004512713,0.1489477039238328
5.561531999999999,9.577712387574389,0.1486676876826981
5.563928,9.601830144330004,0.1483875670615746
5.566316,9.623993022167449,0.1481038810975159
5.568711999999999,9.644433338512195,0.147832894897429
5.571108,9.659566200751998,0.1476090433446264
5.573496,9.673256040752822,0.1473881655538785
5.575879999999999,9.681498657021836,0.1472213547433455
5.578279999999999,9.690392899596908,0.147057661761185
5.580668,9.703151574037951,0.1468497785017872
5.583047999999999,9.718052118852276,0.1466113113344178
5.585444,9.727086131054207,0.1464425233679926
5.587832,9.73612014325614,0.1462743915693167
5.590212,9.7388683139651,0.1461916954144033
5.592607999999999,9.739754153554506,0.1461279454401546
5.594995999999999,9.743713029076966,0.146024372398016
5.597376,9.749534235718984,0.1459029561919749
5.59978,9.75279426310714,0.145828697683574
5.602163999999999,9.765645485346802,0.1456509411146343
5.604544,9.774864593145969,0.145534889545011
5.606939999999999,9.78580626243783,0.1454070888654495
5.609324,9.79912211952845,0.1452686045579245
5.611719999999999,9.810156336618927,0.1451647619715336
5.614124,9.819420770388469,0.1451028969967912
5.616507999999999,9.83534313270332,0.1449725160226709
5.618887999999999,9.85992552430989,0.1447510598429682
5.621284,9.88623047740916,0.144518116089421
5.623672,9.917331027934182,0.1442370321425068
5.626051999999999,9.946709016966508,0.1439705915623975
5.628455999999999,9.97822887637211,0.1436793388225159
5.630843999999999,10.009608966150854,0.1433947267159371
5.633223999999999,10.04364278298207,0.1430885581348842
5.63562,10.079399161305984,0.1427729208449231
5.638008,10.119299510749592,0.1424058268308702
5.640391999999999,10.163995457618952,0.1419925011897649
5.642784,10.210413965981004,0.1415706311852926
5.645172,10.251245480984393,0.1412020762585063
5.647552,10.290354434495082,0.1408445279045112
5.649959999999999,10.320523819460329,0.1405859630469088
5.652344,10.350600656626952,0.1403037751696516
5.654728,10.375462587487243,0.1400852662708078
5.657123999999999,10.399021265735424,0.1398634630614951
5.659512,10.424070188050823,0.1396117372624606
5.661891999999999,10.456615656672692,0.1392668894919394
5.664288,10.485436463055446,0.1389591112448061
5.666676,10.507459571266033,0.1387220187990134
5.669056,10.52762034835706,0.1385020472742905
5.671456,10.5419145928357,0.1383420976121877
5.673844,10.55327557100814,0.1382115340378428
5.676223999999999,10.560911886941469,0.1381142964042475
5.67862,10.565475166941743,0.1380512838481979
5.681007999999999,10.569386820635962,0.1379862042388916
5.692956,10.54592637776001,0.1379841571260852
5.695344,10.544158490296937,0.1379450645971205
5.697724,10.552960185073394,0.1377829832586359
5.700119999999999,10.56506723320838,0.1376054870027024
5.702507999999999,10.582808496530282,0.1373546680052693
5.704904,10.59999068134474,0.137123826968236
5.707299999999999,10.619547053957955,0.1368859193361631
5.709684,10.632957354705058,0.1367158743842519
5.712068,10.643294619519104,0.1365782801250035
5.714463999999999,10.652560949146514,0.136452647359725
5.716848,10.6639691491472,0.1363023693767995
5.719231999999999,10.680172946573638,0.136109471380905
5.721635999999999,10.702103506985608,0.1358669146735553
5.724023999999999,10.721752427397435,0.1356537579884212
5.726399999999999,10.745824858182685,0.1353856876304961
5.728799999999999,10.771899389714346,0.1350988370686087
5.731187999999999,10.800767417925345,0.1347892187001836
5.733567999999999,10.827493575763064,0.1345040123019544
5.735964,10.851426236921446,0.1342413871942125
5.738352,10.87843193401289,0.133946953634969
5.740744,10.906788105544686,0.133631159775548
5.74314,10.929417514090956,0.1333668322065306
5.745527999999999,10.944038519651558,0.1331840273450254
5.747908,10.957216502973184,0.1330025256550563
5.750303999999999,10.967461219988614,0.1328487170924772
5.752691999999999,10.980826194765346,0.1326381499850209
5.755071999999999,10.993027686556818,0.1324191885655928
5.757476,11.004857091295955,0.1321882630374336
5.759859999999999,11.01896813603523,0.131928330998251
5.762239999999999,11.038713395961418,0.1316004504205449
5.764644,11.056736094394909,0.1312832840631288
5.767027999999999,11.072244835402785,0.1309791321052694
5.769412,11.082166583051986,0.1307174370867676
5.771816,11.094509740328188,0.1304225259453054
5.7742,11.105781962417757,0.1301406245145307
5.77658,11.114400457454847,0.1298752666733483
5.778975999999999,11.123158722118797,0.1296059783935094
5.781363999999999,11.13699212346222,0.1292892417925309
5.783744,11.153898560738696,0.1289428607411662
5.786148,11.16722010540292,0.1286193806728404
5.788536,11.180401880440284,0.1283017380184949
5.790916,11.193443885850789,0.1279876769987774
5.793316,11.206485891261297,0.1276733100226535
5.795699999999999,11.214312990365466,0.1274106681643658
5.798084,11.217996118349944,0.1271884217322818
5.800479999999999,11.21990946301348,0.1270019531316404
5.802863999999999,11.218470232490242,0.126854287131018
5.805243999999999,11.218474024205982,0.1267073472561547
5.80764,11.219408981481498,0.1265539519733085
5.810023999999999,11.216572054689658,0.1264533816123323
5.812419999999999,11.21252442308432,0.1263686270850158
5.814816,11.205124216292209,0.1263221844456392
5.817203999999999,11.201728210992927,0.1262399672730104
5.819584,11.199914997559482,0.1261540085401168
5.821988,11.19717061856626,0.1260746451924532
5.824376,11.196009031438871,0.1259915212991156
5.826752,11.191122782072371,0.1259343185823669
5.829147999999999,11.185305367146094,0.1258835589776111
5.831535999999999,11.180139578525871,0.1258355460276867
5.833915999999999,11.180700552891183,0.1257449553075973
5.836311999999999,11.180330361696717,0.1256607892246424
5.838696,11.181962271248665,0.1255593530134485
5.841091999999999,11.183314641546891,0.1254669062200599
5.843488,11.192675414830788,0.1253057946010439
5.845876,11.206971555167296,0.1251034402006684
5.848256,11.219265594757385,0.1249183968981206
5.850651999999999,11.233841274347611,0.1247067131867869
5.853039999999999,11.244412752445008,0.1245291113636803
5.85542,11.255124000169264,0.1243476703334992
5.857815999999999,11.269467362334016,0.1241209838500415
5.860203999999999,11.283670954871909,0.1238984172397438
5.8626,11.305091554462548,0.1236097738678828
5.864995999999999,11.321716556627434,0.1233571682490335
5.86738,11.337689932486263,0.1231029639383273
5.86976,11.353803077971952,0.1228447011078028
5.872163999999999,11.371266697898005,0.1225681455343271
5.874548,11.394457080809584,0.1222509944708624
5.876931999999999,11.411641161481914,0.1219836584245579
5.879328,11.428453155101904,0.1217059188779555
5.881711999999999,11.439258846482645,0.1214787783572702
5.884092,11.452206408236664,0.1212316943372263
5.886487999999999,11.469018401856651,0.1209580418380315
5.888875999999999,11.486109934730369,0.1206750679205928
5.89126,11.495472603872129,0.1204485151071057
5.893655999999999,11.50804807857381,0.120192872743847
5.896043999999999,11.520111696596294,0.119929207472711
5.89844,11.534037645738334,0.1196549889122865
5.900835999999999,11.552387105253786,0.1193351908078523
5.90322,11.5708763343961,0.1190124509536096
5.905603999999999,11.58429042685894,0.1187325220077404
5.908003999999999,11.60133663376228,0.1184101065176266
5.910391999999999,11.612516308053223,0.1181314792341024
5.912772,11.627560414210146,0.1178258151167756
5.915176,11.638740088501091,0.1175468328116754
5.917564,11.651921863538458,0.117253434670923
5.919944,11.661890833015908,0.116990417831484
5.922347999999999,11.66892653618716,0.1167493218627313
5.924736,11.680106210478108,0.1164723993640194
5.927115999999999,11.684860273649228,0.1162540005703392
5.929512,11.689754106447202,0.1160305752440079
5.9319,11.691295364058403,0.1158415537893632
5.93428,11.689111959430493,0.1156752145249838
5.936683999999999,11.690001590735635,0.1154841143564475
5.939068,11.700761956146,0.1152222839424509
5.941448,11.70416554487676,0.1150244064992111
5.943848,11.712224961406406,0.114800227628101
5.946231999999999,11.719213442749416,0.1145865389529133
5.948612,11.728855651144904,0.1143627772641997
5.951007999999999,11.736216219540252,0.1141624561927823
5.953395999999999,11.7452993494283,0.1139557343619811
5.955775999999999,11.749819199316068,0.1137955371636649
5.958172,11.757272315510034,0.1136156134369056
5.96056,11.7635147268905,0.1134496681212697
5.962939999999999,11.776415066816272,0.113244014434633
5.965336,11.789967033048104,0.1130431977814089
5.967724,11.804589934466575,0.112833125024535
5.970119999999999,11.817210735138632,0.1126371522749378
5.972516,11.83369596767666,0.1124182863216512
5.974904,11.862054035066327,0.1121195284786125
5.977284,11.893857225441389,0.1118094716268949
5.979679999999999,11.923937854323755,0.1115038844375547
5.982067999999999,11.954809879139038,0.1111985681019965
5.984448,11.982189559140682,0.1109297765126305
5.986843999999999,11.999558735410249,0.1107322254743094
5.989231999999999,12.022282587613002,0.110489350656639
5.991616,12.0431441086962,0.11025796188471
5.994011999999999,12.062143298659842,0.1100366571978337
5.996399999999999,12.07434479045132,0.1098579500819406
5.998779999999999,12.088688152616063,0.109661646375272
6.001179999999999,12.105033615527232,0.1094523083495948
6.003567999999999,12.12724561105079,0.1092068287597665
6.005947999999999,12.148386671387712,0.1089709708118474
6.008352,12.17073843653813,0.1087228882932659
6.010735999999999,12.190296705009212,0.1084907676209755
6.01312,12.205199145681403,0.1082824166199322
6.015524,12.218099485607182,0.1080871748851615
6.017907999999999,12.236074962212427,0.1078572737615943
6.020288,12.248044136578423,0.1076678503190738
6.022692,12.250561885719776,0.1075288152078329
6.02508,12.251916151875871,0.107379083473252
6.027459999999999,12.258205785084582,0.1071989139798731
6.029856,12.26677705829343,0.1069988576979048
6.032244,12.278980445942771,0.1067620958902874
6.034624,12.298540610271724,0.1064708706006744
6.037019999999999,12.31675030016032,0.1061972350136046
6.039407999999999,12.332026723742716,0.1059407854358306
6.041788,12.349305248071532,0.1056721049389879
6.044192,12.369796577960262,0.1053781702876204
6.04658,12.386143936729296,0.1051131970673362
6.04896,12.399837568445855,0.1048578741987137
6.051355999999999,12.40822374605747,0.1046212411820735
6.053743999999999,12.419682959602136,0.1043649770610912
6.056124,12.429931468333306,0.1041212653013006
6.058516,12.440040207437614,0.1038821955576732
6.060904,12.452942443221255,0.103630604877118
6.063296,12.467986549378177,0.1033626359222021
6.065691999999999,12.482890885908237,0.1031005900404725
6.068079999999999,12.501939193557993,0.1028108509661948
6.07046,12.526434724939552,0.1025009047815189
6.072852,12.55437537930651,0.1021846256497639
6.07524,12.58524929997966,0.1018556653810662
6.077635999999999,12.608766443973204,0.1015776749592467
6.080032,12.631864279086164,0.101312940526445
6.082415999999999,12.65240093494527,0.1010766676017092
6.084796,12.673217130058095,0.1008336448249354
6.087196,12.69882892259667,0.1005683718742447
6.089579999999999,12.726442815881663,0.1002935679628407
6.091976,12.75764160177891,0.1000094113795491
6.094371999999999,12.797919725848462,0.0996746335690308
6.096756,12.837918310664294,0.0993472172219663
6.099135999999999,12.88243295365216,0.0990064612516695
6.101532,12.923874560706968,0.0986862109842781
6.10392,12.967597807761914,0.0983490476266506
6.1063,13.01052965888394,0.0980129727452187
6.108703999999999,13.051599178886413,0.0976847336225114
6.111088,13.096533130754858,0.0973410258720731
6.113468,13.134669384451133,0.0970298164028969
6.115863999999999,13.169732602214353,0.0967376795985682
6.118247999999999,13.20000022255182,0.0964674374373781
6.120644,13.226263641396455,0.0962199202208364
6.123048,13.24600890132264,0.0959979654428933
6.125436,13.272971168301575,0.0957338920981494
6.127816,13.299281808974458,0.0954673741875933
6.130219999999999,13.322938722594856,0.0952074745087921
6.132608,13.34687517546898,0.0949415965535134
6.134987999999999,13.368157901290628,0.0946835074364969
6.137379999999999,13.383713864126747,0.0944494274514912
6.139767999999999,13.393822603231058,0.0942322948092297
6.142148,13.399275514536477,0.094032953817448
6.144543999999999,13.40728960509575,0.0938097887355478
6.146928,13.410647867856134,0.0936029225877155
6.149307999999999,13.41242333875068,0.0933951997655013
6.151711999999999,13.412476248152531,0.0931907497782077
6.154099999999999,13.40987543050191,0.0929918674819548
6.156479999999999,13.405691820985451,0.0927917266940563
6.158876,13.397923318856735,0.0926009997472528
6.161264,13.396440658220994,0.0923740716659852
6.163643999999999,13.39737940721225,0.0921271854751524
6.16604,13.40209004027086,0.0918467845287571
6.168428,13.405776959971076,0.091551328003562
6.17082,13.411326210790852,0.0912497646019897
6.173215999999999,13.414221734558147,0.0909546842634027
6.175603999999999,13.414463531272974,0.0906650844122888
6.177988,13.419268607988071,0.0903432756593292
6.180383999999999,13.423282288770253,0.0900216213838228
6.182768,13.426504573619514,0.0896995314950603
6.185147999999999,13.43172895921519,0.0893676282718501
6.187551999999999,13.439095215184146,0.0890231094274492
6.189939999999999,13.439524003354071,0.0887080136771167
6.19232,13.43888185633736,0.0883997786594835
6.194724,13.439450414134146,0.0880814237986504
6.197112,13.440018971930932,0.0877624567074506
6.199492,13.43965636416794,0.0874463819680913
6.201887999999999,13.444368893084423,0.0871063472064706
6.204275999999999,13.4532253931206,0.0867450813379441
6.206656,13.46422376353005,0.0863728185401963
6.209056,13.472428637260167,0.0860095813485589
6.211439999999999,13.47756047505723,0.0856613925028969
6.213824,13.481341838413933,0.0853269250798957
6.216219999999999,13.484703892890057,0.0850022472043071
6.218604,13.485551989940562,0.0846781243988378
6.220999999999999,13.483746359938594,0.0843579049841968
6.223404,13.481800960309767,0.0840404928168175
6.225787999999999,13.476642755121023,0.0837413567647925
6.228172,13.469622218812724,0.0834469655178127
6.230567999999999,13.464603783250842,0.0831444483861517
6.232952,13.460796052502458,0.082832715747118
6.235335999999999,13.458850652873627,0.0825169241374336
6.23774,13.466915756976888,0.0821604550608135
6.240123999999999,13.474189465147225,0.0818033130716121
6.242508,13.479461072571146,0.0814536621111609
6.244903999999999,13.49008735592826,0.081076611174115
6.247291999999999,13.4997824737256,0.0807016557492161
6.249672,13.50519385077638,0.0803497701176489
6.252067999999999,13.5092547533868,0.0800109549180245
6.254456,13.50903191525067,0.0796947256992123
