Time,Force,Position
6.721392,5.147100879534476,0.1696111728900436
6.723772,5.573058708281037,0.1678422001739129
6.726168,5.994693157884278,0.1654421989914272
6.728555999999999,6.402832342373275,0.1630343703495384
6.730939999999999,6.790026937269804,0.1609161061431074
6.733336,7.15939720033516,0.1587255233787544
6.735723999999999,7.500001462277483,0.1569080798593635
6.738104,7.81072156608189,0.1553584703025962
6.740499999999999,8.091742607345616,0.1541608041965427
6.742887999999999,8.35139785427842,0.1530861406602338
6.745272,8.596345235425616,0.1520080720527165
6.747667999999999,8.82565358522742,0.1509447887328223
6.750055999999999,9.028940312899412,0.1500830466061783
6.752435999999999,9.214353591054124,0.1492397645007514
6.754835999999999,9.385245994878328,0.1483284243716506
6.75722,9.53277239948306,0.1474279781917015
6.759604,9.660145610428245,0.1464854508814866
6.761999999999999,9.767737714766213,0.1454998727386293
6.764388,9.850518901787868,0.1445950016464118
6.766772,9.918545001195664,0.1436910026944294
6.769167999999999,9.96087244783988,0.1430096870175667
6.771556,9.99952245407322,0.1423468104640714
6.77394,10.029372661387978,0.1417920668041683
6.776335999999999,10.057313315754936,0.1412904755461443
6.778727999999999,10.086649770532626,0.1408199120159396
6.781108,10.114681076840329,0.1404282261084313
6.7835,10.1469016802381,0.1400409846124674
6.785883999999999,10.188294169606795,0.1395767327304903
6.972263999999999,9.107861558244798,0.1394164021069523
6.974644,9.102975308878298,0.1393540955208185
6.977039999999999,9.1081921110425,0.1391998655998666
6.979424,9.118808915110266,0.1390289324682668
6.981807999999999,9.139249231455018,0.1387779655646528
6.9842,9.168953981569306,0.138467698325716
6.986587999999999,9.200985697654106,0.1381793117373208
6.98898,9.24204953008297,0.1378152561486885
6.991375999999999,9.283717766989648,0.1374864445730021
6.993763999999999,9.33441812024039,0.1370822800641875
6.996143999999999,9.386049639050908,0.1366726909729043
6.99854,9.4403348849139,0.1362430000098613
7.000928,9.493828734843976,0.1358195283962553
7.003323999999999,9.54853328958755,0.1353807534153452
7.00572,9.601095973957849,0.1349738624053308
7.008104,9.657243550940397,0.1345460444626971
7.010487999999999,9.714834150161924,0.1341229915953276
7.012884,9.7784310516227,0.133639125285075
7.015267999999999,9.836813046777149,0.1332193814844093
7.017652,9.89584666823765,0.1328069333299291
7.020047999999999,9.96004797417624,0.1323662670933309
7.022432,10.02052461787572,0.131962312915786
7.024811999999999,10.075134728962809,0.1316191785942344
7.02722,10.130024379303617,0.1312686592409269
7.029603999999999,10.18226030259195,0.1309424820724942
7.031988,10.234775765134003,0.1306102571310465
7.034383999999999,10.288641702116417,0.1302569061958115
7.036767999999999,10.337712041673075,0.1299508613444592
7.039164,10.38627052455054,0.1296374855986518
7.041559999999999,10.430033410002252,0.12936974908501
7.043948,10.474447921760024,0.1291074878489861
7.046327999999999,10.52086453426421,0.128828712791505
7.048724,10.567653233820732,0.1285638426501026
7.051112,10.61323122856376,0.1283188296157753
7.053492,10.658389914426202,0.12808850288725
7.055888,10.697402528422536,0.1279226043139861
7.058275999999999,10.734552811299311,0.127772419349585
7.060651999999999,10.766488187869758,0.1276787673171273
7.063051999999999,10.803498701119675,0.1275358454433182
7.065436,10.83892642250376,0.1273985082414417
7.067831999999999,10.870909020902443,0.12728094464575
7.070228,10.907547447100022,0.1271313641660121
7.072616,10.951635197775827,0.1269294444847572
7.182511999999999,11.096638165665604,0.1269062033713967
7.184911999999999,11.095986539359544,0.1269034722962696
7.187299999999999,11.100642367158438,0.1268714207754421
7.189679999999999,11.106461677942583,0.1268496531607701
7.192076,11.115726111712124,0.1268117045994443
7.194459999999999,11.12508309328028,0.1267947531455616
7.196859999999999,11.135231470781356,0.1267760661557199
7.199256,11.149523819402123,0.1267182479716291
7.201639999999999,11.169822470262142,0.1266086563550259
7.204023999999999,11.203763739294743,0.1263672831596154
7.20642,11.243618762767976,0.1260545997408883
7.208807999999999,11.288828462174402,0.1256892355126068
7.211188,11.332595139341857,0.1253245411227957
7.213588,11.377852060576522,0.1249402875834558
7.215975999999999,11.427951801065188,0.1244958433697258
7.218356,11.479541785621072,0.1240297128388783
7.220751999999999,11.533320862378472,0.1235219089331825
7.223139999999999,11.58593645615062,0.1230047304800725
7.225519999999999,11.635666005444818,0.122485522263156
7.227919999999999,11.680367639887788,0.1219869179195925
7.230307999999999,11.724976726532136,0.1214700865407865
7.232688,11.7614848623922,0.1210015828014809
7.235083999999999,11.793616709707097,0.1205555984978109
7.237471999999999,11.824165765156156,0.1201138836446941
7.239867999999999,11.856065295045571,0.1196567250616754
7.242263999999999,11.890665773815703,0.119163504243811
7.244652,11.928339288518895,0.1186470037403777
7.247031999999999,11.96587303359523,0.1181369708061042
7.249431999999999,12.006060505724037,0.1176199172036852
7.251819999999999,12.03847189229265,0.1171847614042171
7.254199999999999,12.070044661100104,0.1167790087551724
7.256599999999999,12.098125085093924,0.1164123098145683
7.258984,12.12471526502052,0.1160675517532902
7.261367999999999,12.146090538640784,0.1157675749638977
7.263764,12.169048604126884,0.115468243067172
7.266155999999999,12.192937835172769,0.1151660581151519
7.26854,12.214917513270848,0.1149000087160721
7.270935999999999,12.24113371028724,0.1146223648670438
7.273323999999999,12.271306886968222,0.1143406067831367
7.275703999999999,12.304645647380877,0.1140555845095455
7.278103999999999,12.339287660405647,0.1137787702448953
7.280491999999999,12.379097357908506,0.1134855257109463
7.282876,12.42128124321012,0.1131901148849571
7.285271999999999,12.466910251497128,0.1128850222106694
7.287663999999999,12.510769476463196,0.1126111671328009
7.290047999999999,12.556723349974297,0.1123458859079631
7.292439999999999,12.60104720979132,0.112107149078935
7.294824,12.64467222147404,0.1118886671511108
7.297203999999999,12.686015593156624,0.1116943348449903
7.299607999999999,12.73043200077226,0.1114790989733232
7.301992,12.772566768387764,0.1112859240277275
7.304371999999999,12.81777457193632,0.1110723390990039
7.306768,12.866055411417934,0.1108375048149182
7.309151999999999,12.9174092868326,0.110581829233615
7.311548,12.9624773207543,0.1103738528103512
7.313951999999999,13.003541153183162,0.1101930091984016
7.316336,13.04302219374619,0.1100143455934015
7.318716,13.08092044244338,0.1098391039583019
7.321119999999999,13.11258007147584,0.1096872618724577
7.323507999999999,13.1466611101353,0.1095130979964288
7.325887999999999,13.177297025809368,0.109349665494453
7.328291999999999,13.203696422565123,0.1091977198053447
7.330675999999999,13.22693023558921,0.1090482928736346
7.333055999999999,13.245787760068122,0.1089137338843775
7.335459999999999,13.261759240069084,0.1087740314042367
7.337843999999999,13.270980243726118,0.1086504880377552
7.340223999999999,13.27745497253206,0.1085179654592153
7.342627999999999,13.28318552723333,0.1083640593694655
7.345015999999999,13.280954900777171,0.1082372825100175
7.347396,13.273696359469788,0.1081212053073124
7.349791999999999,13.265181787378532,0.107976515051201
7.352176,13.251499530809186,0.1078459693347634
7.354559999999999,13.236793560881445,0.1077013174198008
7.356964,13.216919906475614,0.1075703302082109
7.359347999999999,13.203379315390997,0.1073734945665358
7.361727999999999,13.187324766880764,0.10718117089631
7.364132,13.172900232064617,0.10696591712148
7.366519999999999,13.15288870388979,0.1067751800393103
7.368895999999999,13.13450718940905,0.1065607902185103
7.371291999999999,13.110538681569636,0.1063710862460005
7.373676,13.082845511491108,0.1061974141578497
7.376056,13.053569549546744,0.1060238862348866
7.378459999999999,13.02736662353544,0.1058299233164097
7.380848,13.004795811964629,0.1056007655625665
7.383227999999999,12.984227101140233,0.1053591802613707
7.385624,12.965660491062255,0.105104986838284
7.388012,12.948676672850114,0.1048497201791829
7.390392,12.93341541613067,0.1045899478857918
7.392787999999999,12.923601383143035,0.1043087449606948
7.395171999999999,12.91802386907371,0.1040184818417711
7.397551999999999,12.909837953922288,0.1037765139012226
7.399948,12.904677852875674,0.1035369248629068
7.402331999999999,12.903614501120511,0.1032932883961443
7.404727999999999,12.909581164962995,0.1030293534440148
7.407124,12.914150132536877,0.1028041729201852
7.409511999999999,12.924817950148627,0.1025628166105525
7.411892,12.932365509999077,0.1023628270584147
7.414296,12.94829355988753,0.1021285810927389
7.416684,12.973905352426106,0.1018687987547849
7.41906,13.005895534256274,0.1015877375248527
7.421464,13.048128537244,0.1012660853404718
7.423852,13.093899211015732,0.1009548661025338
7.426231999999999,13.138971036653167,0.1006633996645836
7.428628,13.178920503782884,0.1004241923116778
7.431011999999999,13.221895785017416,0.1001902063482744
7.433391999999999,13.267757110729898,0.099964449528896
7.435787999999999,13.317063559427776,0.099733118882734
7.438175999999999,13.367813030364628,0.0995073367890113
7.440567999999999,13.422007624286872,0.099275922336902
7.442967999999999,13.477133383768896,0.0990431543483947
7.445352,13.538544984743892,0.0987711432288342
7.447732,13.601027520905523,0.0984932810154946
7.450127999999999,13.657084445947326,0.0982591314633787
7.452515999999999,13.709137169496296,0.0980475024858748
7.454896,13.758396396365931,0.0978470807175385
7.457288,13.80514166580995,0.0976510254704425
7.459676,13.854308344880968,0.0974340455743607
7.462071999999999,13.895326851339458,0.0972626774297349
7.464468,13.927545558879364,0.0971338686465956
7.466856,13.953757964180015,0.0970365468578476
7.469235999999999,13.971450109815803,0.0969732827416658
7.471639999999999,13.991191578026251,0.096879691332693
7.474024,14.014145851796616,0.096766711196088
7.476407999999999,14.041383866313534,0.0966269118872588
7.478804,14.063174657098642,0.0965036712625425
7.481187999999999,14.082591260084996,0.0963803958942853
7.483568,14.095489704152902,0.0962800281618889
7.485972,14.10694512598183,0.0961764775144939
7.48836,14.117376834452369,0.0960597930594131
7.490739999999999,14.12701714698998,0.0959435625980578
7.493136,14.13679722915446,0.0958247449058118
7.495524,14.14299241870668,0.0957150408962052
7.497904,14.150445534900644,0.0955751564544166
7.500311999999999,14.15831795997519,0.0954253431132492
7.502696,14.1646075931839,0.095274843755793
7.505075999999999,14.171688622325528,0.0951248135653611
7.507472,14.179700817026932,0.0949721985430275
7.50986,14.196140723594588,0.0947723655848599
7.51224,14.21313970866968,0.0945590071971352
7.514635999999999,14.22655380113252,0.0943535547287291
7.517023999999999,14.246253735088333,0.0941135109209465
7.51942,14.259807597178035,0.0939053980809943
7.521815999999999,14.267634696282208,0.093719246915565
7.524203999999999,14.269735032400847,0.0935542974110165
7.526584,14.275048174079403,0.0933703672926779
7.528979999999999,14.28236341650438,0.0931775768229013
7.531367999999999,14.294474256355103,0.0929665542419379
7.533747999999999,14.304023916951971,0.0927782013213268
7.536144,14.309801693481484,0.092622227918385
7.538532,14.312506434077944,0.0924819070623497
7.540911999999999,14.310275807621789,0.0923629810948657
7.543308,14.312840778591385,0.0922263288704841
7.545695999999999,14.316569232546238,0.0921004835751224
7.548079999999999,14.322160017620645,0.0919692039434296
7.550476,14.330684069001244,0.0918260918227079
7.552859999999999,14.33962742926243,0.0916735457584757
7.555256,14.34684822803092,0.0915237875002795
7.557656,14.34512945825396,0.0914125945690318
7.560039999999999,14.346204185156338,0.0912931553362803
7.562419999999999,14.351655200603885,0.091165829028999
7.564819999999999,14.353334331984078,0.0910700295860157
7.567204,14.363021866349936,0.0909393739831833
7.569587999999999,14.372429861462075,0.0908148839866091
7.571983999999999,14.3906376554928,0.0906561113024907
7.5743719999999986,14.406563809523387,0.090512848087008
7.576751999999999,14.41955669724778,0.0903813814963284
7.579148,14.431758189039254,0.0902499260357907
7.581531999999999,14.443587593778387,0.0901079954367176
7.583931999999999,14.45984050889094,0.0899394714000287
7.586328,14.47623319363035,0.0897675948698295
7.588716,14.496630079862596,0.0895787110335847
7.591099999999999,14.512091599042227,0.0894100771028232
7.593496,14.52876382303536,0.0892329666683959
7.595884,14.540500679975878,0.0890756124039482
7.598263999999999,14.55116660172976,0.0889244307578848
7.600655999999999,14.56276368904342,0.088771293932366
7.60304,14.573150071543576,0.0886271954354772
7.605435999999999,14.588192281842629,0.0884698061910899
7.607832,14.600021686581766,0.0883300762668571
7.610215999999999,14.617485306507817,0.0881559540679079
7.612596,14.636439170501085,0.0879667934096925
7.614988,14.648176027441602,0.0878120274443514
7.617372,14.666058956248232,0.0876298528167408
7.619767999999999,14.67793558281561,0.087473001365834
7.622164,14.693956180502685,0.0872972217794578
7.624547999999999,14.713980979682592,0.0871058891745301
7.626927999999999,14.732003678116085,0.0869229013536414
7.629323999999999,14.755892909161965,0.0867198129626598
7.631708,14.774567233901507,0.0865417468333671
7.6341,14.794032954573977,0.0863644141086224
7.6365,14.808563308193827,0.086205451575634
7.638883999999999,14.82574738886616,0.0860423083047704
7.641264,14.842931469538488,0.085879993582126
7.643659999999999,14.865842313196348,0.08570045698634
7.646044,14.888473617600487,0.0855272662774872
7.648439999999999,14.907892116444708,0.0853709252142655
7.650836,14.92959225528907,0.0852008626953631
7.653219999999999,14.951851472640872,0.085019077771675
7.6556,14.97667186924653,0.0848175203048962
7.658004,14.995346193986077,0.0846432299003136
7.660387999999999,15.014160288352487,0.0844665266921529
7.662768,15.036187188278808,0.0842738447566458
7.665172,15.053418490779382,0.0840963359019472
7.66756,15.07400236846673,0.083900377995018
7.669939999999999,15.089650879101468,0.0837220876091958
7.672336,15.099944713803012,0.0835703001297772
7.674723999999999,15.115453454810886,0.0833960996114239
7.677104,15.12467635432579,0.0832504896615524
7.679504,15.137391598654332,0.0830833537612532
7.681891999999999,15.151597087050092,0.0829023682184403
7.684272,15.1730195824986,0.0826918955771308
7.686667999999999,15.193418364588712,0.0824679581955353
7.689052,15.207950614066435,0.0822626094959597
7.691443999999999,15.219177510185624,0.0820572287788453
7.69384,15.232174189625756,0.0818321729576841
7.696228,15.246381573879386,0.0815990823633878
7.698608,15.259378253319516,0.0813744887380902
7.700999999999999,15.273166328692565,0.0811517256591414
7.703384,15.285883468878971,0.0809345237408058
7.705779999999999,15.30074247943866,0.0807076545449902
7.708183999999999,15.314530554811707,0.080486234375202
7.710571999999999,15.32752723425184,0.0802642970607697
7.712952,15.342665784065249,0.0800329153644125
7.715344,15.35566246350538,0.0798120018115325
7.717732,15.373594509998124,0.0795760562512017
7.720112,15.396229606117998,0.07931218815828
7.722515999999999,15.416583062237736,0.0790625592696548
7.7249,15.442430963917529,0.0787866527705341
7.727283999999999,15.471072362276656,0.0785069621886268
7.729687999999999,15.500505156568703,0.0782296637481296
7.732071999999999,15.525654210114194,0.0779724617701237
7.734451999999999,15.556250487391496,0.07770907930064
7.736855999999999,15.596065872467962,0.0774136677108682
7.739243999999999,15.638534984596903,0.0771170487282605
7.741619999999999,15.681795492658766,0.076823376407235
7.744024,15.727197871093905,0.076521931887146
7.746411999999999,15.776092594342678,0.0762030011005916
7.748792,15.822054051285257,0.0758928754037044
7.751187999999999,15.873882040840224,0.07556988757804
7.753575999999999,15.925989569648914,0.0752429701267703
7.755955999999999,15.981449673644375,0.0749020848026439
7.758348,16.041984914319315,0.0745477687390741
7.760736,16.10331155092717,0.0741966975166944
7.763131999999999,16.168642389027855,0.0738362003583172
7.765528,16.231459269702935,0.0734768838867623
7.767911999999999,16.295626624818368,0.0731112765261021
7.770296,16.357280022508185,0.0727458979804767
7.772687999999999,16.418142024265084,0.0723822583199576
7.7750759999999985,16.473417032663317,0.0720287593332121
7.777452,16.526969479568848,0.071676876326585
7.779847999999999,16.583222875355105,0.0713078268358606
7.782235999999999,16.635891378529102,0.0709442480727839
7.784628,16.679620313157656,0.0706044372655473
7.787023999999999,16.72348901741307,0.0702637570286749
7.789411999999999,16.764284685735426,0.0699331815166034
7.791791999999999,16.803218022938225,0.0696064498686305
7.794195999999999,16.837867619394476,0.0692964657587494
7.796579999999999,16.87573002141064,0.0689758916317764
7.798959999999999,16.90386145894844,0.068676275119992
7.801359999999999,16.933715457978934,0.068378435574719
7.803744,16.955141745143184,0.0681082584313897
7.806139999999999,16.970421960441318,0.0678565043922464
7.808532,16.984771010179678,0.0676066715739054
7.810919999999999,16.994464232119142,0.0673632028848899
7.813295999999999,17.005600476297587,0.0671258872958455
7.8157,17.010683196408532,0.066920050821226
7.818087999999999,17.015346607638904,0.0667218651320818
7.820468,17.018100465921474,0.0665431629435778
7.822872,17.02136618088324,0.0663709467506529
7.82526,17.02556306140478,0.0661979940831974
7.827639999999999,17.02612782748583,0.0660436829325204
7.830043999999999,17.024271183939884,0.0659016682136603
7.832428,17.02627897225991,0.0657528987755298
7.834807999999999,17.025073955020016,0.065614896583789
7.837211999999999,17.025871038526546,0.0654724805821095
7.839599999999999,17.021453215726737,0.0653447692679193
7.841979999999999,17.017035392926932,0.065216946182196
7.844384,17.00740266382079,0.0651040109536447
7.846767999999999,17.00056343139399,0.0649879340641251
7.849148,16.98571579598152,0.0648894313577635
7.851552,16.9763626061291,0.0647706025728082
7.85394,16.964215919597343,0.0646542287371753
7.856316,16.94727363563984,0.0645447860919149
7.858711999999999,16.92497667574914,0.0644523655383025
7.861096,16.894159456193577,0.0643704494672924
7.863479999999999,16.8591057177197,0.0642850787423654
7.865883999999999,16.82367989219349,0.0641897827470418
7.868267999999999,16.78150359032335,0.0640883476667167
7.870647999999999,16.738675662147156,0.0639821654385083
7.873044,16.69063282766463,0.0638904503835267
7.875427999999999,16.640727662062545,0.0638001587227235
7.877808,16.588168769407986,0.0637094629237625
7.880212,16.53360777600701,0.0636225820629209
7.8826,16.477463990740198,0.063531668706286
7.884979999999999,16.41438273767436,0.0634542704573547
7.887376,16.355445455728212,0.0633649275734093
7.889763999999999,16.29357490747587,0.0632803121068694
7.892144,16.23477739515658,0.0631872080199548
7.894539999999999,16.173838012464017,0.0631006876107034
7.896927999999999,16.11690283126429,0.0630049301877235
7.899324,16.05926880193026,0.0629218285008058
7.901719999999999,16.00521966520848,0.0628374750256232
7.904104,15.954755421098955,0.0627519071269137
7.906483999999999,15.91215981034824,0.0626512747542646
7.90888,15.878084459262386,0.0625399117572832
7.911268,15.85224982858768,0.0624232696894327
7.913648,15.828509846458006,0.0623172049043771
7.916051999999999,15.808447304739202,0.062225215340722
7.918439999999999,15.789827785259371,0.0621394070321011
7.920819999999999,15.774932928018655,0.0620500651518235
7.923216,15.763762733017057,0.0619572588000511
7.925604,15.754826956187353,0.0618725016558803
7.927983999999999,15.748265367156396,0.0617933025697415
7.930379999999999,15.745009131483975,0.0617188257180104
7.932767999999999,15.75027315547642,0.0616341727304266
7.93516,15.763777899880008,0.061545499881012
7.937555999999999,15.782869637642268,0.0614520641297771
7.93994,15.800471131337307,0.0613702801135199
