Time,Force,Position
9.249296,1.866007317424637,0.1593291796218922
9.251684,1.884207528023884,0.1592325997010713
9.254064,1.9059926312353843,0.1589765497626686
9.256468,1.9261949425810485,0.1587931321821361
9.261232,1.96459746452596,0.1585571777676668
9.263636,1.9860104806851224,0.1582847925203184
9.266024,2.012498633523758,0.1577147160974958
9.268404,2.0371244552428363,0.1572375974361282
9.2708,2.065335169574168,0.1566098583869792
9.273188,2.092986805398059,0.1560876392994811
9.275568,2.123943794580482,0.1554597300124111
9.277972,2.1608598641739127,0.1546193802497665
9.280356,2.204154323058932,0.1535191919720856
9.28274,2.252104609742842,0.1521957353916196
9.285136,2.3036397890390057,0.1506968404068086
9.287524,2.3559663642680877,0.1491931195982391
9.289904,2.409084335430087,0.1477497967417466
9.292308,2.4607592843531108,0.1463924739426123
9.294696,2.506195613611406,0.1453221357589785
9.297076,2.5472556543245317,0.1444300763608618
9.29948,2.5864533639180998,0.1436533099618264
9.301868,2.622717807205472,0.1430305114582632
9.304248,2.660425272731821,0.1424339957142995
9.306644,2.697201572698391,0.141899446793876
9.309032,2.740123944531073,0.1410713824229619
9.311412,2.781835611550255,0.1403659042785817
9.313808,2.820474242636382,0.1398242603961686
9.316196,2.8623256792824248,0.1391459984939168
9.318576,2.901523388875993,0.1385516371018382
9.32098,2.941280176977002,0.1378809979008208
9.323368,2.978802546906117,0.1372325557169376
9.325748,3.0092949012375856,0.1367617267587669
9.328144,3.0326174703445488,0.1364985699427647
9.330532,3.0526346860929783,0.1363030810563896
9.332916,3.071488418856153,0.1360800039398665
9.335312,3.0909012301267684,0.1357932196877199
9.34008,3.11189493740535,0.1357518512442348
9.34248,3.125580985690436,0.1356464369452935
9.344868,3.139546573229241,0.1355041170491181
9.347248,3.155933570395044,0.1352496575913214
9.349652,3.170877545321872,0.1349937975614767
9.35204,3.1826559365170257,0.1347809041511283
9.368764,3.1962022151752514,0.1347013067040728
9.371168,3.198623624802248,0.1345896397636258
9.373552,3.207330875922216,0.1342556552614274
9.375932,3.2181799974154623,0.1338380656682609
9.378328,3.2302398237222065,0.1333678763787834
9.380716,3.247514556335283,0.1327414964319037
9.383096,3.2641376626423018,0.1321191651036301
9.3855,3.2894680200692883,0.1311754950614035
9.387884,3.3152176863768563,0.1301954541186172
9.390264,3.3347287330196966,0.1293357203251655
9.447612,3.0949056062380897,0.1291561500112415
9.450008,3.096862381014133,0.1289336823726474
9.452395999999998,3.097748220603538,0.1287476810433472
9.454776,3.094769628326969,0.1286661323965133
9.457172,3.094072676050536,0.128491744048047
9.45956,3.0935154934009645,0.1283024701977016
9.461939999999998,3.0949604114978104,0.1280501789842102
9.464336,3.097196725527573,0.1277909766137384
9.466724,3.104508176236809,0.1273648646750825
9.469104,3.107256346945769,0.1271306860532141
9.4715,3.111447539893708,0.1269003392620835
9.473888,3.117221524707481,0.126655041351147
9.476284,3.134868344372895,0.126035759298032
9.47868,3.154517264784725,0.125353300652206
9.481068,3.1712329188903605,0.1247547968652361
9.483448,3.188088342622857,0.1241406865671111
9.485844,3.2024298089297383,0.1235695876364849
9.488232,3.213838008930425,0.1230889570537882
9.490612,3.229902036730003,0.1225002341304679
9.49302,3.245034898969803,0.1219500885694016
9.495408,3.25495285490327,0.1215816210213527
9.497788,3.2585849693437656,0.1214272006573514
9.500184,3.266872911583153,0.1211721387630681
9.502572,3.2807478471812117,0.1208000114612304
9.504952,3.295134639458466,0.1204562771200207
9.507348,3.306029086922086,0.120246601934357
9.509736,3.3186460958784028,0.1200113993483291
9.512116,3.3339168318871937,0.1197353192473855
9.514516,3.352120834202179,0.1193972047396262
9.5169,3.36781087909155,0.1190747653875644
9.519284,3.3857825639810586,0.1186764205496299
9.52168,3.405756349616984,0.1182277090562866
9.524068,3.421865703386936,0.1178795134943978
9.526452,3.4346224819701114,0.1176438640649119
9.528848,3.4528264842850973,0.1173099234051653
9.531232,3.473544444025697,0.1169546393636829
9.533628,3.4980796138040287,0.1165976408266215
9.536028,3.52685130250067,0.1161948632187958
9.538416,3.554552056010673,0.1158402115276222
9.540796,3.579831399893679,0.1155792004265343
9.543192,3.607764470829159,0.115277698425353
9.54558,3.6360696288169776,0.1150118461155975
9.54796,3.66102221161802,0.1148581909156074
9.550356,3.682622219232286,0.1148166367612501
9.552744,3.704082457219692,0.1147884841972796
9.555124,3.731548997446348,0.1146168122746031
9.557524,3.7619488039792,0.114388665338217
9.559912,3.7906260490193553,0.1141865953993661
9.571852,3.918129550302049,0.1141710150477851
9.57424,3.947875834670974,0.1141492261248219
9.576636,3.978041427920479,0.1140981516056434
9.590972,4.118207264129863,0.1140836385787765
9.593368,4.13980727174413,0.1140564426034891
9.595756,4.166482416037868,0.1139218576469219
9.59814,4.192226394771828,0.1137984469372654
9.600536,4.217970373505789,0.1136742752404677
9.602924,4.241852021120192,0.1135859384095945
9.605304,4.26387133761504,0.1135315806897243
9.6077,4.2866820500428044,0.1134768018838884
9.610088,4.311262545791509,0.1133368834025305
9.612472,4.336402120047654,0.1131577299611052
9.614868,4.365545895796633,0.1129035681711253
9.617256,4.401115282665444,0.1124993516309854
9.619636,4.436033043228196,0.1120877940386468
9.622032,4.468297076738473,0.1117135037377809
9.62442,4.4945548080095,0.1114540515157239
9.626804,4.516808337787693,0.1112680072202076
9.6292,4.538782328312167,0.1111060642304699
9.631588,4.563410045889116,0.1109164405355308
9.633972,4.586454971600227,0.1107240985149488
9.636368,4.6097794365650575,0.110511737088824
9.638756,4.630869483357995,0.1102979322422967
9.64114,4.654241170151071,0.11003046461641
9.643536,4.670815158771977,0.1098760259954297
9.645928,4.689950326646741,0.1096435580237426
9.648308,4.71336923526806,0.1093249762675664
9.650704,4.736788143889378,0.1090113609062141
9.653092,4.75741355583136,0.1087353486322209
9.655472,4.775385240720869,0.1084856415242833
9.657868,4.790423659304183,0.1082822251353766
9.660256,4.80224927232758,0.1081484938458014
9.662652,4.808627661619168,0.1080761580972474
9.665048,4.812352323858281,0.108030098127444
9.667436,4.815704899045057,0.107955074881147
9.66982,4.815193042365859,0.1079358933754006
9.672216,4.818033760873437,0.1078408924452508
9.674604,4.821154018634736,0.1077239501265033
9.676984,4.825904290090115,0.1075452099352214
9.67938,4.828420143373599,0.1073608054097933
9.681772,4.836290672590275,0.10706755362311
9.684152,4.846163302553368,0.1067453744173393
9.686552,4.854825227702962,0.1064545270638601
9.68894,4.859762490613444,0.1062105672584425
9.69132,4.867260932777782,0.1058927060715632
9.693724,4.871826108635927,0.1056195464219499
9.696112,4.868941960015844,0.1054350717939178
9.698492,4.86154175322373,0.1052945477144822
9.700888,4.853350150498698,0.1051544641495707
9.703276,4.844367151840748,0.1050149044239726
9.705656,4.841530225048907,0.1047692263689358
9.708052,4.840323311951147,0.1044629886395256
9.71044,4.839675477360828,0.1041142995166331
9.71282,4.839446951651089,0.1037374521872697
9.71522,4.841220526687768,0.103332041447497
9.717607999999998,4.850211108777193,0.1028062521738876
9.719988,4.857339359747065,0.1023022457059893
9.722384,4.86875135146349,0.1017193242864034
9.724772,4.874948436873583,0.1012265977141714
9.727156,4.882076687843454,0.1007244056085194
9.72956,4.889065169186464,0.1002382740829046
9.731944,4.891537592357444,0.099792610318554
9.734324,4.894569094035863,0.0993070944601621
9.736724,4.8946673294080885,0.0988559687048505
9.739108,4.894625795153453,0.0984152482043844
9.741492,4.896074504966036,0.0979260347088154
9.743888,4.898454380338397,0.0974231417042123
9.746276,4.904838457203593,0.0968611498101033
9.748656,4.912573008509147,0.0962577728967845
9.751052,4.925522466121036,0.0955712819772695
9.75344,4.931394686307034,0.0949923379083175
9.755836,4.934193870559977,0.0944609041535053
9.758232,4.937644681118976,0.0939379865256074
9.76062,4.9366719813045625,0.0934994450808488
9.763,4.9286220440642605,0.0931618566919143
9.765396,4.909909976785815,0.0929519047676209
9.767784,4.89105813988051,0.0927507961230434
9.770164,4.870204202228787,0.0925750273966004
9.77256,4.850421199763704,0.0923801477410835
9.774948,4.827565161365565,0.0922309122507633
9.777328,4.800704921474593,0.0921357193401644
9.779728,4.775567243076317,0.0920306314986045
9.782112,4.750010255797461,0.0919536167027352
9.784496,4.729528405198077,0.0918004998058352
9.786892,4.709326093852412,0.0916250259931424
9.78928,4.68656260325289,0.0915151982396575
9.791664,4.667803314146202,0.0913484927480076
9.79406,4.648904255412653,0.0911899571253558
9.796452,4.630377283731442,0.0910613660067121
9.798836,4.607566571303677,0.0910024049434221
9.801232,4.585035398129632,0.0909242903020938
9.80362,4.565157952008063,0.0908302758647556
