Time,Force,Position
9.966428,7.789794812406491,0.1572792614447293
9.968824,7.945775296269155,0.1571488748362103
9.971212,8.093005098899349,0.1570044653793199
9.973592,8.228318636565394,0.1568831235159377
9.975996,8.357302902625966,0.1566978721636032
9.978383999999998,8.477024630774864,0.1565036927758983
9.980764,8.585202181011953,0.1563433483098891
9.98316,8.687841855576485,0.1561193171671054
9.985544,8.780287826669568,0.1559006879469414
9.987924,8.863331490224118,0.1556721530473332
9.990332,8.940417969225532,0.1554084701277218
9.992716,9.008613997367611,0.1551510668681502
9.995095999999998,9.073227028755309,0.154843114448727
9.997492,9.13332589782884,0.1545000598880107
9.99988,9.186908503841796,0.1541431599696653
10.00226,9.23821136571248,0.1537429808487526
10.004656,9.284440986761563,0.1533327727949886
10.007044,9.320754547735053,0.1530028158498226
10.00944,9.34715204863294,0.1527503648781954
10.011836,9.36828931725412,0.1525202192525018
10.01422,9.38095354803868,0.1523608750741932
10.016604,9.390452195091564,0.1522206179379904
10.018999999999998,9.403722726211804,0.1520091687919226
10.021388,9.41741256621263,0.1517804217892812
10.023768,9.429659383974478,0.1515548625206722
10.026164,9.441254575430268,0.1513283415520069
10.028552,9.455131406886196,0.1510639681135745
10.030932,9.466074972035928,0.1508357710437835
10.033328,9.472595026812243,0.1506767100880562
10.078732,9.380575948031222,0.1504530446570308
10.081112,9.380949930941428,0.1503798781582457
10.083507999999998,9.377971338664858,0.1503598526054869
10.085892,9.380067883067763,0.1502730099902504
10.088276,9.38467838489628,0.1501685240037026
10.090672,9.391802844150412,0.1500462654489252
10.09306,9.40013800821804,0.1499028930709627
10.095456,9.40954410747231,0.1497452969898876
10.097852,9.430031645645306,0.1494458298917936
10.10024,9.456245946803826,0.1490819388777043
10.10262,9.482040939081768,0.14873825235262
10.105023999999998,9.509558492852404,0.1483836337300969
10.107412,9.536796507369324,0.1480403645996297
10.109792,9.569202206364332,0.1476568541127684
10.112192,9.60570465465079,0.1472488687638907
10.114576,9.64537268666892,0.1468252679835907
10.11696,9.68355047461983,0.1464356330659984
10.119356,9.724381989623216,0.1460251349780623
10.121744,9.766796296492435,0.1456069292996061
10.124123999999998,9.809862229667717,0.1451913261425397
10.12652,9.849575587656222,0.1448268341238547
10.128904,9.884074039338396,0.1445373437193373
10.131284,9.920295052513264,0.1442353389725138
10.13368,9.956376296061272,0.1439428400814521
10.136064,9.989803812556804,0.1436737979762502
10.138459999999998,10.023231329052338,0.1434065428503532
10.140852,10.058101867786847,0.1431396279853868
10.143236,10.09083053614808,0.1429036924540012
10.145632,10.1186238374567,0.1427256856342073
10.148024,10.14641713876532,0.1425501099336677
10.150412,10.172999735260442,0.1423947710821506
10.152792,10.198511396568923,0.1422550462510838
10.155183999999998,10.226537015303022,0.1421005332373163
10.157572,10.254562634037118,0.1419479337763083
10.159964,10.284358036092152,0.1417584966512566
10.16236,10.314432977400912,0.1415599500874534
10.164748,10.34371652277675,0.1413641044008542
10.167128,10.371137737033033,0.141186197149011
10.16952,10.40135244796865,0.1409850750261647
10.171907999999998,10.434360655583603,0.1407610796933939
10.174304,10.475517035811086,0.140449085491653
10.176696,10.517464811971484,0.1401356152454894
10.179084,10.558621192198965,0.1398261995371649
10.181464,10.598846406866665,0.1395276910953222
10.183868,10.641445809333122,0.1392213646780895
10.186252,10.6831140462398,0.1389242539417093
10.188631999999998,10.721988786467143,0.138651672618565
10.191028,10.761654922627404,0.1383771127161039
10.193416,10.80397478584014,0.1380853169186569
10.195808,10.847365584239515,0.1377849362235415
10.198204,10.891827317825529,0.137472873220358
10.200592,10.93628905141154,0.1371626567701627
10.202972,10.980658237198936,0.1368336091222337
10.205376,11.022233926306995,0.1365286608165384
10.20776,11.058175400228144,0.1362973522868823
10.21014,11.095979205268849,0.1360537324418405
10.212536,11.138346290309828,0.1357538231912267
10.21492,11.18406595053758,0.135415828140201
10.2173,11.225409322220164,0.1351066307870538
10.219703999999998,11.262516174984436,0.1348213293473027
10.222088,11.29282532957654,0.1345993312649345
10.224468,11.319270052302672,0.1344102918003214
10.226864,11.350138285402217,0.1341718136092839
10.229247999999998,11.377933482568707,0.1339640413892648
10.231644,11.405775901563436,0.1337325814311949
10.234039999999998,11.432035528692335,0.1335058717703343
10.236424,11.457923068768894,0.1332672243058325
10.238804,11.480784794740645,0.1330335674516293
10.2412,11.501132563286776,0.1328126148408768
10.243588,11.513751468100958,0.1326568877978654
10.245984,11.52399618511639,0.1325084592201431
10.248376,11.530935548773288,0.1323740699888382
10.250763999999998,11.53466210687027,0.1322746638302654
10.253144,11.542951944967529,0.1321206589598313
10.25554,11.55366319269178,0.1319343574512315
10.274652,11.465920271225835,0.1318497423163491
10.277048,11.45018679622396,0.1318437181877737
10.279432,11.433522155662304,0.1318436966539711
10.281812,11.41713705435437,0.1318344427901661
10.284216,11.404895924166132,0.1317840144329605
10.286604,11.400104118456117,0.1316800686710516
10.288984,11.396802556813324,0.1315514245754402
10.291388,11.395782635170669,0.1313952806475676
10.293772,11.393971317595094,0.1312409632830568
10.296152,11.394162100765934,0.13106855995274
10.298556,11.397053832817496,0.130855639253581
10.30094,11.393008097070028,0.1307030461806406
10.30332,11.384446303150526,0.1305787191769883
10.305712,11.380819876283637,0.130411613944672
10.3081,11.38161695979016,0.1301947828602789
10.310496,11.385766618483464,0.1299391527533198
10.312892,11.39247745643062,0.1296469909947304
10.315276,11.401469934377918,0.129327300470983
10.37742,10.660591329589677,0.1291873707055633
10.379808,10.633173907049128,0.1291748951100846
10.382184,10.61562721861381,0.129073764520009
10.384588,10.598732156484544,0.1289754796135731
10.386976,10.578624288795368,0.1289124817313519
10.389356,10.560518521852606,0.1288301193608999
10.39176,10.546277186775818,0.128714527445205
10.394144,10.534177722072307,0.1285747921820949
10.396524,10.517654746995383,0.1284877350721008
10.39892,10.500432923784158,0.1284250883283869
10.401307999999998,10.485725057998543,0.1283507558819548
10.403688,10.47381068889227,0.1282550543258978
10.406092,10.467762852398383,0.1281066218208303
10.408476,10.46623107407653,0.1279276167444141
10.410856,10.463628360568036,0.1277605628506036
10.41326,10.457812841499628,0.1276292960777999
10.415648,10.458143394297329,0.1274354168585631
10.418028,10.462198609334145,0.1272133680077871
10.420424,10.46518288918432,0.127003273763144
10.422812,10.467887629780776,0.1268037394070746
10.425192,10.47096445742957,0.1266174063616465
10.427587999999998,10.473761745824644,0.1264415089635662
10.429972,10.476791351645195,0.1262839329697261
10.432352,10.486758425264776,0.1260637080774162
10.434755999999998,10.497377125190413,0.1258463238512902
10.437144,10.509159308101305,0.1256404959316562
10.439524,10.519730786198698,0.1254517727832245
10.44192,10.534678552841266,0.1252401449188606
10.444308,10.55670355690972,0.1249619173957903
10.446688,10.583663928030788,0.1246419925373806
10.449084,10.610484529524996,0.1243282818828802
10.451472,10.639679318817956,0.1240097337721722
10.453852,10.666173159230198,0.123734502148573
10.456256,10.69238746038872,0.1234707511792276
10.45864,10.722326423786354,0.1231823673361945
10.46102,10.75906308535616,0.1228398103819223
10.463412,10.795380438045385,0.1225145583952902
10.465796,10.828484985174692,0.1222234126020995
10.468176,10.865593733796834,0.1218989936656246
10.470572,10.900560612045698,0.1215971221401481
10.472956,10.935387720667702,0.1213010702188608
10.475352,10.96658271484921,0.1210514886836062
10.477748,10.995915377911164,0.1208153300976369
10.480132,11.025759897652316,0.1205899823748422
10.482528,11.055744187020323,0.1203601267558005
10.48492,11.084145684522497,0.1201340932941997
10.487308,11.114409513144228,0.1198967176978531
10.489688,11.138946578780429,0.1197017274169775
10.49208,11.159199903670071,0.1195504979731901
10.494468,11.174378091880246,0.1194442411190514
10.49686,11.18913697120984,0.1193520309481103
10.499256,11.204035620166296,0.1192558012809692
10.501639999999998,11.224009405802216,0.1191167738168596
10.50402,11.243052025878368,0.1189843554288106
10.506416,11.258881840394595,0.1188839652700356
10.508804,11.271638618977772,0.1188111035234252
10.5112,11.28211375756081,0.1187635798244922
10.513596,11.296732867263543,0.1186795992830229
10.51598,11.310932668085696,0.1186100407576637
10.518364,11.32792596558718,0.1185234154676118
10.52076,11.346129967902169,0.1184228449244553
10.523148,11.371830516523625,0.1182520148504115
10.525528,11.399533165891496,0.1180661088244679
10.527932,11.422440217833614,0.1179134959092784
10.53032,11.446138665708656,0.1177600051363937
10.532699999999998,11.47155967507639,0.1176002996042854
10.535096,11.493767878884208,0.1174706539044867
10.53748,11.519560975304282,0.117322918717963
10.53986,11.547495942097632,0.1171552190091059
10.542255999999998,11.57664161370448,0.1169728592530764
10.54464,11.606346363818766,0.1167735440218655
10.547036,11.637261818746556,0.1165617567624904
10.549432,11.663661215502314,0.1163750312275083
10.551816,11.690340151511789,0.116180441722627
10.554196,11.716367461215208,0.1159823743328856
10.5566,11.743465706105264,0.1157755173362704
10.558988,11.772985360622322,0.1155411765685309
10.561368,11.801573849579595,0.115314340866002
10.563764,11.824435575551345,0.1151238111830076
10.566147999999998,11.85237243820256,0.1148967767487008
10.568544,11.88016953122692,0.1146755538169746
10.570939999999998,11.903310796452388,0.1144823538377278
10.573328,11.92258762981188,0.114314079878915
10.575708,11.94763844798515,0.1140879667322107
10.5781,11.973108575038996,0.1138502422175237
10.580488,11.996064744667231,0.1136199152988185
10.582868,12.019719762429764,0.1133682801736295
10.585264,12.042211297207045,0.1131068650566806
10.587648,12.064702831984322,0.1128462589200702
10.590044,12.08747390601532,0.1125777866752768
10.59244,12.1094535841134,0.1123110114315762
10.594824,12.127988139226089,0.112057008154957
10.597207999999998,12.144660363219218,0.1118127280641625
10.599604,12.158539090533017,0.1115833503711129
10.601988,12.173628522660309,0.1113408457661486
10.604384,12.18634376698885,0.1111013414453486
10.60678,12.19468272277222,0.1108782349505144
10.609168,12.19822608112984,0.1106836200947641
10.611548,12.20246828762176,0.1104674289368931
10.613944,12.195536507396335,0.1103103767997012
10.616328,12.184507977879466,0.1101610158789226
10.618708,12.171756886869897,0.11001694647184
10.621104,12.15970464399463,0.1098518332124039
10.623488,12.139504228506835,0.1097457642411784
10.62588,12.117721021153203,0.1096405997167653
10.628276,12.09956992824007,0.1094959240664313
10.630664,12.081838144207516,0.1093384528280865
10.633044,12.062523568309128,0.1091816745806132
10.635447999999998,12.043116444612116,0.1090046970721081
10.637832,12.022126529049272,0.1088283699701211
10.640212,11.999693591247452,0.1086484865898421
10.642604,11.977679962326212,0.1084556329734141
10.644991999999998,11.956225411912412,0.108245729047456
10.647388,11.934398774446276,0.1080232334834918
10.649784,11.91313121548758,0.1077838755837964
10.652171999999998,11.890280864663046,0.1075445908205402
10.654552,11.87064331939843,0.1072785062209059
10.656944,11.853986262268254,0.1069696075951683
10.659332,11.841473176257768,0.1066297611368591
10.661724,11.83110196062056,0.1062708080953029
10.66412,11.82073074498335,0.1059104614819596
10.666508,11.809707903040088,0.1055452086510906
10.668888,11.798824830723683,0.1051748703833523
10.671284,11.789292232847636,0.1047857423614078
10.673668,11.775895203105616,0.104417523922719
10.676063999999998,11.756352101497486,0.1040926725764
10.67846,11.736669230262496,0.1037712898573626
10.680844,11.717777754960425,0.1034487111413391
10.683224,11.693950912605738,0.1031555689691248
10.685619999999998,11.673336875810971,0.1028358244842753
10.688008,11.6556561053224,0.1024981281345078
10.690388,11.636624860393468,0.1021764333463166
10.692784,11.618664550651172,0.1018452977682467
10.695172,11.604428903147994,0.1014962714913643
10.697568,11.58712021971176,0.1011676009423641
10.699964,11.57060293220844,0.100837583473569
10.702348,11.549522364704847,0.100548699955565
10.704732,11.528674114626734,0.1002757469944911
10.707128,11.503681893428926,0.1000312988920506
10.709511999999998,11.47976060741776,0.0997772948635013
10.711896,11.458493048459063,0.0995141066604751
10.714296,11.439879216552844,0.0992417539878636
10.716684,11.426200751699236,0.0989403373210292
10.719064,11.4163867187116,0.0986180105154747
10.72146,11.413370383896137,0.0982584561878536
10.723847999999998,11.411145445013586,0.097897277785402
10.726228,11.409851671690816,0.0975321452086356
10.728624,11.408418128741186,0.0971709547588813
10.731012,11.412431809523364,0.096789139455886
10.733396,11.412813375865053,0.0964445230423262
10.735792,11.407700496646685,0.0961442027845983
10.73818,11.402447847801454,0.0958472783938074
10.740576,11.3974275163817,0.0955672341752218
10.742972,11.391056710521587,0.0953039094856615
10.745356,11.386268696527315,0.0950404701479091
10.74774,11.381852769585375,0.094789347575479
10.750132,11.382651748949774,0.0945016817747854
10.75252,11.38251956275439,0.0942179278657604
10.7549,11.3870432043579,0.093915118714803
10.757295999999998,11.39608290413344,0.0935984547083739
10.759684,11.405913999841896,0.0932829858778355
10.76208,11.419190218535748,0.0929627580116292
10.764475999999998,11.429485949095158,0.0926844933249626
10.766864,11.43922260114713,0.092423641286345
10.769244,11.44746900913188,0.092183838192547
10.77164,11.462513115288802,0.0919120457408956
10.774028,11.476066977378506,0.0916602031539494
10.776412,11.491343400960904,0.0914060136402226
10.778808,11.505409119729803,0.0911640871054328
10.781192,11.5211973999914,0.0909190823456869
10.783572,11.540710342492108,0.0906594436481144
10.785968,11.565018882418569,0.0903795853293647
10.788352,11.590258587904808,0.0900970871942748
10.790748,11.616289689323963,0.0898161391187748
10.793152,11.645905683355371,0.0895269914850747
10.79554,11.678734482946702,0.0892168023498092
10.79792,11.713797700709918,0.0889152744683463
10.800316,11.751235106271896,0.0886169849587303
10.8027,11.789463907766788,0.0883222527871077
10.805084,11.825131530007823,0.0880557131427568
10.80748,11.860659382622,0.0877944540626735
10.809864,11.889249767437146,0.0875676278059073
10.812244,11.916257360386457,0.0873394664462395
10.81464,11.943264953335763,0.087112265528424
10.817028,11.972274647031494,0.0868766097511381
10.819424,11.997931765540445,0.0866674749354434
10.82182,12.029595186288644,0.0864303235370494
10.824204,12.06218977259662,0.0861917680388343
10.826584,12.100790661143852,0.0859268351760915
10.828988,12.143815060064496,0.0856337126961434
10.831376,12.192054365291476,0.0853139648539063
10.833756,12.23708086495854,0.0850158762018667
10.836151999999998,12.285320170185516,0.0847011292898673
10.838539999999998,12.33556157615891,0.0843794801610142
10.840916,12.38314925507983,0.0840642250193992
10.84332,12.433530430680085,0.0837447807580913
10.845707999999998,12.480746022548663,0.0834236448667919
10.848088,12.528241153670963,0.083097256279911
10.850492,12.572942788113933,0.0827805976115703
10.852875999999998,12.619134666624118,0.0824485597020588
10.855256,12.666397480320944,0.0821122535484328
10.85766,12.71994613551074,0.0817437983254775
10.860048,12.778430157753148,0.0813580552414069
10.862428,12.837053949622415,0.0809705545720328
10.864824,12.893955179998988,0.0805873501759673
10.867208,12.953138050375696,0.080191246888294
10.869592,13.005523222580235,0.0798211892524288
10.871996,13.054975128478585,0.0794629689570496
10.87438,13.099631436951176,0.0791236790473429
10.87676,13.140004004677214,0.0788098565732802
10.879156,13.172647708671306,0.0785224609852589
10.881544,13.208364448598454,0.078222798646095
10.883924,13.23793511665949,0.0779512838536121
10.88632,13.26485205766805,0.0776842452490587
10.888708,13.295773200169446,0.0774036293621665
10.891104,13.318965478938894,0.0771477108159341
10.8935,13.34308892326812,0.0768908118027513
10.895888,13.363487705358237,0.0766426273844564
10.898268,13.38374671782149,0.0763982209899443
10.900664,13.400001528791908,0.0761691049380703
10.903052,13.411460742336576,0.075953531129359
10.905432,13.420917855134826,0.0757463938166502
10.907828,13.422925643454851,0.0755551963072943
10.910215999999998,13.425212971028596,0.0753577772528357
10.912596,13.426569133042566,0.0751626068978114
10.914992,13.422198532071,0.0749822117960284
10.91738,13.421040736659354,0.0747861665415226
10.919776,13.42323551643448,0.0745715759436393
10.922172,13.422636799530276,0.0743625295907414
10.92456,13.419524125200454,0.0741519741059667
10.926939999999998,13.421486587550104,0.0739224596124961
10.929336,13.418141595794806,0.0736972082201776
10.931724,13.418428718480005,0.073446779509979
10.934107999999998,13.416993279672504,0.0731964175329822
10.936504,13.406758041946418,0.0729714984001091
10.938892,13.401877480153528,0.0727213716364183
10.941275999999998,13.39285294724094,0.0724876932352052
10.943668,13.385039119141853,0.0722452860261993
10.946056,13.374990872870873,0.0719942192472327
10.948448,13.36550170510733,0.0717292634569309
10.950844,13.35750278141101,0.071448548465366
10.953228,13.34377709472916,0.0711803111155899
10.955612,13.332984674353504,0.0709029467414109
10.958008,13.319538526925374,0.0706269057474571
10.960392,13.305440753191183,0.0703455784117304
10.962772,13.292553684270494,0.0700550734032236
10.965176,13.276081722737551,0.069767031375645
