Time,Force,Position
9.5945,2.89582961181159,0.1699538474501502
9.596896,2.999999168840106,0.1699264807454841
9.599284,3.106682683294237,0.1698563738743524
9.601664,3.2166715511069004,0.1696622858614933
9.604067999999998,3.330245311531816,0.1693976753913994
9.606455999999998,3.4446104678896505,0.1691903754542851
9.608836,3.562328199434261,0.1688016370430878
9.611231999999998,3.683258736538788,0.1682357291783248
9.613616,3.805959056964253,0.1675774140051793
9.615996,3.931639865524157,0.1667545326016237
9.618392,4.057228126285444,0.1658637364768971
9.62078,4.183422687382415,0.1648574020410852
9.623176,4.30449678582954,0.1639088612256117
9.625571999999998,4.4197987953207605,0.16301425760647
9.627959999999998,4.5284447721245416,0.1621487032646998
9.63034,4.625918658068854,0.1614420970753373
9.632735999999998,4.717435359460026,0.1606941510940002
9.63512,4.804857207417619,0.1598398108849622
9.637504,4.88981421563571,0.1588196522550588
9.6399,4.961457262621052,0.158016175989026
9.642288,5.01899495244073,0.1574090996342356
9.644668,5.06349822028138,0.1569442292721031
9.647064,5.098691728382116,0.1565333212485265
9.649452,5.128719447862632,0.1560515095706989
9.651844,5.149437407603233,0.1556240490154052
9.654239999999998,5.157632802044004,0.1553368549093209
9.656627999999998,5.157961458983837,0.1550848921139777
9.659008,5.153356644728926,0.1547933725239952
9.661412,5.142467884838914,0.1545156537830728
9.663799999999998,5.124084474500302,0.1542911330954267
9.66618,5.105143881512118,0.1539455072838979
9.668575999999998,5.078940955500811,0.1536858999528263
9.670963999999998,5.049619667586075,0.1534028490143474
9.673344,5.020625140753303,0.153037913064537
9.75698,4.632892321785885,0.1527989680768122
9.75936,4.683815513172757,0.1527227073263822
9.761755999999998,4.738555914597359,0.1526175078402538
9.764143999999998,4.794040490126636,0.1525658828550736
9.766524,4.853761584574225,0.1524634935305267
9.768919999999998,4.913295687566709,0.1524374808667778
9.771307999999998,4.976135143917726,0.1523641933822174
9.773704,5.042140184000416,0.1522699432159832
9.7761,5.113452678188055,0.1520852787004292
9.778488,5.188350064987947,0.1518585058594501
9.780867999999998,5.268694675519649,0.1515497802180259
9.783272,5.355417675342938,0.1511415212491459
9.78566,5.442000905539368,0.1507555702280488
9.78804,5.53580114278855,0.1502108956791891
9.790436,5.629880919291451,0.1496620470425403
9.792824,5.7243800046749325,0.1491152550629549
9.795203999999998,5.828098197857581,0.148384105132472
9.7976,5.932887326226867,0.1476434505363735
9.799988,6.040656942730592,0.1468220917278975
9.802371999999998,6.151127508115034,0.1459571597771334
9.804768,6.262576460887499,0.145033975920391
9.807156,6.368298650674433,0.1442218539383216
9.809535999999998,6.469365012662476,0.1434821936596348
9.811932,6.571921618717737,0.1427020585446311
9.81432,6.668751461787469,0.1420297189474211
9.816703999999998,6.764697361125665,0.1413322706136585
9.8191,6.859340007851747,0.140636671934208
9.821488,6.949606366032656,0.1400032468285002
9.823871999999998,7.036055514175835,0.1393997696959046
9.826268,7.1138446330272895,0.13893550393206
9.871668,7.739360735490997,0.1388763734124445
9.874052,7.755328423776221,0.1387925946135213
9.876456,7.772833577956905,0.1386332120800197
9.878844,7.783588255793665,0.138525335810751
9.881224,7.796392256205086,0.1383520642037339
9.88362,7.805658585832494,0.1381762459063359
9.886008,7.811247475049032,0.1380062976476277
9.888388,7.815300794227978,0.1378057078172026
9.890784,7.818098082623051,0.1375604742187084
9.893172,7.813353498741281,0.1373711033411737
9.895552,7.802137977769305,0.1372196693028407
9.897948,7.794741562692929,0.1369471165212945
9.900336,7.781293519406929,0.1366918602126063
9.902715999999998,7.761094999777002,0.1364878403367209
9.905116,7.7413630108559,0.1362232240368075
9.9075,7.717813811897068,0.1359698931908475
9.909883999999998,7.68765390622117,0.1357600721608484
9.91228,7.6508832938282065,0.135594881405394
9.914668,7.610435241024374,0.1354322570336288
9.917064,7.564819503742452,0.1353147774355172
9.91946,7.51445539086302,0.1352177912729675
9.929016,7.264814439378037,0.1352047271143985
9.931396,7.199181486347685,0.135146244044124
9.933792,7.131733424026018,0.1350661692972353
9.93618,7.064984209838654,0.1349438383422053
9.938564,6.995860807852535,0.1348311437538709
9.94096,6.927296484373858,0.1346873933762569
9.943348,6.861433109775897,0.1344728910316534
9.945728,6.7920773903643,0.1343281019100454
9.948124,6.720579800579426,0.134220735765454
9.950512,6.649221980421414,0.1341043152011418
9.952896,6.57171808839729,0.1340887142520211
9.955292,6.497566771559941,0.1340013680320078
9.95768,6.424206850655509,0.1339102143377844
9.96006,6.354851131243911,0.1337504912220202
9.96246,6.282142836645536,0.1336628716138523
9.964844,6.215301074659554,0.133478850725571
9.967228,6.150973270099185,0.1332673099200524
9.969632,6.085155221471598,0.1331045249563578
9.972016,6.0258553317624575,0.1328510236135738
9.974396,5.972002665785128,0.1325204169915723
9.995912,5.425006585272456,0.1323740996503917
9.998307999999998,5.373988950229097,0.132355517473052
10.000695999999998,5.327068064477189,0.1323072168542342
10.003076,5.2838246191361495,0.132245029134076
10.005475999999998,5.245609088646343,0.1321315253875219
10.00786,5.207346336328292,0.1320693014097141
10.010244,5.174530807742049,0.1319298873266026
10.015028,5.105312962099444,0.1318462565837368
10.017408,5.07612765209583,0.131753129407381
10.022192,5.018686301790509,0.1317031340208015
10.024572,4.999369830034248,0.1315754603748196
10.026968,4.986571517196436,0.1313420375625378
10.029356,4.979872054396493,0.13103519945604
10.03174,4.97712957126114,0.1307041354358255
10.034136,4.975550571111043,0.1303947083279039
10.036524,4.983422996185588,0.1299252677376923
10.038908,4.9976738105517216,0.1293629785239238
10.041304,5.015229978276388,0.128771580220299
10.043688,5.0300851971203375,0.1282730785539118
10.046084,5.043450171897066,0.1278305576295254
10.048479999999998,5.063333305592244,0.1272922023023977
10.050867999999998,5.079863864100645,0.1268399113707871
10.053252,5.0970460489151055,0.1263991748839937
10.055647999999998,5.119675457461375,0.1258886933164459
10.058035999999998,5.147332780858873,0.1253438980099271
10.060416,5.177643831308846,0.1247718285181472
10.062812,5.213541875117489,0.1241179075269763
10.0652,5.251022710791968,0.1234683501001086
10.06758,5.291436812772643,0.1227782100410763
10.069976,5.335063720313232,0.1220205573640808
10.072364,5.377479923040323,0.1213088878041475
10.074748,5.417195176886697,0.1206903792264163
10.077144,5.455699725919572,0.120112951597038
10.079528,5.495414979765945,0.1195100633527705
10.081924,5.534850694358599,0.1189279389893401
10.084324,5.575449891936508,0.1183830289443201
10.086712,5.614558845447197,0.1178948442786971
10.089092,5.65711292194328,0.1173880695228013
10.091487999999998,5.704183056611393,0.1168354522222793
10.093875999999998,5.75455854463804,0.1162646574825116
10.09626,5.800650291918132,0.1157855941227644
10.09866,5.850326931810478,0.1152712685010987
10.101048,5.90051542838202,0.1147799572579436
10.103428,5.946140644953289,0.1143879101313442
10.105828,5.987482120778003,0.1140789440865105
10.108216,6.029055914028195,0.1138058554951337
10.110599999999998,6.073143664704001,0.1135273051601424
10.112996,6.118534667991924,0.1132693596773186
10.115384,6.164157988705322,0.1130493746861931
10.117767999999998,6.212155497217475,0.1128308989434182
10.120164,6.2605250927819664,0.1126373842815129
10.122552,6.309546314652515,0.1124492831497333
10.124935999999998,6.3601503283889,0.1122613395970121
10.127332,6.412197364364262,0.1120835066513729
10.12972,6.468248601832457,0.1118576948336123
10.132099999999998,6.52551054411415,0.1116183041978315
10.1345,6.584634817515401,0.1113648687294971
10.136888,6.642688155730013,0.1111357255507272
10.139267999999998,6.698739393198207,0.110934285995015
10.141668,6.7560013354799,0.1107139347128549
10.144056,6.818850271120263,0.1104484582299838
10.146439999999998,6.883841077133903,0.1101595344587804
10.148836,6.948692113520684,0.1098810348314296
10.151224,7.0167559554673815,0.1095548631469787
10.153607999999998,7.088032602973993,0.1091851925426966
10.156004,7.159868328988044,0.1087920890513447
10.158396,7.22411496089701,0.1084720642999484
10.160775999999998,7.285847635380363,0.1081672310973877
10.163172,7.346928683557656,0.1078613989967961
10.16556,7.405076465428754,0.1075897409145842
10.167939999999998,7.464714491367072,0.107287831167458
10.170336,7.525702991745748,0.1069602086575156
10.172719999999998,7.58310659951217,0.1066573208738017
10.1751,7.640649976905454,0.1063537475875056
10.177504,7.693118217619265,0.1061097186712714
10.179892,7.738648990534046,0.1059387480613082
10.182271999999998,7.78366790676963,0.1057596924060763
10.184676,7.827243800766239,0.1055790210788374
10.187064,7.871378773270289,0.1053746391369437
10.189443999999998,7.91379118428164,0.1051812506247823
10.19184,7.949173579695347,0.1050269867705465
10.194228,7.983764579176135,0.1048778671546819
10.196607999999998,8.01598139085817,0.104730776804238
10.199004,8.049688446607425,0.1045558772421271
10.201391999999998,8.081812710490842,0.1043846437295388
10.203772,8.115147679187759,0.1041988017272494
10.206163999999998,8.156118963818004,0.1039233755003325
10.208552,8.197649326955691,0.1036274664674512
10.210947999999998,8.237876437481262,0.1033236054774275
10.213344,8.276148669088663,0.1030035614879531
10.215732,8.310184381777749,0.102699217125924
10.218111999999998,8.34277707222786,0.1023920849402002
10.220508,8.374997675625634,0.1020671365083506
10.222891999999998,8.403261299358816,0.1017456191499516
10.225276,8.4334344760398,0.1013785657671297
10.227671999999998,8.464586040108802,0.1009700211579799
10.230055999999998,8.49308387712533,0.1005762531421641
10.232452,8.516925886342966,0.1002117779854655
10.351928,6.298182243238284,0.1000533447918225
10.354312,6.2484640690913045,0.1000400392339447
10.356707999999998,6.204472657929854,0.0999735293505324
10.359096,6.160061937887823,0.0999288687663284
10.36148,6.120446815271544,0.0998384145273073
10.363875999999998,6.080691923028404,0.0997530647916568
10.366263999999996,6.043218670785401,0.0996282311965354
10.368644,6.007328210408235,0.0995049842244865
10.371047999999998,5.9753021818970415,0.0993419114113933
10.373435999999998,5.949514773050577,0.0991401861887747
10.375816,5.926381091256586,0.0989218825213973
10.378211999999998,5.908834402821268,0.0986540113170283
10.380599999999998,5.895524233304259,0.0983688300265766
10.38298,5.883657086026226,0.0980907411266258
10.385376,5.869088989867474,0.0978757673625791
10.387764,5.857174620761198,0.0976439124502726
10.390144,5.848845144267175,0.0973888255164053
10.39254,5.841167294079209,0.0971415207511178
10.394928,5.830928264637386,0.0969496653438055
10.397312,5.821061322247901,0.0967816770602323
10.399715999999998,5.813568567657169,0.0966137701044619
10.402103999999998,5.804865108252941,0.0964697543810008
10.404484,5.793460699967993,0.0963905854540021
10.406879999999996,5.786572349855077,0.0962797675979106
10.409268,5.7795442301153,0.0961768133167555
10.411648,5.777032168547554,0.0960434903858302
10.414044,5.7763352162711215,0.0959441094033531
10.416432,5.779782235114382,0.0957893030430259
10.418812,5.782949714703925,0.0956511575814013
10.421208,5.789190230226521,0.0954752229796602
10.423596,5.798084472801594,0.095284627384407
10.425992,5.806559406496084,0.0951196062318643
10.428387999999998,5.812752700190439,0.094993783040752
10.430775999999998,5.820668555377488,0.0948622546540406
10.433156,5.83459071280379,0.0946629090914245
10.43556,5.849955892469067,0.0944742663849819
10.437948,5.862387805828149,0.0943167907824199
10.440328,5.878264842172623,0.0941488563542564
10.442728,5.897866540756211,0.0939520669040796
10.445116,5.92198429751183,0.093729213255628
10.447496,5.951037421320061,0.0934575786742224
10.449896,5.984466833673464,0.0931690571359202
10.452279999999998,6.025904649012533,0.0927976594173157
10.454663999999998,6.066923155471024,0.0924529129499415
10.457059999999998,6.109105144914769,0.0921343830525583
10.459447999999998,6.145932458425322,0.091890038871398
10.461828,6.183970476749372,0.0916250496158315
10.464223999999998,6.225174078805095,0.0913697895341533
10.466611999999998,6.268891638286433,0.091112435162625
10.468996,6.311258723327411,0.0908884676578208
10.471391999999998,6.357210700980643,0.0906506218863063
10.473779999999998,6.40474547049971,0.0904169454160516
10.47616,6.4567962981908105,0.0901599745848857
10.478559999999998,6.509358982561109,0.0899222922046231
10.480947999999998,6.561222818797106,0.0897248966939439
10.483328,6.61401782059288,0.0895240511371269
10.485723999999998,6.670397715000909,0.0893088995255376
10.488112,6.727569005341855,0.0891014287992522
10.490492,6.788744497175634,0.08886345030191
10.492891999999998,6.846986722703218,0.0886515002819233
10.495279999999998,6.907882675283278,0.0884387561395434
10.49766,6.96677652711692,0.0882462234416953
10.500056,7.016171731897675,0.0881553640139279
10.502444,7.068639972611487,0.0880378761520409
10.504839999999998,7.122318918138796,0.0879026539552043
10.507236,7.182143935532216,0.0877109774206529
10.509624,7.243551744791472,0.0875248270615218
10.512003999999996,7.30416815811781,0.0873428214848541
10.514404,7.364505032190428,0.0871752041716286
10.516792,7.426844007009462,0.0869944777798732
10.519171999999998,7.48853135552244,0.0868118717995132
10.521567999999998,7.552640113662415,0.0865999724236828
10.523955999999998,7.618378885496469,0.0863593666505282
10.526336,7.683326261397606,0.0861191100857578
10.528736,7.74976388136596,0.085853857914128
10.531123999999998,7.816481040588036,0.0855809122777183
10.533504,7.880684242384498,0.0853130757140573
10.535899999999998,7.940231616382067,0.085069707269925
10.538287999999998,7.995914558513664,0.0848548233326385
10.540672,8.05201680952584,0.0846232096069894
10.543067999999998,8.102671836806207,0.0844161267443165
10.545452,8.153746172967155,0.0841935491968133
10.547847999999998,8.213667529874929,0.0838807113908575
10.550244,8.271074929357091,0.0835745149907698
10.552632,8.327970472160056,0.0832591693752292
10.555011999999998,8.379930647910408,0.0829781961136642
10.557408,8.431518736608421,0.0826830312563753
10.559796,8.477100523067184,0.0824280162603227
10.562176,8.522449992100471,0.082151682809528
10.564571999999998,8.565145734081284,0.0818843675924535
10.566959999999998,8.605047979382759,0.0816314811131308
10.56934,8.640946023191402,0.0814074721237052
10.571735999999998,8.671629160693714,0.0812255195243781
10.574123999999998,8.701800441516827,0.0810325219962243
10.57652,8.73225126159366,0.0808325573357997
10.578916,8.760839750550936,0.0806413591922295
10.5813,8.787426138761795,0.0804625443661995
10.583683999999998,8.815363001413015,0.0802651528962966
10.58608,8.839714971451981,0.0800766481102509
10.588468,8.867139977424003,0.079869766489494
10.590847999999998,8.89084032115691,0.0796762705161168
10.593244,8.914820204143538,0.0794743625545106
10.595631999999998,8.935866820823971,0.0792906197431174
10.598008,8.949836200078517,0.0791494332491878
10.600407999999998,8.961012082653724,0.0790186041613047
10.602795999999998,8.970605173363099,0.0788837586586922
10.605192,8.976473601833359,0.0787624676777302
10.607588,8.98932671993089,0.0785719761637086
10.609976,9.001528211722366,0.0783759022587813
10.612355999999998,9.01400924276756,0.0781706873991483
10.61476,9.025838647506694,0.0779592031115098
10.617148,9.033291763700658,0.0777525056093782
10.619528,9.038370692095867,0.0775393452344115
10.621924,9.039585188625107,0.0773432684414339
10.624312,9.034141756609037,0.077173944309465
10.626696,9.023111331234295,0.0770223393685889
10.629092,9.012500214740134,0.0768552311314914
10.631476,8.996162335260443,0.0767109071956055
10.63386,8.979964225407615,0.0765609026568836
10.636256,8.959110287755891,0.0764258700363798
10.638648,8.939327285290807,0.076282073115928
10.641028,8.911955188720638,0.0761667951385171
10.643424,8.87806493323202,0.0760716688169424
10.645812,8.848877727370535,0.0759279688673944
10.648191999999998,8.816757255202857,0.0757978587447464
10.650588,8.784124926355979,0.0756542375520067
10.652976,8.74683676971021,0.0755249840805549
10.664924,8.44818579688341,0.0754714002614361
10.667312,8.382775681989186,0.0754667412159023
10.669691999999998,8.317784875975546,0.0754451300860001
10.672092,8.248138242163014,0.0754399939502157
10.67448,8.181704413910397,0.0754082809662711
10.676859999999998,8.112616858605307,0.0753784406926491
10.679264,8.048883979233407,0.0753029771402748
10.681652,7.983428538368813,0.0752270030527102
10.684031999999998,7.911175399332048,0.0751843429149678
10.686436,7.840272734735644,0.0751186658036235
10.688824,7.771232401258795,0.0750466703221056
10.691204,7.703914629274644,0.074973116243464
10.6936,7.634315217290355,0.0749206905418726
10.695988,7.567137214933064,0.0748367936271884
10.698368,7.497817342202496,0.0747695251502653
10.700764,7.431570505404982,0.0746794039207507
10.703152,7.366534373420967,0.0745735462634201
10.705531999999998,7.308715248489702,0.0744132825136657
10.707928,7.251455202065878,0.074226389425652
10.71032,7.19605748676161,0.074030244521448
10.712699999999998,7.1318599725387575,0.0738814746478756
10.715096,7.06924525018174,0.0737361764411856
10.717484,7.006350988571002,0.0736010983707941
10.71988,6.949183489945796,0.0734372125006702
10.722279999999998,6.89108482576081,0.0732730853072321
10.724667999999998,6.832706622322104,0.0731194914675174
10.727048,6.770044678136842,0.0730020145502138
10.729444,6.710455769884639,0.0728572213029147
10.731832,6.657804329431462,0.0726665304610379
10.734216,6.60287124897815,0.0724992846644894
10.736612,6.55194237001767,0.0723022031101832
10.738996,6.499011390310773,0.0721171684096228
10.741376,6.447430885044236,0.0719048077434384
10.743772,6.395431070897118,0.0717093201526955
10.74616,6.34943755898925,0.0714697722142245
10.748544,6.306097774133857,0.0712238764181844
10.75094,6.264760090024881,0.0709608929496453
10.753324,6.225144967408601,0.070694610782713
