Time,Force,Position
11.819799999999995,2.2474138208634717,0.1304467705513195
11.822187999999995,2.238895457056476,0.1304068815579462
11.824568,2.231028719555538,0.1303849765187026
11.826967999999995,2.224093147614379,0.1303286625859385
11.829355999999995,2.2205101508599947,0.1300758071299353
11.83174,2.219348563732608,0.1296570076845921
11.834135999999996,2.219909538097918,0.129188496187057
11.836523999999995,2.222193073955925,0.1286749826523015
11.838908,2.218050998694101,0.1285140995538906
11.841303999999996,2.2177733552982497,0.1281841348764166
11.860411999999997,2.194220364623678,0.1279378291933129
11.862811999999998,2.1975729398104544,0.1277506498359927
11.865199999999998,2.204370637982623,0.1274768627161174
11.867583999999995,2.2154520769013457,0.1269970960676254
11.869979999999998,2.2263937461932084,0.126554387257701
11.872367999999998,2.24441265291096,0.1258290508678299
11.874747999999997,2.265085286681187,0.125055238195991
11.877147999999998,2.288132108250167,0.1242835766527372
11.879535999999998,2.311271477617765,0.1236165834468119
11.881915999999997,2.3364129477317794,0.1228861817373941
11.884315999999998,2.361414648218934,0.1221901784577947
11.886703999999998,2.3944247516917563,0.1211845739334322
11.889087999999996,2.428366020724356,0.1201738348420541
11.891483999999998,2.4617482112495157,0.1192538043490713
11.893876,2.494571323267234,0.1184231118863813
11.896255999999996,2.525112795284816,0.1177099701638253
11.898656,2.5570047417427557,0.1169250522790116
11.901044,2.5967653215595026,0.1158809603487412
11.903423999999998,2.643463369175279,0.1146571129733514
11.90582,2.692303287164332,0.1133421023724914
11.908207999999998,2.736207838100773,0.1121787047044103
11.910587999999995,2.773547008290524,0.1113280241360457
11.912988,2.811957113666912,0.1104500540216892
11.915375999999998,2.846223247923606,0.1097540926052675
11.917755999999995,2.878627051060744,0.1091132971451922
11.920156,2.9047450127049106,0.1087126566116354
11.922539999999998,2.9280694776697427,0.1083844631907284
11.924919999999997,2.9483209067015186,0.1081578333434904
11.927319999999998,2.9691314142407363,0.1078633971563594
11.929703999999996,2.987939821033537,0.107632369472721
11.932084,3.0067482278263373,0.107405387276074
11.934483999999998,3.022763137939803,0.1072473119330376
11.936871999999996,3.038917817680129,0.1070797066204056
11.939252,3.054560640741257,0.1068799046544695
11.941647999999995,3.073835578242881,0.1065371050058813
11.944035999999995,3.091667493505529,0.1061741081315007
11.946416,3.108428473581539,0.1058528184903981
11.953588,3.117785455149696,0.1058472838312639
11.996595999999997,3.125699414478877,0.1058241268308045
11.998991999999998,3.129843385598571,0.1057114243899189
12.001375999999995,3.136129227091542,0.1055363132400933
12.003771999999998,3.137339931905042,0.1054899548950142
12.006168,3.140692507091817,0.1053825058339851
12.00856,3.144045082278593,0.1052750567729561
12.010939999999998,3.149539527838646,0.1051059514949377
12.013336,3.1599693404513114,0.1048314775893266
12.015724,3.17482266343739,0.1044208595175227
12.018107999999998,3.1871620289978546,0.1040255610421172
12.020504,3.199501394558319,0.103631732010154
12.022892,3.2122128471711213,0.1032835496705075
12.025275999999998,3.225855465343702,0.1029215532914575
12.027672,3.239777622770003,0.1025299301688384
12.03006,3.258774916875776,0.1020152004448025
12.104115999999998,3.067396870736453,0.1020014157783233
12.106512,3.062136638459747,0.1019727696593088
12.108899999999998,3.061951542862513,0.1018159777780325
12.111279999999995,3.0636287783848357,0.1016252435924942
12.11368,3.0647941572279604,0.1014027485704805
12.116068,3.0610241690184736,0.101294705658059
12.118447999999995,3.0559037063686274,0.1012506847811437
12.120843999999998,3.05171440927856,0.1011902244046171
12.123231999999998,3.0495272129349096,0.1010797503065355
12.125615999999996,3.047340016591258,0.1009692762084538
12.139951999999996,3.002557209496888,0.1008639530992258
12.142347999999998,2.998647451660541,0.1007696355641872
12.144735999999998,2.9947376938241934,0.1006748480311406
12.147119999999996,2.992178410428205,0.1005173100442768
12.149515999999998,2.9901309837114143,0.1003904872441266
12.151908,2.9922275281143182,0.1001549575874051
12.154287999999998,2.994324072517221,0.0999214890500931
12.156683999999998,2.9990743439725995,0.0996619552225219
12.159071999999998,3.0030332194950584,0.0994012230472277
12.161468,3.009506052443133,0.0991287155952319
12.163863999999997,3.0198433172571804,0.0987782980364042
12.166251999999997,3.0299010428175084,0.0984545831724716
12.168632,3.0438232002438093,0.0980588260940183
12.171028,3.05774535767011,0.0976685035039685
12.173416,3.069525644723134,0.0973338250319775
12.175795999999998,3.080374766216379,0.0970140529832387
12.178192,3.094948549948738,0.0966304438012286
12.18058,3.106309528121181,0.0963386013051496
12.182959999999998,3.119532837413181,0.0960211743292052
12.18536,3.1398333841310704,0.0955339175093948
12.187744,3.157060894915904,0.0951316491860681
12.190127999999998,3.1724260745811805,0.0947678939537332
12.192528,3.187232175739017,0.0944679331842956
12.194912,3.2016189680162723,0.0942182756699753
12.197295999999998,3.217356234733887,0.0939076309592127
12.199692,3.230020465518446,0.0936736376576702
12.20208,3.241334221862646,0.0934979146637871
12.204463999999998,3.2526479782068463,0.093329085777995
12.20686,3.269408958282856,0.093103196508713
12.209248,3.284447376866169,0.0928913126975968
12.211631999999998,3.302558831382538,0.0926226278082399
12.214028,3.325885192205239,0.0922434272054266
12.216411999999998,3.3425536244826315,0.0919605220382435
12.218808,3.3572199560136067,0.0917157944712541
12.221207999999995,3.3801742297839708,0.0913032852541154
12.223592,3.4016382594871155,0.0909499103643903
12.225976,3.42310228919026,0.0905999236596821
12.228371999999997,3.448570520386238,0.0901756571327202
12.230759999999997,3.469894780462522,0.0898383985871433
12.23314,3.4900083357253084,0.0895494096975208
12.235543999999996,3.511053056547872,0.0892506130380182
12.237931999999995,3.5290247414373805,0.0890111288056246
12.276144,3.556865264574244,0.0888012004728208
12.27854,3.558355508641463,0.0887406840077595
12.280928,3.557983421589125,0.088700084099441
12.283312,3.5557490034172314,0.0886790127045943
12.285708,3.5575187867381706,0.0885936993613557
12.288096,3.561011131551807,0.0885015962201954
12.290491999999997,3.567856051552219,0.0883293101200873
12.292887999999998,3.574980510806351,0.0881351347109802
12.295275999999998,3.585457545247259,0.0878643035483268
12.297659999999995,3.5990076156212223,0.0875425563878109
12.300055999999998,3.613628621181825,0.0871947418592356
12.302443999999998,3.633696850474236,0.0867981703850608
12.304824,3.662053022006035,0.0862583571480334
12.307223999999998,3.691060819843893,0.0857253068653406
12.309611999999998,3.721139552868389,0.0851688478332274
12.311995999999995,3.748145249959829,0.0846790590005624
12.314391999999998,3.772217680745074,0.0842327321521938
12.316779999999998,3.798152442649876,0.0837676863507406
12.319159999999997,3.824087204554678,0.0833082670227164
12.321555999999998,3.849742427205759,0.0828821044867253
12.323943999999996,3.8684601820578126,0.0825565872978664
12.326327999999997,3.885175836163448,0.0822647736915919
12.328723999999998,3.9029624254557223,0.0819542193500258
12.331111999999996,3.921680180307775,0.0816339442648681
12.333495999999997,3.941468870346467,0.0813015295949986
12.335895999999998,3.961537099638879,0.0809495513659453
12.338283999999998,3.982256955237349,0.0806179488100141
12.340663999999997,4.000043544529623,0.0803247480812928
12.343059999999998,4.014477558635122,0.0801028631130114
12.345447999999998,4.027980407180842,0.0798927745879944
12.347831999999997,4.0444165220327575,0.0796503256624073
12.350227999999998,4.062342880951892,0.0793613503553321
12.352619999999998,4.0711899016987205,0.0791952916316973
12.354999999999997,4.084460432818964,0.0789480754078202
12.357395999999998,4.098662129498985,0.0786956822262264
12.359779999999995,4.114074530992505,0.0784181980846247
12.36216,4.130418098045803,0.0781331134657752
12.364563999999998,4.143037002859988,0.0778733343547034
12.366951999999998,4.15765800842059,0.077593975004279
12.369332,4.16748341655544,0.0773572502370342
12.371736,4.182383961369762,0.0770544568976034
12.374123999999998,4.20007800286342,0.0767358216192522
12.376503999999995,4.213767842864243,0.076463110809632
12.378908,4.2288081573054255,0.0761538015614257
12.381291999999998,4.237842169507359,0.0759157392761881
12.383671999999995,4.244734311336013,0.0757124528107589
12.386076,4.246970625365776,0.0755404101427589
12.388459999999998,4.251069270515097,0.0753559886249806
12.390839999999995,4.260382821970749,0.075099795724332
12.393244,4.268625438239764,0.0748619552861513
12.395632,4.275145493016081,0.0746276127373095
12.398011999999998,4.277521576672704,0.074449828139896
12.400408,4.283110465889243,0.0742217097226679
12.402796,4.284834923239809,0.0740290060428983
12.405175999999996,4.288841020590511,0.0737967046565389
12.407571999999998,4.291776182754576,0.0735821074571136
12.409959999999998,4.294059718612583,0.0733521333365521
12.412339999999997,4.30234955670984,0.0730604548723368
12.414744,4.304772862194706,0.0728209226131162
12.417127999999998,4.314413174732323,0.0724958043483978
12.419507999999997,4.322191156150382,0.0721835598638077
12.421903999999998,4.327315410515967,0.0718789067424761
12.424291999999998,4.336723405628105,0.0715137824756229
12.426672,4.348924897419579,0.0711410630365004
12.429067999999996,4.364618734024689,0.0707031751119178
12.431455999999995,4.382314671376215,0.0702465775236747
12.433851999999998,4.4060169109669935,0.069734257443916
12.436248,4.427717049811353,0.0692417306203137
12.438636,4.442479720856684,0.0688132648829816
12.441015999999998,4.457521931155736,0.0683669507899929
12.44342,4.474426472574345,0.0679161807452357
12.445808,4.494683589179729,0.0674171069971292
12.448187999999998,4.51573210171803,0.0669266498632581
12.450584,4.535430139815974,0.0664665727932257
12.452972,4.550704667540503,0.0660748996394842
12.455351999999998,4.563185698585698,0.065695009232598
12.457748,4.5781806870565065,0.0653244659743194
12.460136,4.59010263959426,0.0649886988350856
12.462515999999995,4.607099728811486,0.0646059481925497
12.464911999999998,4.617019580602822,0.0642893644269234
12.467295999999996,4.6257287275806585,0.0639952931880867
12.469691999999998,4.630293903438803,0.0637419591115847
12.472092,4.633648374483448,0.063512486104987
12.474476,4.630996543288843,0.0633332108436422
12.476855999999998,4.626714698400157,0.063204436556561
12.479256,4.620710292018776,0.0630725524260967
12.48164,4.6117726193312,0.0629596935004847
12.484019999999996,4.602974716270484,0.0628369119070512
12.486424,4.5963186835830445,0.0626877917100059
12.488812,4.586030536455109,0.0626048114747285
12.493592,4.550368601787681,0.062560240690747
12.49598,4.529138785367882,0.0625562352334344
12.498359999999998,4.51219270969464,0.0625013104252553
12.500756,4.4924531373420615,0.0624562919629584
12.503144,4.474575896109038,0.0624044176989353
12.505523999999998,4.456186798196819,0.0623255538921247
12.507924,4.439008405098098,0.0622233073204007
12.510312,4.41861720643946,0.0621570501892813
12.512691999999998,4.4020904396467975,0.0620696799589612
12.515088,4.386634608040773,0.061969572650893
12.517475999999998,4.37746461792772,0.0618040631223007
12.519859999999998,4.370576267814803,0.0616046928705385
12.522264,4.365690018448303,0.0613897363575042
12.524648,4.364156344268579,0.0611294252726813
12.527031999999998,4.36541616676819,0.0608624220535744
12.529428,4.368538320387359,0.0605922135088229
12.531816,4.373802344379804,0.0602992366497078
12.534199999999998,4.380788929864945,0.0600117237686197
12.536603999999995,4.396482766470054,0.0596248096024589
12.538988,4.41431847344844,0.0592120766627489
12.541368,4.43708954747944,0.058769572224788
12.543764,4.459720851883578,0.0583382990747939
12.546152,4.480489825168161,0.0579166175357997
12.548531999999998,4.506473704759074,0.0574456345140946
12.550928,4.531805958043931,0.0569595076208134
12.553316,4.557138211328788,0.0564796082191477
12.555695999999998,4.580328594240367,0.0560243867634045
12.558096,4.605800617152084,0.0555398731766125
12.560484,4.629550078571104,0.0550513586709002
12.562863999999998,4.654510244803624,0.0545464948259972
12.565268,4.680122037342201,0.0540677345270569
12.567652,4.700239384320724,0.053650415175872
12.570031999999998,4.715281594619777,0.0532623283022279
12.572436,4.727110999358913,0.0529075274302646
12.574824,4.732934101858798,0.0525865220196733
12.577203999999998,4.732750902119433,0.052299258982297
12.5796,4.730286062379931,0.0520420182214771
12.581988,4.728100761894149,0.0517677499350676
12.584367999999998,4.718418915101898,0.051565096111557
12.586764,4.709528464242565,0.0513697749764329
12.589152,4.697704747077036,0.0511859985519183
