Time,Force,Position
13.883588,10.197914999122547,0.1525336808582248
13.885983999999995,10.264490492859895,0.151909511959233
13.888371999999997,10.310349922714511,0.1514240670271865
13.890752,10.343826556896158,0.1510113996014719
13.893147999999997,10.361473376561571,0.1507771229986405
13.895536,10.381122296973404,0.1505219023269428
13.897916,10.400491678131516,0.150280120879025
13.900319999999995,10.420280368170204,0.1500226789240601
13.902707999999995,10.431688568170893,0.1498497866203578
13.905088,10.42950137182724,0.1498281380302861
13.907487999999995,10.425871153244614,0.1498087569200451
13.909871999999996,10.424382805035265,0.1497607405357295
13.912252,10.42489655757233,0.1496893821367129
13.914651999999997,10.42340820936298,0.1496411627516548
13.917039999999997,10.422990796340269,0.1495785441169276
13.91942,10.421270130705445,0.1495128929545192
13.921816,10.422250413951332,0.1493978076225049
13.924204,10.428073516451215,0.1492051441758591
13.926599999999995,10.43259336633899,0.1490092884664728
13.928995999999998,10.43781206436106,0.1487874597508091
13.931383999999998,10.441727509771017,0.148562507690913
13.933763999999996,10.455141602233857,0.1482164707082782
13.936159999999996,10.472607118017777,0.1477964072674041
13.938547999999995,10.487046819696882,0.1473866802986838
13.940931999999997,10.498600476898034,0.1469817858039967
13.943323999999995,10.50363597518074,0.1466396822095736
13.945711999999997,10.50271239305244,0.1463376593686137
13.948096,10.501788810924138,0.1460358496682081
13.950491999999995,10.504078034355752,0.1456912854691288
13.952879999999997,10.512513329653478,0.1452716231093159
13.955264,10.52187979051098,0.1448458103449889
13.957659999999995,10.524448553196317,0.1444911811378573
13.960047999999995,10.53209245256112,0.1440804530198922
13.962428,10.540248208605124,0.1436762609823049
13.964823999999997,10.552408166141966,0.1432290116299813
13.967212,10.56563905886544,0.1427700781565242
13.969596,10.579661347521837,0.1423095872450201
13.971991999999997,10.58860849949876,0.1419060891909093
13.974379999999996,10.600908226662456,0.1414588435345407
13.976764,10.613859580132216,0.1410150134847561
13.979159999999997,10.625879768042196,0.1405785941846761
13.981547999999997,10.63324412815328,0.1401858085465926
13.983943999999996,10.640328949010646,0.1398045287694178
13.986344,10.647413769868011,0.1394229779684907
13.988732,10.6518448636729,0.1390589825949506
13.991111999999998,10.655484561544874,0.138696535290838
13.993512,10.660707051282683,0.13832641169381
13.9959,10.666348849901071,0.1379417518992647
13.998279999999998,10.671711109265742,0.1375670871680135
14.000684,10.674931498257132,0.1372183994346544
14.003072,10.670003714636,0.136958254838226
14.005451999999998,10.6678694276942,0.136673140129508
14.007848,10.65837836407279,0.1364747232187253
14.010236,10.64995823563802,0.1362630579065082
14.012615999999998,10.636462970523777,0.1361058540300185
14.015012,10.619615130222757,0.1359921190003186
14.0174,10.597971692495989,0.1359224386029732
14.019779999999995,10.580472225888911,0.1358056231333003
14.022175999999998,10.557618083348643,0.1357528884673937
14.024563999999998,10.533041379315677,0.1357099766085858
14.026947999999996,10.510466776029125,0.135645921843676
14.029343999999998,10.485610532742438,0.1356121352813547
14.031731999999998,10.459031727963051,0.1355879737073191
14.034111999999997,10.432452923183671,0.1355634125029074
14.036507999999998,10.409459011016544,0.135512732095133
14.038895999999998,10.391120926648306,0.1354228938643273
14.041276,10.371991446347147,0.1353356347412346
14.043675999999998,10.350300786792133,0.1352888987035648
14.046059999999995,10.332614328729951,0.1352002436119436
14.048444,10.31879230253375,0.1350754218077456
14.050839999999996,10.313490536002409,0.1348763015460639
14.053231999999998,10.3097715613369,0.1346720279243598
14.055611999999996,10.309777248910509,0.1344369003940479
14.058011999999998,10.309503397230396,0.1342120769457931
14.060399999999998,10.314956308535812,0.1339369548586936
14.062779999999997,10.321480155027867,0.1336486448038189
14.065175999999996,10.334242621184654,0.1333173397215152
14.067563999999996,10.34565461290108,0.1330098326572434
14.069959999999998,10.35906870536392,0.1326809787481338
14.072356,10.372854884879098,0.132364859431619
14.074744,10.387152921073476,0.1320572983267276
14.077123999999998,10.404244453947188,0.1317272548750614
14.079524,10.422918778686736,0.1313930916560807
14.081908,10.445317765665395,0.1310308861773734
14.084291999999998,10.47116187562945,0.1306517860814643
14.086688,10.495655511153146,0.1302969918765381
14.089076,10.529460802274626,0.1298728415785629
14.091455999999996,10.566990755635215,0.1294202235437804
14.093856,10.601819760115092,0.1290150053427643
14.096244,10.636089686087525,0.1286325808363089
14.098623999999996,10.6684972809404,0.1282672237253787
14.101024,10.700765106166417,0.1279083637512508
14.103407999999998,10.733172701019292,0.1275466605222291
14.105791999999996,10.76464913031239,0.1271921130760053
14.108187999999998,10.791841818858934,0.1268860592250841
14.110575999999998,10.819686133711532,0.1265830156078754
14.112955999999995,10.844225095205603,0.1262944265237931
14.115355999999998,10.867693121513032,0.1260174729390479
14.117743999999998,10.897167450059715,0.125688418731654
14.120123999999995,10.928132022673616,0.12533474463001
14.122532,10.959236364914378,0.124977840235578
14.124916,10.9892697719685,0.1246333472092227
14.127299999999998,11.0202343445824,0.1242844073432204
14.129696,11.046123780516828,0.123983349225506
14.132084,11.065495057532807,0.123728594750971
14.134467999999998,11.085285643429367,0.1234607552498328
14.136864,11.097347365593984,0.1232558591003296
14.139252,11.10782629589276,0.1230551441504635
14.141635999999998,11.1179331391392,0.1228425549355604
14.144032,11.123663693840466,0.1226521988432971
14.14642,11.128742622235675,0.1224593442320761
14.148799999999998,11.131028053951551,0.1222852428689452
14.151196,11.129169514547735,0.1221499964104669
14.153588,11.128242140703694,0.1220084020144978
14.155967999999998,11.128665241300016,0.1218465359333535
14.158364,11.13244091708311,0.121648081231808
14.160752,11.135937053612484,0.1214587390698438
14.163131999999996,11.141435290888277,0.1212524951844206
14.165532,11.137993959618624,0.1211206139151047
14.167915999999998,11.132270988348832,0.1210148178750559
14.170299999999996,11.123894290026564,0.1209226813516865
14.172695999999998,11.11593690058488,0.1208166478529835
14.175088,11.103323683344303,0.120740947495556
14.177467999999998,11.096996307596696,0.1206058420292092
14.179863999999998,11.093881737409005,0.1204385284957381
14.182251999999998,11.088765066474895,0.1202879016817134
14.184635999999998,11.084859100354286,0.1201219818115512
14.187032,11.079882199047038,0.1199665589082918
14.189419999999998,11.072903196993376,0.1198275238909267
14.191803999999998,11.069509087551964,0.1196688276400771
14.1942,11.064764503670194,0.1195298117420684
14.196587999999998,11.064163890908116,0.119353122771797
14.19898,11.065565378892456,0.1191592410768508
14.201376,11.065756162063296,0.118980469205983
14.251555999999995,10.7986496947944,0.1189445118092058
14.253939999999997,10.79199366210696,0.1189161647157906
14.256324,10.789621370166076,0.1188448991249322
14.258727999999998,10.783384646359218,0.1188023066832992
14.261111999999995,10.781431663298914,0.1187171761912939
14.263492,10.787487083224276,0.1185659074684312
14.265899999999998,10.79396181203022,0.1184009440824004
14.268283999999998,10.80122793676908,0.1182342036917358
14.270663999999996,10.81077570150808,0.1180413650699841
14.273063999999998,10.821534171060575,0.1178320559969962
14.275451999999998,10.83457428061321,0.1175967627639212
14.277831999999997,10.83825551273982,0.1174481584630223
14.280227999999996,10.843147449679927,0.1172848496120433
14.282611999999997,10.85097265292623,0.1170992624047053
14.284996,10.857075294679838,0.1169214193692348
14.287399999999998,10.863177936433445,0.1167441415160391
14.289783999999996,10.873284779679883,0.116533649972512
14.292167999999997,10.88525395404588,0.1163108645483388
14.294563999999998,10.896943589158155,0.1160980313386005
14.296951999999996,10.91529115281574,0.1158415135367405
14.299332,10.93564081721974,0.1155704704052326
14.301727999999995,10.96129793572869,0.1152764308163087
14.304112,10.984673414237506,0.1150095220177928
14.306492,11.010562850171931,0.1147347075552345
14.308888,11.032168545359804,0.1145016986381967
14.311276,11.050421665360906,0.1143052750988738
14.31366,11.067696397973984,0.1141404580936662
14.316063999999995,11.090046267266532,0.1139357024065611
14.318451999999995,11.116772425104248,0.1137145937193715
14.320832,11.14950488518122,0.113449100421355
14.323227999999997,11.186101777124165,0.1131609611881979
14.325615999999997,11.229915676119855,0.1128117495265883
14.327996,11.26730396399572,0.112520440789562
14.330392,11.301619215938526,0.11225450077205
14.33278,11.33765702937403,0.1119835938110852
14.335175999999995,11.373694842809536,0.1117141674633359
14.337571999999998,11.410663821804814,0.1114409934232504
14.339959999999998,11.448563966359874,0.1111629624115666
14.342339999999997,11.486883419795513,0.1108731350489077
14.344735999999996,11.514261203939292,0.1106630266612009
14.347123999999996,11.538565952150012,0.1104782739343354
14.349504,11.557935333308128,0.1103292708171252
14.351903999999998,11.575162844092958,0.1101991515475755
14.354291999999996,11.590528023758235,0.1100792505054361
14.356672,11.608826469729708,0.1099399702472198
14.359075999999998,11.622329318275428,0.1098299868753228
14.361463999999998,11.638393346075006,0.1096883508546401
14.363843999999997,11.64845107163533,0.1095907820520825
14.373407999999998,11.63425316667105,0.1095776556605241
14.375795999999998,11.637932502939789,0.109512824708443
14.378172,11.644033248835528,0.1094213483544802
14.380567999999997,11.648271663611707,0.1093398404054515
14.382955999999997,11.65022843838775,0.1092807230688183
14.385351999999996,11.65232498279065,0.1092176637244198
14.387756,11.655772001633911,0.1091374847978606
14.39014,11.65800831566368,0.1090705818561133
14.392519999999998,11.670394903052388,0.1089312119809539
14.394924,11.68492336081437,0.1087744977251201
14.397312,11.700942062643575,0.1085968915227588
14.399691999999998,11.720313339659556,0.1083889544726527
14.402092,11.74382858779523,0.1081506819510662
14.404476,11.766412670371125,0.1079180985189509
14.406855999999998,11.80100935742552,0.1076071822317882
14.409252,11.835745814106776,0.1072944372415442
14.411639999999998,11.8772799689602,0.1069432647147416
14.414019999999995,11.925611821985797,0.1065530847013928
14.416415999999998,11.974362983891968,0.1061508608202989
14.418803999999998,12.026326951358058,0.1057229664786391
14.421187999999995,12.07149322065198,0.1053374477646863
14.423583999999998,12.111444583639567,0.1049936339384169
14.425967999999996,12.151256177000295,0.1046555291285339
14.428351999999997,12.191207539987882,0.1043139107170778
14.430747999999998,12.232649147042691,0.1039517497023891
14.433135999999998,12.27423052372436,0.103588169926027
14.435516,12.316743065965804,0.1032235015002656
14.437911999999995,12.363399579326943,0.1028326079672035
14.440299999999995,12.404189560075697,0.1024776783206392
14.442684,12.439252777838917,0.1021514610490319
14.445087999999998,12.47096342041536,0.1018537752449683
14.447471999999998,12.500811731872249,0.1015658231282888
14.449855999999995,12.52772677702294,0.1012956557659983
14.452251999999998,12.555061131054211,0.1010149167937241
14.454639999999998,12.57252475098026,0.1007922378608887
14.457019999999996,12.591059306092946,0.100563409199699
14.459415999999996,12.604146637473828,0.1003555005157826
14.461803999999995,12.61364907624245,0.1001603198938107
14.464187999999996,12.62701594687705,0.0999469657574821
14.466592,12.641174213444566,0.0997345201286172
14.468975999999998,12.6549131711315,0.0995327638512288
14.471359999999995,12.669862833631935,0.0993200560002325
14.473755999999998,12.683881330572593,0.0991115994098552
14.476143999999998,12.699901928259663,0.098892571739111
14.478523999999997,12.716574152252797,0.0986778591230505
14.480923999999998,12.731523814753231,0.0984677022913323
14.483311999999998,12.742748815014554,0.0982730154263607
14.485691999999997,12.745965412290207,0.0981227770245068
14.488087999999998,12.75011317512564,0.0979688771674781
14.490475999999996,12.763060736879655,0.0977713814662321
14.492859999999997,12.78015226975337,0.0975483666105047
14.495255999999998,12.801759860799113,0.0973125928246664
14.497643999999998,12.824298617404637,0.0970738391393168
14.500027999999997,12.845626669196658,0.0968468190967725
14.502423999999998,12.868025656175318,0.0966121286873136
14.504811999999998,12.884278571287869,0.0964138321759899
14.507208,12.901322882333336,0.0962158780823139
14.509604,12.917575797445888,0.0960180266459487
14.511992,12.933177086252378,0.0958181078704565
14.514371999999998,12.946124648006398,0.0956253040963599
14.516768,12.961633389014274,0.0954071018767748
14.519156,12.97714213002215,0.0951896995080581
14.521535999999998,12.993861575843525,0.0949622078791822
14.523936,13.005785424239146,0.0947553451518075
14.526324,13.020130682261769,0.0945283205851657
14.528703999999998,13.031263134724473,0.0943219316725875
14.5311,13.043326752746951,0.0941123739484195
14.533487999999998,13.062467608195323,0.0938651407562611
14.535867999999995,13.082679398830336,0.0936116080483566
14.538263999999998,13.096373030546896,0.093382192448898
14.540647999999996,13.109135496703685,0.093156959931429
14.543043999999998,13.11351747282246,0.0929609589990441
14.54544,13.116176887448544,0.0927678956698042
14.547828,13.118976071701487,0.0925713793457523
14.550207999999998,13.12298596076793,0.0923645498568473
14.552604,13.130348425021149,0.0921335174077387
14.554992,13.13920113334158,0.0918855418064403
14.557371999999996,13.148705467968073,0.0916417240862914
14.559767999999998,13.148339068489346,0.0914430008728392
14.562151999999998,13.149974769757032,0.0912346353747893
14.564547999999998,13.150399766211224,0.0910365342861789
14.566944,13.146820561172577,0.0908577434567481
14.569332,13.146174622440126,0.0906669572947741
14.571711999999998,13.151395216320068,0.0904510466123848
14.574115999999997,13.149678342400978,0.0902669295380923
14.5765,13.153967770721138,0.0900542882055212
14.578884,13.15918836460108,0.0898390435444366
14.58128,13.16226708810774,0.0896376073780026
14.583664,13.164414646054627,0.0894394097748712
14.586047999999998,13.168936391800266,0.0892430651292877
14.588444,13.173597907172764,0.089043730693105
14.590832,13.181984084784377,0.0888324012773887
14.593211999999998,13.195445399075462,0.0885972180953502
14.595608,13.209837878926326,0.088359763333493
14.597995999999998,13.226884085829663,0.0881184351272863
14.600379999999998,13.246444250158618,0.0878767795611465
14.602776,13.265165796726407,0.0876567898382239
14.605163999999998,13.286820609600394,0.0874261125073012
14.60756,13.318206386952744,0.0871573830146584
14.609955999999997,13.350383560238011,0.0868909163406678
14.612343999999997,13.385493999829476,0.0866137627423015
14.614724,13.423537705727131,0.0863246716872704
14.61712,13.4562267356916,0.0860675384548677
14.619508,13.483700859349732,0.0858380309582716
14.621887999999998,13.51462010599326,0.0856041337623626
14.624284,13.542326547076868,0.0853895892856083
14.626672,13.56989321853362,0.0851793309628557
14.629051999999998,13.596668494057454,0.0849689028116871
14.631448,13.623303999954423,0.0847623316859565
14.633836,13.64928787954534,0.0845520585315697
14.636232,13.674200823949615,0.0843485240056644
14.638627999999995,13.698462142047834,0.0841410397525543
14.641015999999995,13.715506453093305,0.083968787377655
14.643396,13.7286863322728,0.0838099134604582
14.645791999999997,13.735859909213046,0.0836762737839254
14.648179999999996,13.739588363167895,0.0835461385322606
14.65056,13.741082398950857,0.0834098648022058
14.652956,13.73899154212156,0.083280270177437
14.655344,13.73154600935907,0.0831796987394592
14.657728,13.720236044730608,0.0830920778985113
14.660124,13.70613258342281,0.0830115526299084
14.662508,13.693379596555374,0.082918471555109
14.664891999999998,13.6790438178221,0.0828232277495312
14.667288,13.666198283156044,0.0827119534339593
14.669676,13.656053697370709,0.0825758647181803
14.672071999999996,13.644466089346396,0.0824342146782327
14.674467999999996,13.629293588709832,0.0822983538833981
14.676855999999995,13.612398526580568,0.0821635024035216
14.679239999999997,13.595503464451308,0.0820285400146158
14.681635999999996,13.575675136015848,0.0819035507165168
14.684023999999996,13.554636102766892,0.0817873822346399
14.686404,13.534248695823994,0.0816753372087817
14.688803999999998,13.515723620000651,0.0815584349243219
14.691191999999996,13.501854371976204,0.0814298577069238
14.693575999999997,13.491337699138526,0.0812806473722639
14.695971999999998,13.479470551860492,0.0811435308742762
14.698355999999997,13.46583362126152,0.0810286013076384
14.700736,13.451637612155109,0.0809270033526626
14.703131999999997,13.442004883048968,0.0807958579844317
14.70552,13.430090513942694,0.0806790555025372
14.7079,13.420038475955971,0.0805575610929293
14.710299999999997,13.410498294648452,0.0804440494373327
14.712684,13.404962314833764,0.0803145585287482
14.715068,13.40208006207155,0.0801818119179302
14.717464,13.39556569486884,0.0800760307136422
14.719848,13.394358781771082,0.0799638825552212
14.722247999999995,13.396596991658711,0.0798495677923587
14.724643999999998,13.40214055490488,0.0797366868687393
14.727031999999998,13.407684118151046,0.0796239077145905
14.729411999999996,13.41774373956924,0.0795036454700425
14.731807999999996,13.429945231360715,0.0793725220761273
14.734195999999995,13.44093601833869,0.0792502320990707
14.736576,13.450855870130026,0.0791331934066721
14.738975999999996,13.46077572192136,0.0790166870425258
14.741363999999995,13.472138595951671,0.0789063258339321
14.743744,13.488297067407736,0.0787822980570564
14.746147999999998,13.510881149983634,0.0786257544696927
14.748535999999998,13.534536167746168,0.0784636993193998
14.750915999999997,13.555769775881704,0.0783198567395859
14.753311999999998,13.585151556629768,0.0781429667304272
14.755699999999996,13.612251697377694,0.077980455145028
14.758083999999997,13.636139032565705,0.0778343302577976
14.760483999999998,13.658396354059636,0.0777071788410748
14.762867999999996,13.678092496299708,0.0776009609343829
14.765251999999997,13.70072190484598,0.0774854772393643
14.767647999999998,13.717624550406718,0.0773858806998564
14.770035999999998,13.734666965594318,0.0772833328338723
14.772419999999997,13.747984718542805,0.0771889246827481
14.774815999999998,13.764095968170624,0.0770889590340263
14.777203999999998,13.780626526679026,0.0769798040266455
14.779584,13.794735675560432,0.0768877309154817
14.781979999999995,13.810986694815115,0.0767853013344572
14.784367999999995,13.831241915562629,0.0766686286052681
14.786752,13.84856387000395,0.0765613340327476
14.789147999999996,13.863232097392796,0.0764568431963524
14.791531999999997,13.873896123288803,0.076366812387273
14.793916,13.8825580484384,0.0762843450608941
14.796311999999997,13.894153239894193,0.0761932946473416
14.798699999999997,13.907610762469538,0.0760987234860161
14.801084,13.91678454429833,0.0760248703030822
14.803479999999997,13.930893693179735,0.0759356577345244
14.805867999999997,13.946353316501495,0.0758349711441497
14.808263999999998,13.964234349450257,0.0757181129515059
14.810664,13.987749597585932,0.0755705814406136
14.813052,14.012615320161965,0.0754127347702057
14.815431999999998,14.041345474603968,0.0752447916514217
14.817832,14.069004693859336,0.0750821758522792
14.82022,14.0983864746074,0.0749189572107874
14.822599999999998,14.123112427556572,0.0747650529772674
14.824996,14.145416970878747,0.0746278079145957
14.827384,14.170794550133978,0.0744791272442177
14.829767999999998,14.195892590135488,0.0743371336170089
14.832164,14.220990630136995,0.0741959111203151
