Time,Force,Position
14.215532,2.770517305857186,0.2083236952540909
14.217936000000002,3.005516397345005,0.208173404286759
14.220324000000002,3.255134598535557,0.2071150381275766
14.222704,3.5257068686079256,0.2031992291755942
14.2251,3.797912944090112,0.1988250097843563
14.227484,4.059740220503614,0.1955809449215975
14.229868,4.3105370715423765,0.1929374346008656
14.232264,4.552957224258872,0.1904416513493648
14.234652,4.786069513093323,0.1880036658847392
14.237032,5.012295347672726,0.1855541104574567
14.239428,5.2277702961311086,0.1831341072672332
14.241816,5.431842732162412,0.1808149320278912
14.244196000000002,5.627073835020495,0.1784284304121844
14.246596,5.808108928772166,0.1761852193339776
14.248984,5.973597538977063,0.1741192911701019
14.251364,6.122049421567968,0.1723583776248828
14.253764,6.260122505090191,0.1706219251547958
14.256152,6.389399581409566,0.1689177732730652
14.258532,6.504386204966041,0.1673820238985948
14.260924,6.610948908372003,0.1658446333762474
14.263312,6.705595346813822,0.1644204718265263
14.265708,6.786695506597415,0.1631542190876998
14.268112000000002,6.854341935521401,0.1620919105274992
14.270496,6.90736925474265,0.1613340802634311
14.272876,6.954762358776989,0.1607419741682492
14.275284,6.997871722064774,0.1602533302955083
14.277668000000002,7.038839214979282,0.1598199226570722
14.280048,7.077944376774233,0.1594241879285285
14.282444000000002,7.119982804875379,0.1589849922913077
14.284832000000002,7.162300772230246,0.1585464648759145
14.287212,7.206481070704669,0.1580839825988396
14.289608,7.254525801045066,0.1575712812687605
14.291996,7.3041533232513,0.1570612340913827
14.294376,7.3565743421368675,0.1565165375662865
14.296780000000002,7.413930728075047,0.1558959513359704
14.299164,7.471426883640087,0.1552743653215186
14.301548,7.5285509521527905,0.1546450941077119
14.30394,7.578505235440987,0.1541107571630087
14.306328,7.633442107610039,0.1534712049975861
14.308708,7.685353165674279,0.1528509376446786
14.311112,7.736100740753263,0.152223194952673
14.3135,7.788618099153188,0.1515409153141271
14.31588,7.839971974567856,0.1508526511427612
14.318276,7.892164467743687,0.1501303945566574
14.32066,7.946126744240455,0.1493676753656014
14.323044,8.000648099244666,0.1485779219167778
14.325448000000002,8.05158456163662,0.1478278078601893
14.327832,8.102940332909158,0.1470639833256149
14.330212,8.149780046009665,0.1463612797475429
14.332608,8.189542521684281,0.1457734820104115
14.334996,8.225208248067448,0.1452185854814694
14.337392,8.254495585159026,0.1447445835655249
14.339788000000002,8.278475468145654,0.144329798991522
14.342176000000002,8.29873068889317,0.1439618636409619
14.344556,8.314469851468653,0.1436457120595412
14.346952000000002,8.32783482624538,0.1433437274702466
14.349340000000002,8.337475138782997,0.1430861449828721
14.35172,8.350468026507388,0.1427693527080065
14.354116,8.355732050499833,0.1425549346561543
14.3565,8.361275613745997,0.1423277069903565
14.358884,8.365515924380048,0.1420959869008299
14.36128,8.367661586469064,0.1418641533863382
14.363664,8.369295391878882,0.1416239049833983
14.36606,8.365342203930028,0.141446952563522
14.368456000000002,8.35300852594317,0.1413642218347069
14.370844000000002,8.341653235344335,0.1412356303899978
14.373224,8.334069828812856,0.1410305934223827
14.37562,8.323181068922844,0.1408471151841919
14.378008,8.312571848286554,0.1406505723694444
14.380388,8.301870079851644,0.1404249158703058
14.382784,8.298105779215765,0.1401089090221396
14.385172,8.29261891708719,0.1398057677589964
14.387568000000002,8.285409493465918,0.1395155571639964
14.389964,8.276105421299613,0.1392224571012622
14.392352,8.266009953200388,0.1389323142345215
14.394732,8.257404729168382,0.1386055291751011
14.397128000000002,8.250149979576737,0.138248175714345
14.399516000000002,8.240521042186336,0.1379014811979599
14.401896,8.229588852183818,0.1375473092421866
14.4043,8.216282474382547,0.1372030480395023
14.406688,8.201113765461718,0.1368778883151268
14.409068,8.188086926914169,0.1365187353370136
14.411468,8.170404260567727,0.1362086243978656
14.413852000000002,8.155282773475141,0.1358440803701376
14.416236,8.140440825636276,0.1354640827025418
14.418632,8.120383971491078,0.1351605060046507
14.421020000000002,8.097393851039685,0.1348927054003754
14.4234,8.074263960961433,0.134630170340828
14.425796000000002,8.049691048644204,0.1343666780575997
14.42818,8.029773964125868,0.1340512933104338
14.430564,8.002128015875584,0.1338276171700931
14.43296,7.976204629117998,0.1335896448671776
14.435348,7.954285443853244,0.1332972362393239
14.437744000000002,7.93767371269344,0.1329574434340323
14.44014,7.921993147093415,0.1326066083860532
14.442528,7.902820236679753,0.1323170301308308
14.444908000000002,7.884438722199009,0.1320232005509165
14.447308,7.86722069070352,0.1317417206453654
14.449696,7.84916404144687,0.131498649865303
14.452076000000002,7.834412745548755,0.1312351388869054
14.454472,7.823246342262892,0.1309382758487628
14.45686,7.806166184536394,0.130749725581266
14.45924,7.795324646474625,0.1305049849058115
14.461636000000002,7.785646591398112,0.130273623079682
14.464024000000002,7.780484594493629,0.1299994184050874
14.466404,7.778907490201401,0.1296916911942833
14.468800000000002,7.781566904827484,0.1293560673410023
14.471188,7.788602607998738,0.1289864922150405
14.473572,7.796801794155248,0.1286307921447474
14.475976,7.803510736244538,0.1283133920541981
14.478360000000002,7.809520830199527,0.1280268944887653
14.480744,7.81818465120699,0.1277193794450366
14.48314,7.824938919266654,0.1274687778024308
14.485528000000002,7.830994339192017,0.1272528598176346
14.487908,7.838213242102635,0.1270514320192506
14.490304000000002,7.849808433558425,0.1268164443175547
14.492692000000002,7.861635942439692,0.1266058082386331
14.495076,7.872904372813518,0.1264214061291779
14.497472000000002,7.892693062852208,0.1261477580994452
14.499860000000002,7.912062444010319,0.1258954188319306
14.502256,7.93115228591471,0.1256579177203202
14.504652,7.958250530804767,0.1253215875642923
14.50704,7.985209006067964,0.1249953396135965
14.509420000000002,8.014821208383635,0.124653074956945
14.51182,8.046807598498063,0.1243080872971479
14.514208,8.081307946038104,0.1239525557719861
14.516588000000002,8.11259548801823,0.1236443878077432
14.518984,8.138668123692023,0.1234049347207037
14.521372,8.164321450485234,0.1231841078772767
14.523752000000002,8.18862430283809,0.1229909752100596
14.526148,8.218653918176472,0.1227398821415174
14.528532000000002,8.24533095832808,0.1225401735822053
14.530912,8.273870329599244,0.1223239294380149
14.533312000000002,8.30175807456435,0.1221053019816221
14.535700000000002,8.330576985089237,0.1218793373468866
14.538096,8.360187291547039,0.1216536667479587
14.540492,8.388866432445063,0.1214363812872932
14.542876,8.42262071002256,0.1211617185043243
14.54526,8.45344172129386,0.1209222615272556
14.547664,8.48598529405786,0.1206746814632524
14.550048,8.520251428314555,0.120419709325182
14.552428,8.552515461824832,0.1201908465204636
14.554824,8.582497855334971,0.1199963217989486
14.557212,8.606473946605862,0.1198671280762776
14.559596,8.628727476384057,0.1197497355761222
14.561992,8.648978905415833,0.1196545676229701
14.564376,8.672303370380662,0.1195258381696305
14.566756000000002,8.700563202398108,0.1193475225206121
14.569156,8.733898171095023,0.1191161731677693
14.571544,8.771237341284774,0.1188449645164257
14.573924000000002,8.808576511474522,0.1185773460000126
14.57632,8.848848947970469,0.1182815441629015
14.578708,8.890471858906773,0.1179648527160715
14.581104,8.931815230589356,0.1176608629997355
14.583508000000002,8.975440242272077,0.1173297672983151
14.585892,9.014549195782768,0.1170293320431439
14.588272,9.057662350786291,0.1166916646123293
14.590672,9.093838037990784,0.1164220801394145
14.59306,9.1290825596355,0.1161611997025096
14.59544,9.161952893481462,0.1159065171902932
14.597836,9.190027629901673,0.1156924756716051
14.600224,9.217171200762104,0.1154870359967166
14.602604,9.248878051622809,0.1152234039877354
14.605004,9.28472887360321,0.1149156758732788
14.607392,9.318577594837192,0.1146284764922687
14.609776,9.354847725698177,0.1143086495444132
14.612172,9.38725342469318,0.1140225651748915
14.61456,9.420078432568769,0.1137241401213801
14.616944,9.445454115966127,0.1134798497291621
14.619348000000002,9.468595381191594,0.1132365312029639
14.621732000000002,9.48750012749875,0.1130104179970524
14.624116,9.505101621193791,0.1127769337164987
14.626512000000002,9.519769848582635,0.1125692012910895
14.628896,9.534065988919146,0.1123472852770313
14.63128,9.54384607108362,0.1121528931025362
14.633676,9.557909893994651,0.1119130128119925
14.636064,9.56866836354715,0.1116840118896808
14.638444,9.587202918659838,0.1113671936256569
14.64084,9.605505156347048,0.1110317933192207
14.643228,9.62273645884762,0.1107075982485617
14.645608,9.644531041348465,0.1103289423494366
14.648004,9.663671896796837,0.1099632070534057
14.650392,9.67694621963282,0.1096453567052067
14.652772,9.686775419483409,0.1093414404109815
14.655168,9.696884158587716,0.1090274723321935
14.657556,9.69912426433322,0.108775811240397
14.659952,9.703785779705717,0.1084920667825636
14.662348,9.70565379839888,0.1082270956159688
14.664732,9.71073462265196,0.1079287559125237
14.667116,9.711811245412209,0.1076636899743134
14.669520000000002,9.714610429665152,0.107391809908841
14.671908000000002,9.716338678731455,0.107130826182133
14.674288,9.716484135931925,0.1068708565071207
14.676684000000002,9.71877146350567,0.1065900632913776
14.679072,9.715983654399942,0.1063517312787482
14.681456,9.711985140480715,0.1061300784987392
14.683852000000002,9.707055461001712,0.1059140018507564
14.686240000000002,9.694908774469958,0.1057629993306859
14.68862,9.683273944617405,0.1056213887386927
14.691016,9.673780985138125,0.1054584863493585
14.693404,9.663077320845346,0.1053111625841787
14.695788,9.655446692485624,0.1051372627176112
14.698184,9.649818164872318,0.1049471965992216
14.700572,9.648054069124989,0.104730605722113
14.702956,9.646849051885097,0.1044942098520856
14.705352,9.65500291207123,0.104175086082731
14.707736,9.661154671510948,0.1038720978848632
14.71012,9.66544409983111,0.1035794267781196
14.712516,9.669733528151273,0.1032872662021729
14.714904,9.67695622277763,0.1029738898662535
14.717288,9.687391722963902,0.1026317775802266
14.719684,9.698898158336814,0.1022797044966462
14.722072,9.711335759269502,0.1019219631699058
14.724452,9.71762728833608,0.1016146512096854
14.726856000000002,9.733929321134744,0.1012311195603049
14.72924,9.747577626880933,0.1008581472554731
14.731624,9.760946393373402,0.1004949989108301
14.73402,9.775246325425648,0.1001259890157781
14.736408,9.788615091918116,0.0997629702395219
14.738788,9.800121527291026,0.0994107197226543
14.741184,9.810696797104155,0.0990644988401667
14.743572,9.819921592476932,0.098738921513708
14.745968,9.828866848595988,0.0984235735827108
14.748364000000002,9.83767233508818,0.0981151270476154
14.750752000000002,9.848712239752263,0.0978135420142712
14.753136,9.853186763669662,0.0975755612970872
14.755532,9.860454784266391,0.0973241317728768
14.757920000000002,9.86944536635582,0.0970680174302444
14.760304,9.877876869937806,0.096831560097987
14.7627,9.887239539079571,0.096591203439167
14.765084000000002,9.89245823710164,0.0963845547623727
14.767468,9.900749971056769,0.0961559786693385
14.769868,9.911835201691227,0.0959147325221857
14.772256000000002,9.9307890656845,0.0956242222718367
14.774636,9.947601059304487,0.0953549741301507
14.777032000000002,9.967206549603818,0.0950731414530827
14.779420000000002,9.989605536582475,0.0947792922215457
14.7818,10.012935689120916,0.0944813730998722
14.784196,10.03454328016666,0.09418729951562
14.786584,10.05801320233196,0.093885585191634
14.788964,10.082274520430175,0.0935854777646632
14.791372,10.10560467296862,0.0932895128218392
14.79376,10.12814342957414,0.0929931386794658
14.79614,10.146817754313687,0.0927188900107878
14.798536000000002,10.160836251254342,0.0924662045342554
14.800924000000002,10.177927784128055,0.0921916440329543
14.803304,10.19194628106871,0.0919395570530946
14.805700000000002,10.207827109128925,0.0916802799764869
14.808088,10.225198181256356,0.0913991185746655
14.810472,10.241218778943429,0.091136569842218
14.812868000000002,10.25803077256342,0.0908746499865359
14.815256000000002,10.272561126183277,0.0906364774510563
14.817636,10.284018443870076,0.0904199670336153
14.820036000000002,10.288258754504126,0.0902542478973402
14.822424000000002,10.290496964391757,0.0901013826390343
14.824804,10.294737275025808,0.0899371533790249
14.8272,10.2971152545403,0.0897809739612239
14.829588,10.299633003681652,0.0896204308869607
14.831984000000002,10.305875415062118,0.0894451663978038
14.83438,10.314771553495058,0.0892645133503887
14.836768,10.321665591181585,0.0890958528089217
14.839152000000002,10.33284336961466,0.0888955034817361
14.841548,10.347885579913711,0.0886771542395146
14.843936,10.363719186145683,0.0884592113478781
14.846316000000002,10.380344188310572,0.0882416805652373
14.848712,10.39617779454254,0.0880240155758042
14.8511,10.411080235214731,0.0878093796650803
14.853484000000002,10.423328948834447,0.0876016492018841
14.85588,10.435298123200443,0.087403743691991
14.858268,10.446615671260384,0.0872003919797229
14.860652000000002,10.456210657827626,0.0869993929536983
14.863048,10.46380354364845,0.0868100361330078
14.865436,10.472327595029054,0.0866171082787143
14.867816,10.48620632234285,0.0863844739855253
14.870212000000002,10.49715178335045,0.0861662864612423
14.872600000000002,10.50302210767858,0.0859793746580403
14.874984,10.507169870514009,0.0857947880369008
14.877380000000002,10.509315532603022,0.0856213920643443
14.879768000000002,10.50945909394562,0.0854597338328235
14.882148,10.502293100436852,0.0853208041237656
14.884548,10.497268977301358,0.0851662399036808
14.886936000000002,10.484236451180198,0.0850559436444056
14.889316,10.467619032446786,0.0849542841480916
14.891712000000002,10.450210217780452,0.0848512240802198
14.894100000000002,10.436153978300904,0.0847203545263627
14.896484,10.420095638074931,0.0846000795525156
14.898884,10.404316837102678,0.0844705079634682
14.901268000000002,10.384533834637596,0.0843623996667731
14.903664,10.363028270679814,0.0842560297053613
14.906068,10.34273341153553,0.0841370299747672
14.908456,10.325511588324302,0.0839990017399334
14.910836,10.308569304366795,0.0838517230729241
14.913232,10.294048430036286,0.0836802157537557
14.915616,10.273661023093387,0.0835361100876556
14.917996000000002,10.25927991838974,0.083359531723188
14.9204,10.24596974887273,0.0831749132938564
14.922788,10.236524011221697,0.0829731769243854
14.925168,10.229080374317077,0.0827604266953351
14.927572,10.217912075173343,0.0825594303992973
14.92996,10.209397503082084,0.0823526889523787
14.93234,10.197158268751714,0.0821579777104383
14.934736,10.189714631847092,0.0819424230583943
14.937124,10.179058189382555,0.0817488260013791
14.939504,10.172545718037718,0.0815292684073892
14.9419,10.160958110013404,0.0813383055383428
14.944284,10.152443537922146,0.0811289693960267
14.946668,10.146862232137083,0.0809058789618827
14.949064,10.147007689337553,0.0806593973463717
14.951452,10.14701337691116,0.0804171253483339
14.953832000000002,10.142083697432156,0.0801980333403555
14.956228,10.130216550154124,0.0800127501021425
14.958616,10.113414035823478,0.0798506978819437
14.960996000000002,10.08660101776075,0.0797411443684183
14.963392,10.065654532310411,0.0796035461712767
14.96578,10.03898128387454,0.0794879809322579
14.968176,10.011376869878893,0.0793749048017132
14.970572,9.975624283270715,0.0793084368625907
14.97296,9.938800761475903,0.079248816103078
14.97534,9.906633067479982,0.0791737565313576
14.977736,9.87660724385734,0.0790827567363617
14.980124,9.84923514728717,0.0789868730052595
14.982504000000002,9.822142589970715,0.0788811237829462
14.9849,9.799845630080018,0.0787557516410439
14.987288,9.771402598323208,0.0786656149361748
14.989668000000002,9.745613293618876,0.0785709907307962
14.992064,9.713538147421572,0.0785166555209453
14.994452,9.679321130850989,0.0784764874356357
14.996848,9.642450387227932,0.0784396060849311
14.999244,9.606371039537793,0.0784040462197552
15.001632,9.576809850766102,0.0783479977223156
15.004016,9.555629152032418,0.0782659730641595
15.006412,9.54203754740382,0.0781559651160835
15.0088,9.54097040393292,0.0779942185062503
15.01118,9.5384130163948,0.0778544190885246
15.01358,9.538229816655434,0.0777196938154917
15.015964,9.53776707766235,0.077593830240739
15.018348,9.543031101654796,0.0774451479909413
15.020744,9.552019787886357,0.0772855104170592
15.023132,9.559937538931273,0.0771337803836832
15.025516,9.567435981095612,0.0769966782874386
15.027912,9.570650682513396,0.0768890074551962
15.030296,9.576519110983655,0.0767782122106611
15.032676000000002,9.583318705013692,0.0766652189711665
15.035072,9.59556552277554,0.0765401541534112
15.037456,9.608743506097165,0.0764126605016105
15.039852,9.630861057964236,0.0762419773626776
15.042248,9.6576344376302,0.0760589688223595
15.044636,9.689715271401116,0.075870225283264
15.047016,9.72086493961225,0.0756842465356185
15.049412,9.748801802263468,0.075520516930767
15.0518,9.775947268981769,0.07535645231242
15.05418,9.802021800513431,0.075200673565534
15.056576,9.821158864246062,0.0750775211084642
15.058964,9.837781970553085,0.0749529936293165
15.06136,9.85547601204674,0.0748216408286999
15.063756,9.881038686899204,0.0746576058061455
15.06614,9.909814167311584,0.0744736791819638
15.06852,9.931512410298076,0.0743249705497909
15.070916,9.954281588471208,0.0741698475037612
15.073304,9.971184234031949,0.0740378756596739
15.075684,9.995164117018572,0.0738702045274471
15.07808,10.011926992952452,0.0737425124328559
15.080464,10.0246856673935,0.0736339739056533
15.08286,10.036652945901626,0.0735238749079657
15.085256,10.04368485735714,0.0734347854659395
15.087644,10.046852336946683,0.0733605481113547
15.090024,10.044293053550694,0.0733054794236301
15.09242,10.036938172728954,0.073266965060762
15.094808,10.032376788586548,0.0732212772473647
15.097188,10.031167979630917,0.0731507121074839
15.099584,10.026094738809316,0.0730940116053616
15.101972,10.019298936495014,0.0730375058729022
15.104368,10.016507335673548,0.0729627644567942
15.106764000000002,10.017440397091198,0.072878766056844
15.109152000000002,10.01651112738929,0.0727994064888531
15.111532,10.008784159515212,0.072745084560311
15.113936,9.99798415570808,0.0727062273769569
15.116324,9.994680698207416,0.0726209653613401
15.118704,9.991237471079891,0.0725402103901997
15.121108,9.99766497805759,0.0724200054728313
15.123492,10.003301089102374,0.0722984531223949
15.125872,10.01894770387924,0.0721340657856096
15.128268000000002,10.037667354589162,0.0719545695188649
15.130656000000002,10.055595609366168,0.0717733876618429
15.133036,10.080601101569057,0.0715600029293986
15.13544,10.105327054518227,0.0713555492280215
15.137828,10.131635799333235,0.0711550427132849
15.140208,10.159946644894664,0.0709460916469804
15.142604000000002,10.187605864150033,0.0707319359755898
15.144992000000002,10.21498554415168,0.0705279623550016
15.147372,10.247300591205942,0.070305996715163
15.149776,10.284131696432231,0.0700794779001135
15.152164,10.320031636098744,0.0698565143142005
15.154544,10.35364993576512,0.0696509858820052
15.156948,10.38941010580477,0.0694336936325777
15.159336,10.428243311777477,0.0692030406204374
15.161716000000002,10.468287222563683,0.068963031925796
15.164112,10.504838788536253,0.0687516183473615
15.1665,10.540598958575908,0.0685386660141417
15.16888,10.567279790443251,0.0683639743285319
15.171276,10.591958521564182,0.068198203938946
15.173664000000002,10.607046057833609,0.06805980402767
15.176048000000002,10.622133594103031,0.0679220129352432
15.178444,10.637221130372458,0.0677845330191621
15.180832,10.647652838842992,0.0676564174142057
15.183212,10.660505956940524,0.0675088272376851
15.185608000000002,10.672986987985716,0.0673464345106171
15.187996000000002,10.685887327911493,0.0671723704833884
