Time,Force,Position
14.551316,8.180799773219558,0.1620964522237921
14.553711999999996,8.234473031173259,0.1617638463436786
14.556099999999995,8.27846444233471,0.161455655462483
14.558495999999998,8.315847042636968,0.1611194400539985
14.56328,8.340333094729186,0.1609683836314196
14.565659999999998,8.348526593312087,0.1608985781245909
14.568064,8.355369617454631,0.1608614806343984
14.570448,8.373945706821953,0.1606530508571922
14.572827999999998,8.397969019921087,0.1603816055977224
14.575224,8.422551411527659,0.1600874594265895
14.577611999999998,8.451417543880785,0.1597239157620732
14.579995999999998,8.481634150674275,0.1593286084180209
14.582392,8.513573318960457,0.1589218504274414
14.584775999999998,8.550028545418673,0.1584634781732207
14.587159999999995,8.587135398182946,0.1580094499265136
14.589555999999998,8.623543402812917,0.1575848425217168
14.591939999999996,8.671684472667668,0.1569929830720994
14.594335999999998,8.721687873641978,0.1563740769179155
14.596732,8.770248252377309,0.1557630697669586
14.59912,8.818017235179724,0.155167424269122
14.601503999999998,8.864203426116303,0.1545875573237108
14.6039,8.911740091493241,0.1539812928974611
14.606284,8.954201620190705,0.1534526328202899
14.608667999999998,9.001318976687063,0.152869641292087
14.611064,9.053139382810553,0.1522007003105677
14.613447999999998,9.097510464455818,0.1516295514564736
14.615831999999996,9.14537389091472,0.1510009574696189
14.618227999999998,9.186160079947731,0.1504829962416546
14.620615999999998,9.222290441181856,0.150023271674845
14.622996,9.258792889468312,0.149582720965191
14.625391999999998,9.28994066182158,0.1492268031971278
14.627779999999998,9.323742161227315,0.1488491118034858
14.630164,9.355122251006058,0.1485187080003194
14.632559999999998,9.386921649665382,0.1481746102940221
14.634947999999998,9.416579177951428,0.1478626303350941
14.637331999999995,9.44809903735703,0.1475289167065132
14.639727999999998,9.47547492564294,0.147256841785716
14.642115999999998,9.508065720235182,0.1469160257451813
14.644512,9.540796284454284,0.1465710257653757
14.646908,9.571152660874631,0.1462412538554449
14.649296,9.601928346175557,0.1458971000679819
14.651675999999998,9.632331944424148,0.1455433542819472
14.654076,9.670232088979208,0.1450882478579726
14.65646,9.705758045735513,0.144647825765493
14.658843999999998,9.738490505812482,0.1442391650522366
14.66124,9.77443577144937,0.1437889194796017
14.663628,9.804234965220148,0.1434170833983997
14.666007999999998,9.834313698244642,0.1430354784137548
14.668408,9.865975223134974,0.1426481949272958
14.670796,9.893912085786193,0.1422979549087384
14.673175999999998,9.92413058843755,0.1419136199393131
14.675576,9.953557695155984,0.1415364800705258
14.677964,9.984335276314782,0.1411363451094558
14.680343999999998,10.01269144784658,0.1407774366443497
14.68274,10.045982986430996,0.1403666368970189
14.685128,10.086910840948736,0.139859561213925
14.687511999999998,10.129189169906835,0.1393313585572809
14.689908,10.166532131812325,0.1388608428760701
14.692296,10.20536533778503,0.1383647886570166
14.694675999999998,10.245409248571235,0.1378539725544353
14.697072,10.283590828237886,0.1373620965086195
14.699459999999998,10.31977030715812,0.1368943577937236
14.701856,10.346730678279188,0.1365323329372013
14.704252,10.377835020519948,0.13612745817112
14.70664,10.409079132387568,0.1357192911425005
14.70902,10.438600682762493,0.1353250017523468
14.71142,10.473476909070612,0.1348678137877529
14.713804,10.508772444259307,0.1343979333696074
14.716188,10.548910798702002,0.1338645203098862
14.71858,10.59240172833147,0.1332903268084636
14.720968,10.640036629080631,0.1326783613998229
14.723347999999998,10.687951069083516,0.1320617814484624
14.725744,10.730138746100868,0.1314934002483654
14.728127999999998,10.77381666718544,0.1308998745672575
14.730524,10.814049465284617,0.1303303698152267
14.73292,10.844271759651711,0.129861673122737
14.735308,10.871421018085751,0.1294252771412032
14.737688,10.898198189467454,0.1289770834474464
14.740084,10.923764656035658,0.128548587110041
14.742472,10.94239365480483,0.1281826827454331
14.744851999999998,10.960231257641082,0.1278191377690476
14.747256,10.97634629898464,0.1274644689014245
14.749644,10.998514864395696,0.1270271316606486
14.752024,11.012023400515025,0.1266629947649325
14.754427999999995,11.0219470440221,0.1263213663487096
14.756812,11.027214859730282,0.126013687452677
14.759196,11.027687078012717,0.1257457968160346
14.761592,11.024155094802314,0.1255146343718852
14.76398,11.00875027674027,0.1253891043739222
14.771148,10.921098007215074,0.1253481360158635
14.773528,10.891725705756356,0.1253218006436603
14.775928,10.8595599076183,0.1253146815435294
14.778312,10.828325275040026,0.1252996043718526
14.780696,10.799372282461889,0.1252566473718303
14.783099999999996,10.77218907320469,0.1251775754807662
14.785487999999996,10.744866094320637,0.1251024855253563
14.787868,10.7148893883841,0.1250416678909591
14.790264,10.687985718380624,0.1249517677795706
14.792652,10.662152983563786,0.1248497917465305
14.795032,10.639533054306863,0.1247128791220929
14.797428,10.60955634837033,0.1246498601197058
14.799816,10.579859181687516,0.1245774663760211
14.802196,10.550581323885284,0.1244901344346947
14.804592,10.522234631642831,0.1243961236366213
14.80698,10.495098644213876,0.1242850079315194
14.809376,10.472386167158335,0.1241220026980066
14.811771999999998,10.449533920475938,0.1239636898669288
14.814159999999998,10.429754709726591,0.1237743911770756
14.81654,10.412768995656585,0.1235639241445208
14.818943999999998,10.395923051213432,0.1233476140384903
14.821331999999998,10.375072905277449,0.1231681796092919
14.823712,10.354082989714607,0.12299311879851
14.826107999999998,10.327506080793093,0.1228585878843123
14.828495999999998,10.297576596684802,0.1227645302156301
14.830876,10.26229243664332,0.122729720110291
14.833275999999998,10.227799672534756,0.1226920805584856
14.835663999999998,10.194238073985968,0.122646819379038
14.838044,10.16402905062396,0.1225594139047967
14.840439999999996,10.13302863132903,0.1224726568527506
14.842827999999995,10.099746572033965,0.1224132283290145
14.845208,10.07326221091107,0.1222959728331676
14.847604,10.051573447213926,0.1221391306847717
14.849992,10.032258871315536,0.1219764509694878
14.852372,10.016017331350202,0.1217828582273975
14.854772,9.99735438175787,0.1216223769724181
14.85716,9.97305721697862,0.1215304950359024
14.85954,9.955697519998402,0.1213757795332811
14.861936,9.9408517804438,0.1212105665435426
14.864324,9.929218846449112,0.1210096762310409
14.866708,9.919168704320262,0.1208049247538462
14.869104,9.911912058870746,0.1205798635136275
14.871492,9.907448910100568,0.120334664048485
14.873887999999996,9.907362049875555,0.1200653367768524
14.876283999999998,9.91235032633002,0.1197466887812833
14.878671999999998,9.923996531329788,0.1193753649336139
14.881052,9.933500865956283,0.1190272904212184
14.883447999999998,9.94165472614242,0.118700636188029
14.885835999999998,9.944825997447698,0.1184467289858683
14.888216,9.943433988752702,0.1182494632372177
14.890611999999996,9.942833375990624,0.1180505437565649
14.892999999999995,9.941301597668769,0.117859029630405
14.89538,9.939210740839473,0.1176884122640477
14.897776,9.939633841435793,0.1175088502790909
14.900164,9.941360194644224,0.1173371068433446
14.902559999999998,9.948021914905272,0.1171228351086218
14.904956,9.95882760628601,0.116866498915227
14.907343999999998,9.971355859159443,0.1166042507049756
14.909727999999998,9.981742241659605,0.1163658710416144
14.912124,9.989567444905909,0.1161657592196688
14.914507999999998,10.001117310391322,0.1159411959710256
14.916888,10.012108097369296,0.115737538963968
14.919287999999998,10.02281934509355,0.1155446865649331
14.921675999999998,10.0352531543105,0.1153451877526952
14.924056,10.04726765464687,0.1151614945281128
14.92646,10.05914238535638,0.1149840976871323
14.928848,10.073019216812307,0.114789444666422
14.931231999999998,10.090760480134207,0.1145659883976524
14.933628,10.113856419389302,0.1142874402784513
14.936016,10.148685423869177,0.1139179649186803
14.938395999999996,10.181372557975772,0.113569788409813
14.940796,10.212569448015152,0.1132486268086989
14.943184,10.245908208427808,0.1129084638200075
14.945563999999996,10.276453472161126,0.1125879200891864
14.947959999999998,10.308349210334804,0.1122502849706591
14.950347999999998,10.33996540925476,0.1119249821281302
14.952728,10.377028831906529,0.1115741287858244
14.955127999999998,10.41302131937166,0.1112372607738139
14.957515999999998,10.447011706090372,0.1109156037378577
14.959896,10.483004193555502,0.1105781670616615
14.962291999999998,10.516994580274217,0.1102591591800493
14.964679999999998,10.550333340686867,0.1099370931800241
14.967064,10.582740935539746,0.109621386417033
14.969459999999998,10.614357134459702,0.1093083531666162
14.971847999999998,10.647975434126076,0.1089821030264464
14.974228,10.679591633046035,0.1086727677950004
14.976627999999998,10.713070163085549,0.1083543147997097
14.979015999999998,10.745477757938428,0.1080476890785983
14.981396,10.779607914284002,0.1077386480614157
14.983791999999998,10.808151077270905,0.1074648893259531
14.986179999999996,10.84148983768356,0.1071615602241172
14.988564,10.87790163402927,0.1068355412493064
14.990959999999998,10.910448998509004,0.1065360528660911
14.993351999999998,10.946069398921797,0.1062144933242102
14.995732,10.977406058588034,0.1059323153174787
14.998127999999998,11.00860294862741,0.1056562820600114
15.000515999999998,11.03193120530798,0.1054342384751523
15.0029,11.054979922734834,0.1052224357567793
15.005295999999998,11.080822136841016,0.1049958307408356
15.00768,11.106804120574065,0.1047658130468604
15.01008,11.133717269866883,0.1045321935356539
15.012476,11.163144376585322,0.1042942964839065
15.014864,11.194294044796456,0.1040521056034424
15.017243999999998,11.227306044127149,0.1038024823341016
15.01964,11.256313841965005,0.1035811871710728
15.022032,11.287975366855338,0.1033513776759031
15.024411999999998,11.320428287678592,0.1031233325419845
15.026812,11.35381237406162,0.1028919929363341
15.0292,11.386405064511727,0.1026638876076485
15.031584,11.41871821570812,0.1024454964822652
15.03398,11.452381841344868,0.1022129196025304
15.036368,11.485114301421836,0.1019868430147139
15.038747999999998,11.520360718924424,0.1017567904028113
15.041144,11.55439643161351,0.1015415105771653
15.043532,11.590294475422152,0.1013177043314105
15.045915999999998,11.62288716587226,0.1010988976587082
15.048312,11.660554993001846,0.1008468597010742
15.0507,11.696779797892452,0.1005919996249474
15.053079999999998,11.737428113156472,0.1003026966367813
15.055476,11.781940860286468,0.0999959804608735
15.057864,11.825801981110402,0.0996871361794052
15.060243999999996,11.865147043762308,0.099395117203029
15.062644,11.905190954548516,0.0990851456519224
15.065032,11.942441368655388,0.0987889458618095
15.067411999999996,11.983835753881952,0.0984660181955694
15.069812,12.023926886496405,0.0981371661006011
15.0722,12.063645932058517,0.0977992027240653
15.074579999999996,12.100711250568152,0.0974697273087261
15.076975999999998,12.134843302771596,0.0971575793523151
15.079363999999998,12.16646139754942,0.0968491763257089
15.08176,12.193144125274635,0.096569330101835
15.084156,12.2150312555741,0.0963122765083474
15.086544,12.235335594007728,0.0960555632441756
15.088928,12.25433667982924,0.0957916654307387
15.091324,12.273757074531332,0.0955168268583587
15.093712,12.299835397778734,0.0952140344281741
15.096092,12.32339976360052,0.0949159365053965
15.098492,12.349757626101642,0.0946086520967237
15.10088,12.36917802080373,0.0943393879014044
15.10326,12.382220026214236,0.0940921322200597
15.105656,12.389675038266072,0.093865327077547
15.108044,12.40048262550468,0.0936128539818134
15.110428,12.41035904718351,0.0933650871074925
15.112824,12.416650576250088,0.0931266479390222
15.115212,12.418426047144637,0.092901914930168
15.117596,12.419270352479405,0.0926809708346153
15.119992,12.413828816321203,0.0924990409689299
15.12238,12.412671020909556,0.0922889019106152
15.124764,12.410861599191849,0.092074452643388
15.12716,12.411985443780342,0.0918463046883624
15.129548,12.413388827622551,0.0916103979787782
15.131927999999998,12.419075952211315,0.0913460339009211
15.134328,12.42425122012088,0.0910736723776891
15.136716,12.424211581724114,0.0908320215311376
15.139096,12.421518216274876,0.090596313768775
15.141492,12.411515295974269,0.0903829640953058
15.143884,12.399510274927245,0.0901794662527295
15.146264,12.380195699028851,0.0899972601242633
15.14866,12.36330253275746,0.089793105708029
15.151048,12.347340532045845,0.089585239219138
15.153432,12.341109495812592,0.089334590748458
15.155832,12.33487845957934,0.0890843813208581
15.15822,12.323712056293475,0.088856607611553
15.1606,12.31654985450045,0.0886083956582721
15.162996,12.3103188182672,0.0883566733142196
15.165384,12.301434054981472,0.0881098377562324
15.167768,12.295110470949604,0.0878369508810106
15.170164,12.283991289491986,0.0875831950831556
15.172556,12.271801172847727,0.087335686460547
15.174936,12.256817559524134,0.0870968702729726
15.177336,12.237829744707708,0.0868765870022341
15.179724,12.216048433211949,0.0866647079641995
15.182108,12.192265020969767,0.086461682934819
15.184504,12.17383628466078,0.0862240700799498
15.186892,12.158620353911708,0.0859658547293261
15.189276,12.144335588722416,0.0857037491626316
15.191675999999998,12.12860780129415,0.0854348507300258
15.194063999999996,12.11581328017208,0.0851520565915409
15.196448,12.102739219796284,0.0848768314239912
15.19884,12.084729792367876,0.0846223509552881
15.201228,12.057129170087972,0.0844037085683828
15.203604,12.02580388556895,0.0841955117738366
15.206007999999995,11.995269996982843,0.0839873318841069
15.208392,11.963385633956378,0.0837929024530335
15.210772,11.932432436489693,0.0835949632913014
15.213168,11.902922261261986,0.0834021343757052
15.215552,11.871270215660996,0.0832215315240423
15.217948,11.838547234873374,0.0830465038718187
15.220351999999998,11.808385433339604,0.0828455566116198
15.222735999999998,11.779294566992478,0.0826370657770957
15.225116,11.754487441391904,0.0824009628261519
15.227519999999998,11.727538445418052,0.0821769019195226
15.229907999999998,11.702451780563758,0.0819464340747134
15.232288,11.677085576455744,0.0817231927593348
15.234692,11.6452937612279,0.081538466598232
15.237075999999998,11.612151471559695,0.0813671841326771
15.239456,11.586318736742856,0.0811777149088963
15.24186,11.563279498605352,0.0809796968202752
15.244248,11.537446763788513,0.080788708167063
15.246627999999998,11.518831036024425,0.080559071905167
15.249032,11.504079740126306,0.0803140396260303
15.251416,11.491051005720887,0.0800669634279497
15.253799999999998,11.481654385755965,0.0797880750823464
15.256204,11.470954513178922,0.0794977233671371
15.258588,11.45573858242985,0.0792149455314592
15.260967999999998,11.438288233508883,0.0789227734796417
15.263372,11.42712372608089,0.0785953467265352
15.26576,11.415819449026037,0.0782704293468195
15.26814,11.396878856037848,0.077992965976243
15.270543999999996,11.374865227116608,0.077729683074949
15.272931999999996,11.352711828568506,0.077469549189535
15.275312,11.335493797073015,0.0771884773221408
15.277708,11.320557405577665,0.0768904362355649
15.280092,11.302827517402976,0.0765987185461981
15.282472,11.293525341094538,0.0762598066022413
15.284868,11.286365035159376,0.0759072660335249
15.287252,11.272826339932625,0.0755672806609691
15.289635999999998,11.25635437839968,0.075237742310564
15.292036,11.240953352053374,0.0749006295468894
15.294424,11.223410455333791,0.0745757003573055
15.296803999999998,11.208661055293543,0.0742442933849371
15.2992,11.19204932413374,0.0739161239862375
15.301583999999998,11.174738744839637,0.0736074778815732
15.303967999999998,11.162083993344424,0.073287963299877
15.306364,11.1570183359543,0.0729476137936426
15.308747999999998,11.155258031922706,0.0726100814219203
15.311131999999995,11.154149354197171,0.0722802640555544
15.313527999999998,11.158907209084026,0.0719313005918066
15.315915999999998,11.175537898822522,0.0715393173786268
15.318296,11.200037221919825,0.0711213141733032
15.320691999999998,11.232125639122213,0.0706883319966912
15.323079999999996,11.265284991511242,0.0702526672833277
15.32546,11.29788526539283,0.0698347729553872
15.327863999999998,11.33407043188667,0.0694140017216789
15.330247999999996,11.365832088007094,0.0690218488956814
15.332628,11.401597945620354,0.0686176297319395
15.335036,11.4437421925252,0.0682078843611754
15.337419999999998,11.487469231295886,0.0678027941564289
15.3398,11.537714428985018,0.0673896014835845
15.342204,11.593267080779102,0.0669778156572489
15.344592,11.64360482626685,0.0665897357689013
15.346971999999996,11.702602601046324,0.0661838084079467
15.349367999999998,11.762531541385576,0.0657782071331773
15.351755999999998,11.820039072097831,0.0653930771166479
15.354136,11.87726706355637,0.0650198160468511
15.356531999999998,11.937428321321098,0.0646413624935401
15.358919999999998,11.991303737592856,0.0642910154605273
15.3613,12.040523326065726,0.063949706778336
15.363703999999998,12.086018252299482,0.063617339218217
15.366087999999998,12.126438041853763,0.063304509248344
15.368472,12.156055931743042,0.063021454456389
15.370867999999998,12.183252412005324,0.0627565066051963
15.373251999999995,12.210868201148187,0.06248234512797
15.375647999999998,12.241836565477826,0.0621930002869668
15.378044,12.27694890092716,0.0618903397590665
15.380427999999998,12.311781697122768,0.0615975940547789
15.382807999999995,12.343820996639048,0.0613104654405236
15.385203999999998,12.377350540222544,0.0610097014296166
15.387591999999998,12.403290989700952,0.0607217484496242
15.389975999999995,12.420990718768216,0.0604397690271562
15.392371999999998,12.443905354141815,0.0601396627516884
15.394755999999996,12.459230895410323,0.0598521190118039
15.39714,12.472182248880085,0.0595573555641237
15.399535999999998,12.487694781603697,0.0592449610919407
15.401923999999998,12.496689155408864,0.0589386611407429
15.404315999999998,12.504380276601916,0.0586220269935406
15.406712,12.517426073728156,0.0582848289003404
15.4091,12.531914893093376,0.0579562670424327
15.411479999999996,12.54440161171218,0.057633210749957
15.413875999999998,12.559961366264035,0.0573021166618244
15.416263999999998,12.578594156748949,0.0569613878762477
15.418644,12.596715090554662,0.0566115779956965
15.421039999999998,12.607619017307629,0.0562825684172267
15.423423999999995,12.611305937007844,0.0559757003313389
15.425819999999998,12.60791561928217,0.0556867087638474
15.428216,12.597075977078273,0.0554022143062402
15.430604,12.579159097448484,0.0551342362260235
15.432983999999998,12.560031513005196,0.0548735411432015
15.43538,12.543697425241245,0.0546105068111683
15.437767999999998,12.532158934903045,0.0543408382344861
15.440151999999998,12.51582484713909,0.0540767808484236
15.442548,12.49907145049456,0.0538219496127338
15.444935999999998,12.483900845715862,0.0535724033169004
15.447315999999995,12.461233694630694,0.0533488191843931
15.44972,12.442151436157785,0.0531260308247259
15.452104,12.417295192871098,0.052931520368034
15.454483999999995,12.38429077697188,0.0527560902407535
15.456888,12.349843338833692,0.0525705183392245
15.459276,12.315395900695504,0.0523840975701724
15.461655999999998,12.272008894011869,0.052213109292867
