Time,Force,Position
15.438344,1.4264748364577358,0.2019164028912464
15.440724,1.467525397881514,0.2017487949712221
15.443128,1.5141629526639624,0.2011411694127305
15.445516,1.5668993574842784,0.2001720035611055
15.447895999999998,1.6319260101789466,0.1985425809042787
15.4503,1.6996970418668378,0.1976132723733904
15.452688,1.7772424681455972,0.1967365987773034
15.455068,1.8710804479336731,0.1954598305531371
15.457472,1.9795809675369869,0.1938125880965197
15.459856,2.097017263970008,0.1923547836261947
15.46224,2.2231097979790158,0.1911696938373724
15.464636,2.357579030310289,0.1903204451040689
15.467024,2.5020077528296656,0.1897088454252971
15.469399999999998,2.664404368522812,0.1885961894352509
15.471796,2.844768877389728,0.1871359286784877
15.47418,3.039376617191301,0.1857048258039751
15.476576,3.247575961621473,0.1843042835688259
15.478968,3.468715284374187,0.1827317343817329
15.481356,3.703353663956882,0.1810923946600744
15.483736,3.943902006264471,0.1796487770904444
15.486128,4.195155908722708,0.1782814351725522
15.488516,4.456323975398674,0.1770528496415793
15.490912,4.718002002895969,0.1762402442314147
15.493312,4.980237213042837,0.1757357238747186
15.4957,5.236513342778698,0.17555811315587
15.49808,5.48748391426748,0.1753181581690758
15.50286,5.946276055560489,0.1751404801080898
15.50524,6.157357652752877,0.1750533055898656
15.507636,6.361040939011021,0.1747994194021419
15.51002,6.553089395416609,0.1744409936921868
15.5124,6.733270704544164,0.1739645966480244
15.514804,6.898651600087489,0.1734348905439171
15.517192,7.046718124620973,0.1729069426395529
15.519567999999998,7.177470278144614,0.1724009517885617
15.521964,7.290069442897249,0.1719510507685138
15.524352,7.383025374811662,0.1715933340100145
15.526732,7.464299255045274,0.1711990947497425
15.529144,7.528256868411177,0.1709088019893885
15.531532,7.588912920134285,0.1704404536062569
15.533912,7.637188072042292,0.1699800916403161
15.536316,7.670009288202143,0.1695824975993084
15.5387,7.695989376077322,0.1691302877290723
15.54108,7.71764229309344,0.1686007832682449
15.543476,7.733942430034232,0.1680808527128308
15.545864,7.747775831377655,0.1675551191276396
15.548239999999998,7.763751103094354,0.1669875071415602
15.550636,7.781356388505134,0.1663686929911583
15.553019999999998,7.7935144501841025,0.1658319686305659
15.5554,7.799294122571483,0.1653892271786878
15.557795999999998,7.805073794958864,0.1649478159852282
15.560183999999998,7.807361122532609,0.1645843773359268
15.562564,7.811650550852771,0.1641860977959617
15.56496,7.81631206622527,0.1638018323284758
15.567348,7.816410301597495,0.1635156519611535
15.569728,7.81557737140994,0.1632422647173517
15.57214,7.818888412342081,0.1628895989275488
15.574528,7.8238294669682995,0.1624886070587963
15.576908,7.830400535288599,0.1620354160991746
15.579304,7.829382509503812,0.1617026908377238
15.581692,7.825151678159109,0.1614327310420738
15.584072,7.826927149053656,0.1610599378701092
15.586467999999998,7.828050993642145,0.1606867607363198
15.588852,7.825589945618382,0.1603619751485209
15.591232,7.820614940169003,0.1600625012634932
15.593632,7.815128078040429,0.1597549895370216
15.59602,7.806847719232518,0.1594875191858512
15.5984,7.797868512290305,0.1592558304551965
15.600812,7.790192557960207,0.1590260765291588
15.6032,7.7863338136678415,0.1587732027226619
15.605579999999998,7.783638552360733,0.1585304732138932
15.607976,7.787181910718352,0.1582111967458532
15.610364,7.790678047247725,0.1579298510303956
15.612744,7.798550472322272,0.1575994230313065
15.615139999999998,7.809588481128489,0.157242752690629
15.617527999999998,7.82258136885288,0.1568888105428944
15.619908,7.837668905122307,0.1565349951047301
15.622303999999998,7.850567349190212,0.1562605917424398
15.624688,7.868493708109345,0.1559415829163966
15.627068,7.888514715573516,0.1556195036801483
15.629464,7.913471090090296,0.1552211439336821
15.631848,7.934655580539719,0.1549134445108769
15.634227999999998,7.9550014532279825,0.1546471344894078
15.63662,7.974229168901363,0.1544362292051484
15.639008,7.996622468306418,0.1542029535647405
15.641388,8.019899711443006,0.1539946046421294
15.643783999999998,8.048204869430824,0.1537418616385285
15.646171999999998,8.078884215217396,0.153474284807959
15.648548,8.112077518429583,0.1531854782896937
15.650944,8.143268720895353,0.1529286445852913
15.653328,8.173249218547625,0.1526993253271689
15.655708,8.19973737138626,0.1525427741165599
15.658108,8.227668546463871,0.1523841805292132
15.660492,8.252898772660764,0.1522915422627404
15.662871999999998,8.28157412184305,0.1521650705694618
15.66528,8.315976234010865,0.151964775165515
15.667664,8.349819267671242,0.1517945856529798
15.670044,8.382451596518118,0.1516481284547806
15.67246,8.412802285364858,0.1515481879385179
15.674852,8.445015305331154,0.1514266247975829
15.677228,8.47452737641673,0.1513678347497676
15.679624,8.502968512315672,0.1513256743869647
15.682012,8.535413849707446,0.151225806631582
15.684392,8.569721518218776,0.1511017514918647
15.686804,8.60682268340944,0.1509465022346079
15.689192,8.644715244533023,0.1507870362204604
15.691572,8.67981430897727,0.1506634725190725
15.693968,8.714773603794661,0.1505477622553387
15.696352,8.749593128985188,0.15044034045258
15.698731999999998,8.789580338653803,0.1502883498492536
15.701128,8.83515454168109,0.15007634345021
15.703524,8.882870615081652,0.1498316685827955
15.705904,8.931657623668855,0.1495742125080373
15.708296,8.983517668189112,0.149275069691254
15.710684,9.03658841752287,0.1489581651306281
15.713064,9.083652864617374,0.1487251158862183
15.715476,9.127784045405686,0.1485286050313284
15.71786,9.175267801380771,0.1482783389742099
15.720244,9.220097830303384,0.1480531844841247
15.72264,9.265207398479715,0.1478198027679059
15.725024,9.313949081096546,0.1475232854039426
15.727403999999998,9.368185209273427,0.1471452347572281
15.729819999999998,9.421909480771111,0.1467656886958016
15.732204,9.476472370029958,0.1463534259181368
15.734584,9.526798740370491,0.1459758333649982
15.73698,9.576241166979491,0.1455796072591675
15.739368,9.623449175416594,0.1451893668741146
15.741748,9.668422765681806,0.1448061068783763
15.744144,9.709811463334765,0.144455400446322
15.746532,9.745660389457294,0.1441340789408632
15.748912,9.77247719923576,0.1438976679212263
15.751324,9.795057490095918,0.1436915245898995
15.753711999999998,9.81419265797068,0.1435127635208685
15.756092,9.828160141367356,0.1433734711754879
15.758508,9.83682017065908,0.1432790183512979
15.760896,9.846179048085109,0.1431564699992636
15.763276,9.856516312899158,0.1429945923989711
15.765688,9.86555032510109,0.1428300930111539
15.768076,9.877564825437457,0.1426037148522084
15.770456,9.88413210204202,0.1424264908180125
15.787188,9.79541268904592,0.1423698626827442
15.789576,9.77786410475273,0.1423666444778861
15.791952,9.765158339713537,0.1422834598259527
15.794356,9.75473421467448,0.142165846126257
15.796744,9.7476626648222,0.141999603958118
15.799124,9.743943690156692,0.1417848426431343
15.801528,9.736919362132657,0.1415882815140655
15.803916,9.731385278175836,0.1413603585903322
15.806295999999998,9.727993064592294,0.1411033342033436
15.808692,9.725020159889333,0.1408298963496574
15.811075999999998,9.718322592947258,0.1405910338105901
15.813456,9.705758493392793,0.1404158030937924
15.81586,9.687979487531996,0.1403064972436253
15.818248,9.671690725738417,0.140165820836605
15.820628,9.660477100624313,0.1399635182061958
15.823032,9.650893489204284,0.1397236092867633
15.82542,9.64051848185134,0.1394864502327651
15.827799999999998,9.634566984871809,0.1391856381406888
15.830196,9.631828293452193,0.1388414480675142
15.832584,9.632302407592494,0.1384541802757602
15.834964,9.62891208986682,0.1381078458988931
15.83736,9.628594808074205,0.1377243416664131
15.839743999999998,9.622550763296054,0.1373986615842778
15.84214,9.613713221838571,0.1370985420689583
15.844536,9.604084284448172,0.1368011532384072
15.846924,9.591661850378436,0.1365288606541527
15.849303999999998,9.584594092241897,0.136185967226831
15.8517,9.57724679485163,0.1358536275074604
15.854088,9.571529511155449,0.1354858456800848
15.856467999999998,9.560876860406651,0.1351695617432156
15.858872,9.553297245590912,0.1348158395986815
15.86126,9.5526550985742,0.134385909643057
15.863639999999998,9.552152721184347,0.1339482221741705
15.86604,9.551231034913917,0.1335260082171536
15.868424,9.54644491677751,0.1331429234564676
15.870803999999998,9.54324159050694,0.1327537510713214
15.873195999999998,9.54110919942301,0.1323498633267532
15.875583999999998,9.533761902032747,0.1320101855215474
15.87796,9.52213086389593,0.1317256861434007
15.880356,9.507426789826058,0.1314767474698854
15.882744,9.49565598206238,0.1311970020942592
15.885124,9.478670267992367,0.1309800615742982
15.887536,9.464058741721114,0.1307543909290849
15.889924,9.448748367315558,0.1305560376426885
15.892316,9.43315845365628,0.1303682540583606
15.89472,9.419011562235978,0.1301801893701648
15.897108,9.403606744173931,0.1300419862875319
15.899488,9.38927286129853,0.1298895739477348
15.901891999999998,9.373029425475329,0.1297835098635113
15.904279999999998,9.361162278197291,0.129647815078269
15.90666,9.350877922785092,0.129506691919246
15.909064,9.33724099218612,0.1294115903889716
15.911447999999998,9.327468493453123,0.1292785256637379
15.913828,9.321839965839818,0.1290967926505794
15.916223999999998,9.320587726771684,0.1288862948169907
15.918608,9.31677430844969,0.1287190334807695
15.920988,9.31612647385937,0.1285426179969046
15.923384,9.318923762254444,0.1283454851178562
15.925772,9.328378979194827,0.1280884741844592
15.928156,9.341930945426656,0.1278151695081899
15.930559999999998,9.353341041285212,0.1275690552465334
15.932947999999998,9.370058591248718,0.1272868179176677
15.935328,9.3889180115855,0.1269798777848189
15.937724,9.410850467855337,0.1266386956492569
15.940112,9.436088277483703,0.1262847721986991
15.942492,9.463700274910831,0.1259261482480413
15.944888,9.492802516405172,0.1255404087892993
15.947276,9.526141276817826,0.125137582114049
15.949656,9.5602714331634,0.1247335727448535
15.95206,9.600407891748224,0.1242746616026518
15.954448,9.64305830775866,0.123809422755573
15.956828,9.686500119702014,0.1233417567724118
15.959224,9.72910331388421,0.1229079575932534
15.961612,9.771799055865024,0.1225033149946897
15.963992,9.814075488965251,0.1221173933764695
15.966395999999998,9.864360325051152,0.1216578220973306
15.968784,9.911572125203993,0.1212319026565569
15.971164,9.958783925356837,0.1208080558638836
15.973563999999998,10.002503380696044,0.1204343748938092
15.975952,10.043429339355916,0.1200830682880582
15.978332,10.08780042100118,0.1197165895519252
15.980735999999998,10.137246639325916,0.119308200602706
15.983123999999998,10.181989808023516,0.1189620480360125
15.985504,10.22659320709426,0.1186229584609571
15.987908,10.27147614541872,0.1182779889324198
15.990291999999998,10.313984895944428,0.1179395762264524
15.992676,10.35435177609686,0.1176260955014917
15.995067999999998,10.391133763637038,0.1173369429742502
15.997455999999998,10.43205972229691,0.1170116551653931
15.999836,10.467770774650448,0.116741183855982
16.002232,10.500688330324651,0.1164916027571959
16.00462,10.536027295625855,0.1162122988888743
16.006999999999998,10.572996274621138,0.1159046114103379
16.009396,10.609593166564082,0.1155866525669883
16.011784,10.646888906641326,0.1152475700926153
16.014167999999998,10.676595552613485,0.1149628129361666
16.016564,10.706861277093084,0.1146595819087695
16.018952,10.73833770638618,0.1143431937706786
16.021331999999997,10.768930191947742,0.1140060744941352
16.023728,10.79780011601661,0.1136750507799485
16.026116,10.822293751540302,0.1133641389713288
16.028499999999998,10.83947783221263,0.1130971162551822
16.030896,10.860294027325455,0.1127849563891987
16.033279999999998,10.880458596132224,0.1124700444696358
16.035659999999996,10.89610710676696,0.1121794506789221
16.038071999999996,10.910964221468776,0.1118899959218351
16.04046,10.927963206543875,0.1115813113606574
16.042839999999998,10.942028925312774,0.1112938052943665
16.045243999999997,10.94664321885703,0.1110663925189541
16.047631999999997,10.945950058296336,0.1108621153864942
16.050012,10.943813875496668,0.110655121006896
16.052404,10.941817462323858,0.110444370272117
16.054792,10.93916942284499,0.1102305175555439
16.057171999999998,10.932796721127012,0.1100380765102933
16.059575999999996,10.924421918662617,0.1098609793601983
16.06196,10.920051317691051,0.1096537502202028
16.064339999999998,10.916751651906123,0.1094370088811059
16.066743999999996,10.90865638869545,0.1092506667717765
16.069131999999996,10.899210651044417,0.1090826472028041
16.071512,10.892977718953292,0.108885352922108
16.073908,10.88874688760859,0.1086729105283113
16.076296,10.880232315517333,0.1084985450913354
16.078675999999998,10.871066117120018,0.108320284477994
16.081079999999996,10.861108522789785,0.108142420161293
16.083467999999996,10.85101115883269,0.1079685803147312
16.085848,10.842915895622014,0.1077798309847616
16.088243999999996,10.829233639052667,0.1076214370169962
16.090632,10.818764188043236,0.1074339039961566
16.093007999999998,10.811228003339998,0.1072255244890861
16.095411999999996,10.81156045199557,0.1069621736798758
16.0978,10.808819864718089,0.1067224549451784
16.100184,10.801935306320908,0.1065169943952403
16.102587999999997,10.78997561124426,0.1063502905242546
16.104975999999997,10.778295455421327,0.1061738371634938
16.107359999999996,10.76689483885212,0.1059880254400922
16.109751999999997,10.749627689670518,0.1058412958788804
16.112139999999997,10.727285403809448,0.1057331675285433
16.11452,10.708295693135153,0.1055909429018893
16.116915999999996,10.689585521714578,0.1054390043784
16.119303999999996,10.668081853614668,0.1053015955363103
16.121684,10.64606632883556,0.10515471967142
16.12408,10.63154735036292,0.1049402322667642
16.126464,10.6160972063305,0.1047302215297666
16.128843999999997,10.599715896738305,0.1045244907898576
16.13124,10.586035536026824,0.1042807954555952
16.133627999999998,10.568770282703095,0.1040514692682895
16.136011999999997,10.550713633446447,0.1038210266388187
16.138408,10.528140926017771,0.1036096757895985
16.140791999999998,10.50663915377573,0.1033880566129303
16.143175999999997,10.47861922261524,0.1031996823250499
16.145567999999997,10.45674536332086,0.1029629532377907
16.147955999999997,10.433940338466703,0.1027302750797424
16.150336,10.417281385478656,0.102449254631563
16.152751999999996,10.401134289169809,0.1021765588512233
16.15514,10.380843221741266,0.1019362261791823
16.157535999999997,10.36176285912622,0.1016804661302035
16.159931999999998,10.34803717244437,0.1013762140228581
16.162319999999998,10.33189007613552,0.1010997832418808
16.164699999999996,10.318536476506006,0.1008084811271389
16.167104,10.30597427280941,0.100516318042392
16.169491999999998,10.294203465045731,0.1002236833247595
16.171871999999997,10.27800914690864,0.0999730840744364
16.174267999999998,10.261255750264109,0.0997406166221131
16.176655999999998,10.24701631104519,0.0995030550108119
16.179035999999996,10.23179848443825,0.0992977822911212
16.181435999999998,10.218023680070289,0.0990964831595554
16.183823999999998,10.212489596113468,0.0988580089759336
16.186203999999996,10.2110522614481,0.0986146459341988
16.188599999999997,10.210126783461927,0.09838060833534
16.190987999999997,10.213298054767208,0.0981418665877003
16.193367999999996,10.209903945325795,0.0979631057686846
16.195763999999997,10.213447303683417,0.0977388085467197
16.198151999999997,10.215220878720093,0.097547771747308
16.200532,10.223000755996022,0.0973173318519025
16.202927999999996,10.236367626630622,0.097060155156706
16.205315999999996,10.253971016183533,0.096794979802293
16.207711999999997,10.269013226482585,0.0965623973007397
16.210107999999998,10.289502660513447,0.0963091812532358
16.212495999999998,10.308501850477088,0.0960794430070868
16.214875999999997,10.32829243637365,0.0958502764805055
16.217271999999998,10.34510253413577,0.0956661201657514
16.219659999999998,10.362424488577089,0.0954908435803996
16.222039999999996,10.383471105257522,0.095299023887845
16.224439999999998,10.406380053057513,0.0951002046839173
16.226827999999998,10.429009461603782,0.0949105255066998
16.229207999999996,10.454152827575664,0.0947177725059743
16.231603999999997,10.475012452800994,0.094561336624391
16.233991999999997,10.495732308399464,0.0944099876370211
16.236372,10.518174725490628,0.0942553893085795
16.238775999999998,10.541408538514712,0.0941019590211611
16.241159999999997,10.573442150457382,0.0938982735732108
16.24354,10.596768511280084,0.0937681905209737
16.245943999999998,10.616090670609951,0.0936630225046731
16.248331999999998,10.628847449193128,0.0936147677201017
16.250711999999996,10.641324688522582,0.093575931938924
16.253116,10.655524489344735,0.0935340703476374
16.255504,10.67330918277914,0.0934809355968608
16.257883999999997,10.688440149161073,0.0934360139322846
16.260279999999998,10.706644151476056,0.0933710018927881
16.262663999999997,10.730155607895991,0.0932924284821236
16.265047999999997,10.759673366555177,0.0931775814553842
16.267443999999998,10.795057657826751,0.0930318092507131
16.269827999999997,10.831652653911826,0.0928760021531697
16.272223999999998,10.866897175556543,0.0927382552987036
16.274627999999996,10.904143797947675,0.092589070999736
16.277015999999996,10.943392521085226,0.0924299041607627
16.279396,10.983572409782555,0.0922669602623145
16.281795999999996,11.02775649997272,0.0920828933908429
16.284183999999996,11.073942690909297,0.0918893553796955
16.286568,11.12292237852521,0.0916872366368949
16.288971999999998,11.16761832539457,0.0915178325923506
16.291355999999997,11.220322675249596,0.0913025718444472
16.293739999999996,11.280895658463429,0.0910468292592207
16.296135999999997,11.34333097279682,0.0907829074013395
16.298519999999996,11.405766287130213,0.0905206378342203
16.3009,11.467270435903822,0.0902647380080215
16.303299999999997,11.527843419117657,0.090014304856471
16.305684,11.592001294943744,0.0897572214407662
16.308068,11.659883833008946,0.0894915977242184
16.310463999999996,11.722039608088616,0.0892522452762485
16.312852,11.784335152795146,0.0890120715228058
16.315231999999998,11.842906035262564,0.0887875771507759
16.317628,11.895051306610146,0.0886069188796135
16.320016,11.94426331165154,0.088439636819156
16.322395999999998,11.995477417439346,0.0882637809602648
16.324792,12.044689422480737,0.0881000129135924
16.32718,12.097114233082044,0.0879166030715888
16.329559999999997,12.141670410324544,0.0877706422984224
16.33196,12.184504026074343,0.087628851180248
16.334348,12.2208194829057,0.0875092343561762
16.336727999999997,12.259835888617772,0.0873615416227352
16.339123999999998,12.298340437650644,0.0872073293534883
16.341511999999998,12.331397762951712,0.0870684545228668
16.343891999999997,12.363012066013802,0.0869240606134799
16.346287999999998,12.391041476463636,0.0867878991761794
16.348675999999998,12.416696699114718,0.0866500923859359
16.351059999999997,12.4418400650866,0.086504711220012
16.353455999999998,12.459114797699677,0.0863942123431851
16.355843999999998,12.464656465087971,0.0863338715961817
16.35824,12.469686275797072,0.0862651592923416
16.360636,12.4691290931475,0.0862139900111058
16.363024,12.465638644191737,0.0861752184608372
16.365403999999998,12.466991014489963,0.086094944203562
16.3678,12.469042232922494,0.0859958209153626
16.370188,12.464435522809715,0.085920751169914
16.372567999999998,12.458246020831098,0.0858440369587114
16.374964,12.447400691053591,0.0857816470747863
16.377352,12.43883700127622,0.0857022203015005
16.379735999999998,12.425477714073098,0.0856407157530347
16.382132,12.414400066870115,0.0855621550572622
16.384515999999998,12.400249383734076,0.0854994658066826
16.386899999999997,12.381163333545429,0.085458119245543
16.389295999999998,12.36300844891655,0.0854137757846769
16.391683999999998,12.349137305034231,0.0853432109305013
16.394067999999997,12.338199427458107,0.0852605187702269
16.396463999999998,12.328052945814902,0.0851787006070765
