Time,Force,Position
15.155739999999998,7.6211281208895105,0.1592684977120588
15.158127999999998,7.663400762274003,0.1587582085091765
15.160508,7.698505514291859,0.158247626343834
15.162903999999996,7.724672593622138,0.1577907410816358
15.165291999999996,7.747302002168407,0.1573456075456655
15.167672,7.764344417356008,0.1569874704987658
15.170068,7.776079378438657,0.1566985871320549
15.172456,7.783810138028473,0.1564759561000064
15.174836,7.789399027245011,0.1562933291572843
15.177232,7.797409326088547,0.156055382796011
15.179616,7.805559394558944,0.15580910958556
15.182012,7.812498758215844,0.1555898874905094
15.198743999999998,7.784106740003015,0.155511419056128
15.201131999999998,7.783689326980305,0.1554270575257552
15.210676,7.763721228917987,0.1554016406719681
15.213079999999998,7.758647988096384,0.1553818248837412
15.215467999999998,7.754273595409082,0.1553264658721481
15.217848,7.750690598654699,0.1552656770977127
15.220243999999996,7.752182738579788,0.1551218794492603
15.222632,7.756468375184211,0.1549407773417485
15.225012,7.763547508467969,0.1547241808380414
15.227415999999998,7.777144800670175,0.1544245052279955
15.229803999999998,7.794606524738357,0.1540704839618709
15.232184,7.815001515112732,0.1536701655518604
15.234579999999998,7.84554677884605,0.1531073476456683
15.236964,7.87623181220623,0.1525393964033395
15.239348,7.908080328551665,0.1519800980956072
15.241744,7.937647204896963,0.1514692570586455
15.244128,7.964420584562926,0.1509898133931816
15.246512,7.991845590534948,0.1505137916624337
15.248908,8.015918021320193,0.150103058873846
15.251292,8.035986250612606,0.1497533298229665
15.253691999999996,8.059267285464932,0.1493466417134926
15.256087999999998,8.08282785957098,0.1489276856308406
15.258475999999998,8.104665872184333,0.1485294319069442
15.260856,8.123291079237768,0.1481869724510446
15.26326,8.13791208479837,0.1479067539446628
15.265648,8.14894819774672,0.1476676657752683
15.289524,8.1439694005816,0.1475589042294667
15.291919999999998,8.14969616356713,0.147485795775475
15.294304,8.154911069873465,0.1474042293453198
15.296684,8.163618320993434,0.1472569117710108
15.29908,8.176190003979375,0.147058079016899
15.301464,8.187970291032398,0.1468651954270581
15.30386,8.199750578085423,0.1466733062287214
15.306255999999998,8.207666433272472,0.1465310909040446
15.308643999999996,8.219866029206077,0.1463188548002862
15.311024,8.232717251445738,0.1461073407256053
15.313423999999998,8.249153366297655,0.1458584998381711
15.315811999999998,8.267591581895987,0.1455808083992807
15.318192,8.285098631934542,0.1453157476519999
15.320588,8.29981218529376,0.1450827846634539
15.322972,8.320532040892228,0.1447637935950909
15.325367999999996,8.342322831677336,0.1444262783473368
15.327768,8.357595463543996,0.1441685700135815
15.365992,8.30946576883646,0.1441153883328768
15.368372,8.30416021058938,0.1440679707098308
15.370767999999998,8.296340694916685,0.1440388477858277
15.373155999999998,8.291873754430766,0.1439526758676758
15.375536,8.282750986145954,0.1439187450803911
15.377931999999998,8.271905656368448,0.1438995101805265
15.380319999999998,8.266415002524134,0.1437948999331255
15.382716,8.258550160881066,0.1437027111732901
15.38512,8.247240196252605,0.1436405016132519
15.387504,8.233788361250866,0.1436134716689593
15.389884,8.223828871062764,0.1435204500324534
15.39228,8.217733812740635,0.1433774011350169
15.394668,8.211778524045364,0.1432274625695189
15.397047999999998,8.212900472775985,0.1429759319908978
15.399444,8.212811716693109,0.1427471093091524
15.401832,8.215284139864087,0.1424646256854225
15.404211999999998,8.222691930087679,0.1421164280539388
15.406608,8.225955749191574,0.1418317092436231
15.408995999999998,8.224423970869719,0.1416057444712828
15.411376,8.221821257361226,0.1413968216805605
15.413771999999998,8.222663666838127,0.1411588478115257
15.416159999999998,8.214846047023302,0.1410286503206575
15.418556,8.205817722394977,0.1409218444323555
15.420952,8.193576592206737,0.1408654897662127
15.42334,8.19134596575058,0.1406723846625196
15.425719999999998,8.1924679144812,0.1404220526449962
15.428116,8.193310323958102,0.1401849291460448
15.430504,8.203232071607307,0.1398238179407934
15.432883999999998,8.21981174780182,0.1393861456408738
15.43528,8.243608431049084,0.1388469949034343
15.437668,8.267405114296347,0.1383135790549543
15.440047999999996,8.288687840117994,0.1377996388420483
15.442443999999998,8.310622192245702,0.1372887192482703
15.444831999999998,8.327621177320799,0.1368432781301275
15.447228,8.351976939075502,0.1362939740892581
15.449624,8.370838255270154,0.135831627777921
15.452012,8.383693269225555,0.1354469358470496
15.454392,8.398038527248174,0.1350278948639577
15.456792,8.417319152323408,0.1345469823152834
15.459176,8.438741647771918,0.1340356743953868
15.46156,8.453785753928836,0.1335835974554949
15.463952,8.473345918257788,0.1330866232310183
15.46634,8.492114686653824,0.1325913513883648
15.468719999999998,8.510231828743798,0.1320931817995427
15.471124,8.52541570452758,0.1316356856850829
15.473508,8.539249105871002,0.1312084922430739
15.475887999999998,8.554572751281643,0.1307485466110466
15.478292,8.561748224079755,0.1303965241963134
15.48068,8.564267869078977,0.1300922623507948
15.483055999999998,8.55877911109253,0.1298858136388676
15.485452,8.546352885307057,0.1297611288048611
15.487835999999998,8.532576185081222,0.1296638302786897
15.490232,8.518008088922471,0.1295692236976156
15.492624,8.5026485968308,0.1294772274553128
15.495012,8.482074198432796,0.1294540654692334
15.497388,8.465643771154488,0.129376151400563
15.499783999999998,8.452006840555516,0.1292710886195624
15.502171999999998,8.43888176663574,0.129175007381313
15.50696,8.401130870996884,0.1291369088127543
15.509348,8.390100445622144,0.1290440187365074
15.511727999999998,8.3790700202474,0.1289509975484885
15.514124,8.368970760432438,0.128848806456392
15.516507999999998,8.356729630244194,0.1287768124718555
15.518904,8.341275694496039,0.1287500849845984
15.523688,8.309389435611708,0.1287385694687285
15.526068,8.298032249155002,0.1286908932107919
15.528464,8.284393422698159,0.1286797422248216
15.530848,8.27527065441335,0.1286303361751926
15.533231999999998,8.274528376166543,0.1285001968111601
15.535624,8.27844192571863,0.128325595691854
15.538011999999998,8.287011303069606,0.1281077512884925
15.540408,8.300096738592615,0.1278530227227869
15.542804,8.31383380042168,0.1276017481043187
15.545188,8.327011783743306,0.1273762799788292
15.547567999999998,8.34004999743807,0.1271571134227133
15.549972,8.349875405572924,0.1269824079625626
15.55236,8.36607920299936,0.1267533397583314
15.55474,8.386287201918632,0.1264770994739398
15.557136,8.404073791210905,0.1262471072968029
15.55952,8.426935517182654,0.1259599581851848
15.561903999999998,8.452311200580015,0.1256607227871518
15.5643,8.486207143642241,0.1252831593189307
15.566684,8.526761015249775,0.1248450027697132
15.56908,8.572250253909925,0.1243591433765307
15.571476,8.618251349249269,0.1238861749751904
15.57386,8.663833135708032,0.1234349779500792
15.57624,8.71821472108538,0.122898318048119
15.578636,8.775669342395785,0.1223324998253061
15.581024,8.829399301467078,0.121803237612503
15.58342,8.88219809497859,0.1212876339058995
15.585815999999998,8.93006152143749,0.1208254195102183
15.5882,8.97364120714984,0.1204181267849077
15.59058,9.017081123235323,0.1200162014069141
15.592976,9.060800578574533,0.1196044524053436
15.595364,9.109595170593211,0.1191434041057594
15.597744,9.160252093731447,0.1186648113090791
15.60014,9.211328325750266,0.1181777713075304
15.602528,9.26361526258258,0.1176783791283784
15.604924,9.310315206056226,0.1172225858603846
15.607319999999998,9.348727207290482,0.1168601027910732
15.609707999999998,9.388210143711378,0.1164886004272674
15.612088,9.420895381960108,0.1161811729139438
15.614491999999998,9.449576418716,0.1159160538309886
15.616875999999998,9.473601627673,0.1156882020442803
15.619256,9.49390217439089,0.1154872999050251
15.62166,9.512759698869804,0.1152846896755906
15.624047999999998,9.524539985922829,0.1151523084189074
15.626428,9.529382805176825,0.1150829726986807
15.628828,9.538090056296792,0.1149824246046573
15.631215999999998,9.544795206670344,0.1149006956732463
15.633596,9.55564432816359,0.1147774279144348
15.636,9.56877508965697,0.1146251878664525
15.638384,9.587260527083547,0.1144159175609569
15.640767999999998,9.606816899696762,0.11419639350994
15.643159999999998,9.62236907081714,0.1140150475656447
15.645547999999998,9.642344752310937,0.1137844140247831
15.647928,9.658316232311895,0.1135906567666623
15.65032,9.6700039715663,0.1134426425345119
15.652708,9.68648730824646,0.1132586751057825
15.655088,9.70925648641959,0.113012441105488
15.657491999999998,9.72736983679383,0.1127974935409986
15.659876,9.746554122354707,0.1125711281656367
15.662256,9.763084680863107,0.1123578452034644
15.664652,9.779475469744648,0.1121500120549923
15.66704,9.799218833812969,0.1119033570510899
15.669435999999996,9.82110406825456,0.1116359578708613
15.671827999999998,9.846621417136651,0.1113210270587993
15.674215999999998,9.878424607511716,0.1109451556502989
15.676596,9.90277847340855,0.1106181243193438
15.678999999999998,9.927551648185965,0.1102764305664186
15.681387999999998,9.950462491843822,0.1099494625698993
15.683768,9.973932414009122,0.1096043220239169
15.686163999999998,9.991535803562034,0.1093065340496309
15.688551999999998,10.009558501995524,0.1089963287748977
15.690932,10.02413607744362,0.1086986711726673
15.693336,10.032847120279326,0.1084459764628119
15.695723999999998,10.03904420568942,0.108199736168825
15.698104,10.047942239980229,0.1079129485010135
15.700499999999998,10.054466086472283,0.1076288312246887
15.702887999999998,10.057125501098367,0.1073726422387622
15.705268,10.065279361284505,0.10706044516572
15.707663999999998,10.072781595164578,0.1067439273745201
15.710051999999996,10.084567569791211,0.1063866702319365
15.712432,10.095841687738645,0.106020328054117
15.714828,10.10753511456666,0.1056411610198379
15.717212,10.11522433990184,0.1052935873473414
15.719607999999996,10.118769594117328,0.1049822075185176
15.722003999999998,10.118450416466844,0.1046975272668267
15.724391999999998,10.119714030682193,0.104410525002374
15.726772,10.120186248964623,0.104123964627227
15.729176,10.11772520094086,0.1038578368593261
15.731564,10.112982512916956,0.1036167339800893
15.733943999999996,10.111452630452977,0.1033460553157753
15.736344,10.10857227354863,0.1030957530702579
15.738732,10.10834564369676,0.102834489109655
15.741111999999998,10.110121114591305,0.1025579835917625
15.743516,10.116692182911605,0.1022515289205308
15.745904,10.121121380858629,0.1019652454562895
15.748283999999998,10.125410809178788,0.1016836050695337
15.75068,10.130910942312449,0.1013875015886732
15.753068,10.131987565072697,0.1011360156711882
15.755444,10.138279094139277,0.1008425726997268
15.757848,10.141637356899658,0.1005690783232153
15.760236,10.14578701559296,0.1002956637730522
15.762615999999998,10.148446430219042,0.1000464673404711
15.765012,10.152176780031764,0.0997873799312658
15.7674,10.158049000217762,0.0995093116628606
15.76978,10.165923321150176,0.0992176966804423
15.772175999999998,10.177289986896229,0.0988887435232125
15.774563999999998,10.189448048575198,0.0985602073516626
15.776947999999996,10.201745879881027,0.0982260429086211
15.779348,10.217116747119912,0.0978697025770815
15.781736,10.22312873693277,0.0975862597368011
15.784115999999996,10.225555834133374,0.097316241153738
15.786516,10.2270517657742,0.0970507415055799
15.788904,10.228547697415026,0.096785503111348
15.791283999999996,10.226039427563022,0.0965480296089834
15.793684,10.22539348883057,0.0963016961873588
15.796072,10.226609881217676,0.0960466191276854
15.798451999999996,10.227686503977925,0.0957965077170056
15.800847999999998,10.225690090805116,0.0955680911758233
15.803231999999998,10.217268066512476,0.0953947722621179
15.805628,10.210289064458811,0.0952266504967928
15.80802,10.204241227964925,0.0950542570660813
15.810408,10.200195492217452,0.094868854684534
15.812787999999998,10.19787231796268,0.0946795714302013
15.815192,10.194990065200468,0.0945088950917605
15.81758,10.191968042811396,0.094343194670365
15.819955999999998,10.18945787710152,0.0941876001561069
15.822352,10.188810042511198,0.0940241019832734
15.824739999999998,10.190676165346494,0.0938573882858811
15.82712,10.189189712995011,0.093721453695531
15.829524,10.199855634748891,0.093504373351279
15.831908,10.21289574430153,0.0932882983208172
15.834288,10.231010990533637,0.0930396986994624
15.836692,10.250057402325522,0.0927880701657097
15.839076,10.27268870672966,0.0925253803465737
15.841455999999996,10.293038371133663,0.0922846859360433
15.84386,10.314319201097444,0.0920416700195419
15.846248,10.33732259255392,0.0917965987619132
15.848631999999998,10.372198818862032,0.0914847961484014
15.851036,10.409868541849486,0.0911614130054935
15.85342,10.44674686890402,0.0908384184030781
15.8558,10.482274721518197,0.0905336864089546
15.858204,10.5127274374529,0.0902615628040874
15.860588,10.5431801533876,0.0899908040826796
15.862968,10.574983343762662,0.0897037822331436
15.865368,10.60250279339117,0.0894492097567234
15.867752,10.626297580780566,0.0892101568652742
15.870136,10.64888166335646,0.0889850752091237
15.87254,10.672676450745856,0.0887488350337966
15.874928,10.698473338881668,0.0885010101701831
15.877308,10.720126255897783,0.0882834519469406
15.879704,10.745131748100675,0.088039061361146
15.882092,10.767855600303433,0.0878173115498446
15.884472,10.791370848439106,0.0875978283468781
15.886875999999996,10.8151656358285,0.0873713037529091
15.889264,10.840171128031391,0.0871327736129944
15.891644,10.86210358430123,0.086913736945719
15.89404,10.88231347907837,0.0866981959664031
15.896424,10.891861243817369,0.0865334323095275
15.898808,10.902899252623584,0.0863493986416208
15.901204,10.910864225496749,0.0861831283091942
15.903588,10.918457111317572,0.0860032124072069
15.905971999999998,10.932196069004508,0.0857872792950779
15.908368,10.948356436318443,0.0855497332127554
15.910756,10.960652371766404,0.0853289933712819
15.913135999999998,10.979373918334195,0.0850644815187105
15.915532,11.001168500835044,0.0847825380008264
15.91792,11.019517960350496,0.0845045562754905
15.920316,11.033211592067056,0.084242435015057
15.922712,11.04266870486531,0.0839828212872048
15.9251,11.051474191357505,0.0837185470775795
15.92748,11.053621749304387,0.0834799809234054
15.929876,11.049390917959684,0.0832580286186773
15.932264,11.041575194002728,0.0830439996838142
15.934644,11.028452015940822,0.082839191594887
15.93704,11.015748146759496,0.0826216630718585
15.939428,11.005465687205168,0.0823814219020201
15.941807999999998,10.993320896531284,0.082146626113304
15.944212,10.98131587548426,0.0819065410050091
15.9466,10.962233617011346,0.0817031367020954
15.94898,10.946783472978929,0.0814650748265826
15.951376,10.931193559319643,0.0812306902549119
15.953764,10.908014551555285,0.0810230248015987
15.956143999999998,10.877898075991888,0.0808472283841926
15.958548,10.852996506734826,0.0806396976768647
15.960936,10.820226304118956,0.0804664794741521
15.963316,10.786944244823893,0.0802823761706487
15.965712,10.754733120715464,0.0800902188358923
15.968096,10.725595032540088,0.0798804076939113
15.970479999999998,10.702323476977108,0.0796449129646255
15.972876,10.674535863242092,0.0794173878660002
15.97526,10.648890119880356,0.079174643100885
15.97766,10.628319513198091,0.0789044780741664
15.980055999999998,10.608168215396406,0.0786204445021897
15.98244,10.59095018390092,0.0783227977566163
15.98482,10.573871922032287,0.0780205933831418
15.987216,10.553860393857464,0.0777298086494635
15.989604,10.53505957049614,0.0774270738271002
15.991988,10.518400617508092,0.0771096520834616
15.994384,10.508027506013017,0.0767547868485685
15.996768,10.496583459331305,0.0764064033931225
15.999164,10.482485685597114,0.0760597655116247
16.001568,10.473463048542396,0.0756866174695894
16.003956,10.465231807420595,0.0753131747823218
16.006335999999997,10.451925429619326,0.0749645429608731
16.00874,10.447838159617222,0.0745683932561368
16.011124,10.438116674428205,0.0742126865454503
16.013503999999998,10.430257520358742,0.0738517275419512
16.0159,10.420396265542864,0.0734992473920858
16.018288,10.404528708487735,0.0731728823366386
16.020668,10.393968605537555,0.072840174941884
16.023059999999997,10.38592246001299,0.0725089887877672
16.025448,10.374523739301653,0.0722008950414147
16.027828,10.361634774523091,0.0719108907224629
16.030231999999998,10.347255565677315,0.0716394608505473
16.032619999999998,10.331665652018035,0.0713783293383998
16.035,10.31607573835876,0.0711161456710391
16.037404,10.300346055072623,0.0708575817266846
16.039787999999998,10.285267998092545,0.0706050674436886
16.042168,10.264043869246352,0.0703811219409895
16.044567999999998,10.240677870026886,0.0701687696608263
16.046951999999997,10.221176302673392,0.069942791042284
16.049332,10.199393095319762,0.0697329325458322
16.05174,10.182964563899322,0.0694910357776265
16.054128,10.167606967665522,0.0692416687335658
16.056507999999997,10.14195932844592,0.0690409999221663
16.058904,10.122737300346143,0.0688019163005462
16.061291999999998,10.102723876313457,0.0685597617088167
16.063672,10.081639517094125,0.0683224983862167
16.066067999999998,10.062557258621208,0.0680756970740541
16.068455999999998,10.038819172349404,0.0678371890890047
16.070836,10.011496193465346,0.0676007154787498
16.073244,9.987386020141203,0.0673446880737395
16.075628,9.9655574868172,0.0670707475729705
16.078008,9.944008492746914,0.0667868389542164
16.080403999999998,9.917663901250878,0.0665140869234356
16.082791999999998,9.893041871247538,0.0662413104717833
16.085176,9.86748867568442,0.0659690204819423
16.087571999999998,9.841144084188384,0.065693263818623
16.089959999999998,9.82066602530474,0.0653974002149828
16.09234,9.804983563846845,0.0650883745389186
16.094735999999997,9.78795062794859,0.0647936986746927
16.09712,9.775853059102948,0.0644823872504213
16.099504,9.760402915070534,0.0641932922033689
16.1019,9.74881720290409,0.0638936566568783
16.104288,9.743098023350038,0.0635747165114408
16.106683999999998,9.736959534915403,0.0632696099823886
16.10908,9.734405939093024,0.0629639390381641
16.111463999999998,9.739581207002589,0.0626395325309748
16.113847999999997,9.749552072337904,0.0623051022980361
16.116244,9.764178765472112,0.0619636663150514
16.118627999999998,9.783461286405217,0.06161635523298
16.121008,9.803395433644376,0.0612777856079989
16.123404,9.824772603122511,0.0609505605060782
16.125788,9.8485239603994,0.0606329312442992
16.128183999999997,9.880516038087436,0.060308606067564
16.13058,9.91250811577547,0.0599853813797437
16.132963999999998,9.94608298532934,0.0596688498655603
16.135344,9.982311581935685,0.0593548858708818
16.137748,10.020402509661588,0.0590416716224026
16.140136,10.056491336641068,0.0587368821905163
16.142516,10.096444595486528,0.0584253805207535
16.14492,10.130251782465876,0.0581379895096575
16.147304,10.16485036537814,0.0578544374919199
16.149684,10.195165207543852,0.0575926069760705
16.152092,10.228553085642622,0.0573217713083234
16.15448,10.26087002855475,0.0570571540438299
16.156859999999998,10.289182769974044,0.0568058617578767
16.159264,10.31041827396745,0.0565785999431989
16.161648,10.329232368333855,0.0563709806212667
16.164028,10.35177112493938,0.0561621116938116
16.166424,10.372028241544765,0.0559679420884444
16.168812,10.39107465333665,0.0557832369080725
16.171191999999998,10.413054331434733,0.0555937650221898
16.173596,10.43731564953295,0.0553921587526422
16.175984,10.461856506884889,0.0551844534349335
16.178364,10.488119925729524,0.0549804531267233
16.180768,10.518387546066991,0.0547676281154529
16.183152,10.546792835284904,0.0545572310294641
16.185536,10.57119392300998,0.054358142643993
16.187932,10.59931967297417,0.0541583396342415
16.19032,10.624512156632168,0.0539651898145369
16.1927,10.654640007342778,0.0537620113728322
16.195096,10.685419484359445,0.0535665744430977
16.197484,10.72113432842872,0.0533616770991291
