Time,Force,Position
14.009984,7.736584451205485,0.1640575200382539
14.012379999999997,7.812420586996635,0.1632823366882193
14.014764,7.877970471517719,0.1625102672083967
14.017143999999998,7.920894739208269,0.1620107510855179
14.01954,7.956464126077079,0.1615604658869227
14.021928,7.990078634027715,0.1611141805395566
14.024323999999996,8.01875777492574,0.160751556718479
14.026723999999998,8.042920857651735,0.1604509087174342
14.029107999999995,8.073230012243839,0.1600462207499107
14.031491999999997,8.09916287829077,0.1596907862753611
14.033887999999996,8.124723657285367,0.1593217023892505
14.036275999999996,8.148561874787264,0.1589753624517323
14.038656,8.170537761169609,0.1586555193145625
14.041051999999995,8.196098540164202,0.1582914736103452
14.043439999999997,8.222450715091716,0.1579244735417373
14.04582,8.245729854086175,0.1576099965732449
14.048215999999996,8.27222179864055,0.1572380980260186
14.050604,8.296199785769307,0.1568929120605212
14.052988,8.32460128327148,0.156465065794293
14.055391999999998,8.346764161108927,0.1561141068961918
14.057775999999995,8.367344247080537,0.1557786354070655
14.06016,8.384479210066752,0.1554818694794678
14.062555999999995,8.400031381187134,0.1551977008124754
14.064943999999995,8.41800496193451,0.1548613886109026
14.067324,8.432812958950215,0.1545481941159298
14.069719999999997,8.448040264846501,0.1542187659523461
14.072107999999997,8.463966418877087,0.15385634109249
14.074503999999996,8.481103277721173,0.153470212256281
14.076899999999998,8.494235935072425,0.1531459370465461
14.079287999999998,8.513654433916647,0.1527214275937954
14.081667999999995,8.53293316313401,0.1523044950934914
14.084063999999998,8.550629100485537,0.1518985353191376
14.086451999999998,8.573260404889677,0.1514269028446916
14.088831999999996,8.594820774107177,0.1509743929005216
14.091227999999996,8.6142392729514,0.1505578842147359
14.093615999999995,8.637382434034736,0.1500978975227239
14.095996,8.654798832132542,0.1497100861337417
14.098395999999996,8.67128406467057,0.14933348499203
14.100783999999996,8.683113469409705,0.1490133309051224
14.103164,8.694011708589063,0.1487030286595057
14.105559999999995,8.701836911835365,0.1484393531735207
14.107947999999997,8.706449309521753,0.1482277393339506
14.110343999999998,8.710549850528942,0.1480085417395798
14.11274,8.713858995603214,0.1477937014800598
14.115128,8.716097205490845,0.1475961456345022
14.117507999999996,8.714610753139363,0.1474428463888918
14.119903999999998,8.714055466347661,0.1472789130561922
14.122291999999998,8.711637848436403,0.147136672502064
14.146175999999995,8.572881083642837,0.1470555255515449
14.148575999999998,8.557753908976645,0.1470143286755686
14.150959999999998,8.543837439123953,0.1469496799399428
14.153343999999995,8.53061981740556,0.1468528267082815
14.155739999999998,8.521174079754523,0.1466788874764757
14.158127999999998,8.511448802849767,0.1465174435378694
14.160507999999997,8.502003065198732,0.1463429392475735
14.162903999999996,8.494838967547835,0.1461279293708956
14.165291999999996,8.487814639523794,0.1459061577540742
14.167687999999998,8.4801386851937,0.1456822462280362
14.170084,8.473673435677101,0.1454348665679544
14.172472,8.468279121347143,0.1451704450325997
14.174851999999998,8.465026677390462,0.1448719039935519
14.177248,8.461402146381442,0.1445582473364412
14.179636,8.456986219439504,0.1442478845136029
14.182015999999996,8.456946581042738,0.1438961128452336
14.184411999999998,8.455836007459332,0.1435613033564295
14.186799999999998,8.454306124995348,0.143244600203267
14.189179999999997,8.455010660703255,0.1429209992331792
14.191575999999998,8.45701844902328,0.1426023590418776
14.193963999999998,8.459538094022504,0.1422924375115818
14.19636,8.460055638275309,0.142010403860671
14.198756,8.464577384020949,0.141675148760392
14.201144,8.467888424953088,0.141362497955797
14.203523999999998,8.468917825885091,0.1410902467910987
14.205924,8.470086996443955,0.140811893897604
14.208312,8.472466871816318,0.1405107439401874
14.210691999999998,8.470563006442125,0.1402754455029611
14.213088,8.468519371441074,0.1400461697261386
14.215476,8.464985492372803,0.1398524441363417
14.217855999999998,8.46024090849103,0.1396814845030511
14.220256,8.45507701572868,0.1395295628628239
14.222644,8.450052892593188,0.1393712248513167
14.225023999999998,8.445400856510037,0.1392280286812548
14.22742,8.440609050800024,0.1390907602992175
14.229812,8.436888180276648,0.1389371234089061
14.232191999999998,8.432748000872692,0.1388023332565187
14.234588,8.43354318852135,0.1386047678335036
14.236976,8.434897454677447,0.1383819848269359
14.239359999999998,8.433597993781072,0.1381827038811933
14.241756,8.431646906578637,0.1379805961990395
14.244144,8.431418380868898,0.1377650517794341
14.246527999999998,8.425974948852826,0.1376244954477954
14.248924,8.423976639822147,0.1374571827719456
14.251312,8.423561122657304,0.1372829334437413
14.253695999999998,8.421934900678965,0.1371309732631662
14.256092,8.419470060939462,0.1370167996543242
14.258484,8.419007321946376,0.1368762714353625
14.260863999999998,8.41840481332643,0.1367418349930184
14.26326,8.417942074333347,0.1366007850517299
14.265648,8.418922357579236,0.1364590584330481
14.268027999999996,8.420973576011766,0.1363014430946466
14.270432,8.423816190377213,0.1361407896151166
14.27282,8.42665880474266,0.135980231891995
14.275199999999998,8.435507721347356,0.1357435602319028
14.277596,8.442354537205638,0.1355327397243313
14.279984,8.451622762690917,0.1352779999623201
14.282363999999998,8.454884685936944,0.1350997953483852
14.284771999999997,8.457727300302391,0.1349406045653268
14.287156,8.465365512093591,0.1347283026315071
14.28954,8.473515580563989,0.1345251938279507
14.291936,8.480594713847747,0.1343383114001288
14.294324,8.489536178251061,0.1341321457712039
14.296708,8.495544376348182,0.1339608589192705
14.299104,8.499690243325745,0.1338085013003326
14.301492,8.503696340676447,0.133662003853026
14.303871999999998,8.511055013213925,0.1334633749129642
14.306268,8.52148672168446,0.1332251228892787
14.308656,8.53392053090141,0.132962482917902
14.311035999999998,8.548496210491638,0.1326695365046187
14.313436,8.560697702283111,0.132385497945772
14.315824,8.572107798141666,0.1321056056611688
14.318207999999998,8.581515793253805,0.1318505871993697
14.320604,8.59213449317944,0.1315749909293078
14.322988,8.599680157172022,0.1313412313635321
14.325384,8.608156986724383,0.1310983538121723
14.327779999999995,8.618216608142578,0.1308518606471454
14.330167999999995,8.631209495866967,0.1305716091543317
14.332548,8.646344253964639,0.1302630164188685
14.334947999999995,8.659197372062172,0.1299923074348961
14.337331999999996,8.671119324599925,0.1297299276466506
14.339716,8.683041277137676,0.129467797055508
14.342111999999997,8.698967431168263,0.1291612873156237
14.344499999999996,8.717035455572127,0.1288259140614877
14.34688,8.73510347997599,0.1284898226670038
14.349276,8.754242439566493,0.1281387282398187
14.351664,8.768026723223802,0.1278613959277819
14.354048,8.781531467627389,0.1275982085778881
14.356444,8.79382550721748,0.1273560318546161
14.358832,8.805840007553849,0.1271268951213709
14.361211999999998,8.823301731622028,0.1268545559355441
14.363608,8.842066708302324,0.12659028008925
14.365996,8.861623080915535,0.1263232660229147
14.368375999999998,8.880620375021307,0.12608093804272
14.370772,8.897196259500085,0.1258785626280819
14.37316,8.916705410285054,0.1256472920056724
14.375559999999997,8.933141525136971,0.1254535942032668
14.377955999999998,8.951439971108442,0.1252447101126252
14.380343999999996,8.966385841893137,0.1250837318523887
14.382724,8.980540316744916,0.1249254362886479
14.385123999999998,8.99790759715661,0.1247265783962029
14.387507999999997,9.01713720868786,0.1245128413163949
14.389892,9.030360517979858,0.1243647806294205
14.392287999999995,9.042512892085218,0.1242308458310425
14.394675999999995,9.059460863616332,0.1240533819996733
14.39706,9.080273267013418,0.1238411956416896
14.399455999999995,9.10550918078392,0.1235701956276543
14.401843999999995,9.129813928994642,0.123308686569664
14.404228,9.156120777951784,0.1230275011790921
14.406623999999995,9.18442972765534,0.122728311474416
14.409011999999995,9.209153784746642,0.1224561046234202
14.411392,9.233226215531888,0.1221816674581482
14.413791999999995,9.257578185570852,0.1218965723202762
14.416175999999997,9.28220969486354,0.1216014329819503
14.41856,9.310054009716142,0.1212680711739927
14.420955999999997,9.333754353449049,0.1209817008415486
14.423343999999997,9.358385862741736,0.1206885106427377
14.425728,9.381015271288003,0.1204164411455351
14.428123999999997,9.405786550207551,0.120118945426469
14.430511999999997,9.431488994686877,0.1198150844938641
14.432896,9.458634461405175,0.1195167442505208
14.435291999999995,9.48270689219042,0.1192510323847546
14.437679999999997,9.509572819655002,0.1189635059308415
14.440064,9.539232243798915,0.1186566057460731
14.442459999999995,9.56381653126336,0.1184026885454623
14.444847999999997,9.586678257235109,0.1181606960240581
14.447232,9.607258343206714,0.1179496000453395
14.449627999999995,9.629840529924742,0.1177214958023049
14.452015999999997,9.650700155150073,0.1175028466702061
14.4544,9.666484643695927,0.1173340255094609
14.456795999999995,9.683060528174703,0.117164354276563
14.459183999999995,9.696982685601007,0.1170095516851319
14.461568,9.713558570079782,0.1168411166594203
14.463963999999995,9.727992584185284,0.1166963520530536
14.466347999999996,9.740843806424945,0.1165552108712139
14.468743999999996,9.753974567918329,0.1164032130267232
14.471139999999998,9.76845580385207,0.1162300996607766
14.473527999999998,9.785218679785949,0.1160293078692861
14.475907999999995,9.801050390160048,0.1158355323363521
14.478303999999998,9.817953035720787,0.1156313926518995
14.480691999999998,9.831550327922992,0.1154389188592709
14.483071999999996,9.848639964938837,0.1152025215500081
14.485475999999998,9.8660091412084,0.1149568600055518
14.487859999999998,9.880724590425489,0.114726255943009
14.490239999999996,9.89972378038913,0.1144514451866789
14.492644,9.91350806404644,0.1142277870237205
14.495031999999998,9.930505153263669,0.1139717516604252
14.497411999999995,9.943637810614918,0.1137462517005715
14.499816,9.959563964645504,0.113503828458418
14.502204,9.978982463489729,0.1132182679864055
14.504583999999998,9.996678400841256,0.1129402110127533
14.50698,10.018099000431894,0.1126385743104196
14.509367999999998,10.0379368081567,0.1123411497420247
14.511747999999995,10.062477665508636,0.1119869590052139
14.514143999999998,10.087809918793493,0.1116331388503532
14.516531999999998,10.1191484743176,0.1112324789924232
14.518911999999997,10.147413993908652,0.1108603234706126
14.521307999999998,10.173817182380146,0.1105017368253422
14.523691999999995,10.203433176411558,0.1101138797109538
14.526087999999998,10.23239754413691,0.1097246712393197
14.528484,10.259359811115846,0.1093514237383456
14.530872,10.285390912535004,0.1089865726385394
14.533251999999996,10.309699452461464,0.1086287791643319
14.535656,10.336289632388064,0.1082477823141943
14.538044,10.355290718209574,0.1079149802559009
14.540423999999998,10.377784148844723,0.1075410500437492
14.54282,10.398834557240894,0.1071667762822149
14.545208,10.421375209704284,0.1067685530443103
14.547587999999998,10.437257933622368,0.1064124664233419
14.549983999999998,10.452209491980671,0.1060630362071598
14.552367999999998,10.47037385589889,0.1056848817727914
14.554747999999996,10.487095197578132,0.1053047660630177
14.557156,10.502885373697598,0.1049309841116277
14.559539999999998,10.511458542764316,0.1046169703246787
14.561923999999998,10.518588689592056,0.1042996367279831
14.56432,10.514125540821874,0.1040570036902939
14.566703999999998,10.510081700932275,0.1037999701674405
14.569087999999995,10.506177630669534,0.1035383689356685
14.571483999999998,10.500550998914097,0.1032830368928219
14.573871999999998,10.491851331225606,0.103051652221812
14.576251999999997,10.487295634656808,0.1027866990734036
14.578647999999998,10.479806671781814,0.1025408961813548
14.581035999999996,10.472457478533682,0.1022900860438258
14.583431999999998,10.4591019830463,0.1020818618137072
14.585828,10.450821624238392,0.1018345851115924
14.588216,10.441749869497562,0.1015872612228771
14.590595999999998,10.428394374010178,0.1013772832026299
14.592992,10.41182607296288,0.1011950206173704
14.59538,10.398610347102355,0.1009789457686384
14.597759999999996,10.385254851614976,0.1007673185256899
14.600155999999998,10.368686550567675,0.100583712567206
14.602543999999998,10.34983660952024,0.100422939894044
14.604923999999995,10.330335042166746,0.1002569986562045
14.607323999999998,10.31833002111972,0.1000254639472937
14.609711999999998,10.306976626378754,0.0997982434218783
14.612091999999995,10.30670467055651,0.0994919816081699
14.614487999999998,10.309505750667324,0.0991635128784151
14.616875999999998,10.310444499658576,0.0988439378130716
14.619272,10.308310212716778,0.0985471603073147
14.621668,10.309388731334897,0.0982231037993247
14.624056,10.305392113273536,0.0979351276476003
14.62644,10.3021868911451,0.0976466993611936
14.628836,10.299773064949578,0.0973583864105539
14.631224,10.299221569873614,0.097059788913566
14.633603999999998,10.300392636290349,0.0967578937706383
14.636,10.303006724946057,0.0964614093307113
14.638392,10.306551979161544,0.0961593587355173
14.640771999999998,10.315032600429642,0.0958263190189756
14.643168,10.324304617630656,0.0954939752175773
14.645552,10.332505699645038,0.0951706480003475
14.647931999999996,10.342197025726634,0.0948249328611214
14.650332,10.354030222181509,0.0944612962251278
14.652715999999998,10.364373174569163,0.0941198650254042
14.655095999999997,10.370013077329682,0.0938289420776241
14.657495999999998,10.376584145649982,0.093534522784105
14.659883999999998,10.379802638783508,0.0932726684970733
14.66228,10.379668556730255,0.0930416892541683
14.664675999999996,10.382839828035536,0.0928083787221345
14.66706,10.389875531206789,0.0925549308864058
14.669444,10.396771464751184,0.0923070616245683
14.67184,10.40874253497505,0.0920263721853529
14.674228,10.420993144452638,0.0917366361237508
14.676607999999998,10.432452357997306,0.0914466149598265
14.679011999999997,10.449266247475167,0.0911161746286475
14.681399999999996,10.46514897139325,0.0907914878098697
14.68378,10.478517737885715,0.0904694647973036
14.686176,10.496961641057654,0.0901165850589359
14.688564,10.510749716430702,0.0897827478219184
14.690943999999998,10.525329187736668,0.08945074258893
14.69334,10.54326123422941,0.0890914677862152
14.695728,10.561705137401349,0.0887432842645536
14.698107999999998,10.57907810538665,0.0884035168992474
14.700515999999997,10.601154122999088,0.0880201373340706
14.7029,10.623649449492104,0.0876234974442774
14.705284,10.644701753746144,0.0872219558439875
14.70768,10.662960561320851,0.0868311338766435
14.710068,10.68042797296264,0.0864387912603304
14.712447999999998,10.696731901619172,0.0860330895504342
14.714844,10.708240232849954,0.0856489802229578
14.717232,10.71588413221476,0.085282519649544
14.719611999999998,10.720594765273372,0.08493133606262
14.722012,10.728098895011316,0.0845712371020783
14.724396,10.738396521428594,0.0842024486385867
14.726779999999998,10.74427063747246,0.0838693087642093
14.729176,10.744138451277076,0.0835671741282836
14.731564,10.748801862507444,0.0832457569233863
14.73396,10.75039223780476,0.0829434563248791
14.736355999999995,10.755567505714325,0.0826329946046008
14.738743999999995,10.761813708810529,0.0823165466448427
14.741124,10.762705235973538,0.0820364333680809
14.743519999999997,10.762525827949911,0.0817639599314992
14.745907999999996,10.765139916605616,0.0814831359380792
14.748292,10.765844452313525,0.0812357836496908
14.750687999999997,10.767200614327487,0.0809939673232905
14.753075999999997,10.767857928207151,0.0807729932217241
14.755456,10.772379673952788,0.0805367803956956
14.757855999999997,10.777832585258205,0.0802974036948657
14.760247999999995,10.781935022123262,0.08007363447516
14.762628,10.790693286787212,0.0798361431710236
14.765027999999996,10.805178314436692,0.0795785246282526
14.767415999999995,10.821246133952007,0.0793243781497999
14.769799999999996,10.836382787907544,0.0790744227246577
14.772204,10.85245060742286,0.0788238169538216
14.774591999999998,10.872522628431009,0.0785557075254403
14.776971999999995,10.901534217984604,0.0782484116303806
14.779367999999998,10.926401836418504,0.0779652436662153
14.781755999999998,10.950338289292628,0.0776850643325425
14.784139999999995,10.977208008472944,0.0773957325978431
14.786535999999998,11.002075626906848,0.0771168748461554
14.788923999999998,11.030156050900665,0.0768183092159987
14.791307999999995,11.054511812655369,0.0765287636487182
14.793703999999998,11.077145012917375,0.0762414191775742
14.796091999999998,11.097404025380628,0.0759493339287888
14.798471999999997,11.117942577097605,0.0756498120880328
14.800867999999998,11.139691833628074,0.0753400002964387
14.803255999999998,11.15957875903899,0.0750363590502308
14.805636,11.18253872038296,0.0747190294985413
14.808031999999995,11.211365214339324,0.0743825290188175
14.810419999999995,11.235396110869932,0.0740615083863599
14.8128,11.253560474788154,0.0737623884163357
14.815195999999997,11.2690711116539,0.0734660295854249
14.81758,11.28150871258659,0.0731843946974897
14.819964,11.288079780906887,0.0729239938869154
14.822367999999996,11.290926186988075,0.0726728739790791
14.824751999999997,11.28776629083001,0.0724466907490585
14.827132,11.28861059616478,0.0722049651815094
14.829528,11.289315131872687,0.0719669428865219
14.831916,11.282290803848648,0.0717529806058375
14.8343,11.273404144705053,0.0715426678953747
14.836696,11.26838191742743,0.071321271566788
14.839084,11.270297157948836,0.0710745979196016
14.841479999999995,11.268068427350553,0.070846704727205
14.843871999999998,11.266351553431464,0.0706282283411931
14.846259999999996,11.265565845072151,0.0704082225486947
14.84864,11.263848971153063,0.0701900423919137
14.851039999999998,11.257988126114284,0.069990430058813
14.853423999999997,11.24705214439603,0.0698115981135676
14.855808,11.223451931893216,0.0696715954249495
14.858203999999995,11.200131258644124,0.0695228516020471
14.860591999999995,11.17681058539503,0.0693733315778094
14.862972,11.153489912145936,0.0692230744529598
14.865367999999997,11.128167138150426,0.0690797059180851
14.867755999999996,11.104986234528193,0.0689239819564043
14.87014,11.08059462609246,0.0687773738621756
14.872535999999997,11.058344888030003,0.0686186246930522
14.87492,11.027435120675824,0.0684831076827609
14.877315999999997,10.995873727015589,0.0683405559574648
14.87972,10.964172563728486,0.0682011731248234
14.882108,10.93168000450847,0.0680584559212104
14.884487999999996,10.889316711183229,0.0679485561626274
14.886892,10.8422975900591,0.0678457429806861
14.88928,10.8004933752413,0.0677173240677487
14.891659999999998,10.761250339677355,0.0675644574106546
14.894056,10.716140771501026,0.0674285056661226
14.896444,10.670100037764914,0.0672931313606373
14.898823999999998,10.629274210335138,0.0671323831672131
14.901228,10.590590253278636,0.0669591924432194
14.903612,10.56070609514072,0.0667580234177357
14.905991999999998,10.53347566405528,0.0665551533116309
14.908396,10.509318268902891,0.0663385058925737
14.910784,10.487023204870065,0.0661180440012143
14.913168,10.467009780837373,0.0658809065401825
14.915571999999996,10.444854486431405,0.0656540826942011
14.917955999999997,10.417624055345964,0.0654459453997525
14.92034,10.387972214633525,0.0652569057370676
14.922735999999995,10.36097410097356,0.0650659327714352
14.925123999999997,10.331554577686598,0.0648937823441136
14.927508,10.30734996070597,0.064696117849354
14.929903999999995,10.286450697083874,0.0645042639770295
14.932291999999997,10.274211462753502,0.0642894963492835
14.934672,10.260062675475334,0.0641049339812433
14.937067999999996,10.24549457931658,0.0639330778913657
14.939456,10.226363203157558,0.0637919744193451
14.94184,10.21253928110348,0.0636498740347117
14.944235999999997,10.203510956475158,0.0634961066751109
