Time,Force,Position
16.053103999999998,12.071839738568588,0.1511232074629752
16.055484,12.069839533680042,0.1510775214597474
16.057888,12.077942380322192,0.1509536111809535
16.060275999999998,12.093167790360612,0.1508007605882593
16.062655999999997,12.111511562302455,0.1506587041859792
16.065051999999998,12.136651136558603,0.1505204631182035
16.067435999999997,12.169285361263348,0.1503633010370667
16.069831999999998,12.209833545297275,0.1501749903343874
16.072228,12.251917299368795,0.1500035230793217
16.074616,12.30289340015752,0.149768276295863
16.076995999999998,12.355964149491276,0.1495296661717479
16.079392,12.414249805131364,0.1492328399405231
16.08178,12.46881079853234,0.1489678349727505
16.084159999999997,12.520206208201644,0.148717690822055
16.086564,12.571928378952911,0.1484352246231527
16.088948,12.620764505226228,0.1481596661663387
16.091331999999998,12.670858558141283,0.1478462009548289
16.093736,12.714202134712416,0.1475731360238159
16.09612,12.755730601992234,0.1472941619187277
16.098499999999998,12.795024651100157,0.1470229312514742
16.1009,12.827009145356714,0.1468087946600025
16.103288,12.85298733737402,0.1466518664889603
16.105667999999998,12.871888291965435,0.1465631829541764
16.108064,12.89293111693013,0.1464525249651177
16.110452,12.913554633014243,0.1463546964297752
16.112831999999997,12.933945831672885,0.1462434257986313
16.115228,12.95326609514488,0.1461436059694833
16.117615999999998,12.969792861937544,0.1460656595293235
16.119995999999997,12.99083568690224,0.1459571087927632
16.122396,13.009457102239937,0.1458799623695008
16.124779999999998,13.035015985376663,0.1457420685358476
16.127176,13.06043509888653,0.1456091821975856
16.129575999999997,13.087064917209892,0.1454608704315778
16.13196,13.11411404441384,0.1453007744661119
16.134344,13.141163171617784,0.1451414946531145
16.13674,13.164627406209474,0.1450057598810589
16.139128,13.182364877815637,0.1449154862847987
16.141507999999998,13.199171183862022,0.1448316773469417
16.143904,13.216629116214463,0.144750007938074
16.146288,13.234506357447486,0.1446569871813877
16.148667999999997,13.254245929800064,0.1445507698655025
16.151072,13.279340178085835,0.144390936082107
16.15346,13.30923002379736,0.1441932992405969
16.155839999999998,13.338700560628302,0.1440096795913114
16.158244,13.372175298952076,0.1437924971101438
16.160628,13.405230728395273,0.1435884279038116
16.163012,13.440567797838604,0.1433598119791309
16.165415999999997,13.476696263214857,0.1431291012114813
16.1678,13.51231287191191,0.1428953684331362
16.17018,13.546486458369989,0.14266228633152
16.172583999999997,13.575212821096256,0.1424660770472749
16.174968,13.603147787889606,0.1422730437717245
16.177348,13.633084855429372,0.1420641863342741
16.179744,13.661159591849582,0.1418686765930374
16.182128,13.686440831590454,0.1416923928863268
16.184507999999997,13.713863941704606,0.1414954339574781
16.186904,13.74878359812523,0.1412275020926381
16.189287999999998,13.788126764919266,0.140915365695271
16.191684,13.825887139847463,0.1406095717498584
16.194083999999997,13.859783082909694,0.1403339703522976
16.196468,13.891956464479223,0.1400677810302989
16.198847999999998,13.92026541418278,0.1398319650550236
16.201244,13.94620017608758,0.1396040213682216
16.203632,13.972694016499824,0.13936245262788
16.206011999999998,13.995602964299811,0.139142767118219
16.208408,14.016370041726528,0.1389427630454133
16.210796,14.033784543966464,0.1387765565437817
16.213192,14.052921607699098,0.1386027593377291
16.215587999999997,14.068706096244954,0.1384628804573234
16.217975999999997,14.088215247029924,0.1382992962929204
16.22036,14.108376024120954,0.1381375156094422
16.222755999999997,14.128536801211984,0.1379761201493425
16.22514,14.148697578303011,0.137815871575638
16.22752,14.174445348752707,0.1376214125105778
16.229919999999996,14.206059651814796,0.1373852075186779
16.232304,14.238325581182949,0.1371514984224217
16.234683999999998,14.266959396110597,0.1369598324141888
16.237091999999997,14.295313671784523,0.1367773602380926
16.239476,14.322736781898676,0.1366010029230691
16.24186,14.351742683878667,0.1364206243567326
16.244255999999996,14.381260442537853,0.1362457590228597
16.246644,14.411429827503095,0.1360728071677934
16.249024,14.443693861013372,0.1359018322988141
16.251427999999997,14.470323679336737,0.1357850817527298
16.253815999999997,14.498256750272215,0.1356720716710232
16.256196,14.530985418633447,0.1355274932235063
16.258599999999998,14.57051178516685,0.1353372196767122
16.260983999999997,14.61003815170025,0.1351483490195614
16.263368,14.653428950099624,0.1349343463239125
16.265763999999997,14.696959518125857,0.1347186535827309
16.268151999999997,14.740769625405813,0.1344963467833818
16.270532,14.78471950231263,0.1342711756427312
16.272927999999997,14.82508448660719,0.1340650198545749
16.275315999999997,14.855346419371052,0.1339156676826909
16.277696,14.87736763172377,0.1338121157363636
16.280092,14.900087692210786,0.1336914878980007
16.28248,14.919362629712408,0.1335853135824048
16.284864,14.935983840161558,0.1334922646821543
16.28726,14.949671784304511,0.1334186309863239
16.289648,14.960845771021855,0.1333539392779633
16.292032,14.972858375500358,0.1332681050739134
16.294424,14.98328818811302,0.1331858928549382
16.296812,14.994975927367427,0.133072420719456
16.299207999999997,15.01043555068919,0.1329179644115737
16.301612,15.025523086958616,0.1327551223163351
16.303995999999998,15.040378305802564,0.1325811838563681
16.306375999999997,15.047784200168284,0.1324497579901796
16.30878,15.05374707229503,0.132318711671371
16.311168,15.055473425503466,0.1322034468941321
16.313547999999997,15.0571997787119,0.1320886717530041
16.315952,15.059857297480114,0.1319690395178151
16.318336,15.06544808255452,0.1318311938898434
16.320719999999998,15.073972133935124,0.1316748969086051
16.323116,15.092227149794091,0.1314579365921381
16.325499999999998,15.119933590877704,0.1311879389103427
16.327879999999997,15.147500262334455,0.1309229835829962
16.330275999999998,15.179071135284042,0.1306316198219874
16.332659999999997,15.214366670472735,0.1303219650638123
16.335043999999996,15.257670608647102,0.1299603146150991
16.337439999999997,15.3049787483143,0.1295726935954338
16.339823999999997,15.352938514287558,0.1291889372619864
16.342204,15.40397131619387,0.1287847297928323
16.344607999999997,15.452303169219466,0.1284128981091339
16.346995999999997,15.500635022245058,0.1280426418274369
16.349372,15.551108745643928,0.1276584515380101
16.351775999999997,15.596786871617049,0.1273027358600059
16.354163999999997,15.646097112030663,0.1269132013801868
16.356544,15.695826661324858,0.1265154265759305
16.358947999999998,15.746906685059416,0.1261035708095915
16.361331999999997,15.791748089129245,0.1257181438427043
16.363712,15.836077636519876,0.1253291785338708
16.366107999999997,15.874959960178694,0.124966138462444
16.368492,15.9113283264119,0.1246113795159805
16.370876,15.94010759854002,0.1242980360259669
16.373271999999996,15.960366611003272,0.1240302614355059
16.375659999999996,15.977832126787188,0.1237767148504237
16.378055999999997,15.994646016265053,0.123522214515369
16.380452,16.005361055705045,0.1232899151192245
16.382839999999998,16.009557936226592,0.1230895736471324
16.385219999999997,16.013242960068936,0.122884569814051
16.387615999999998,16.010409824992834,0.1227101794491692
16.390003999999998,16.005854128424037,0.1225415931803178
16.392384,15.999064013683345,0.1223731864180999
16.394788,15.990271798196236,0.1222167532185767
16.397175999999998,15.975613050096737,0.1220928877310801
16.399555999999997,15.962676863489934,0.1219633715786987
16.40196,15.949181598375691,0.1218466721162745
16.404348,15.933125154007593,0.1217545774928048
16.406727999999998,15.91557846557227,0.1216794755774253
16.409124,15.902827374562705,0.1215794254927227
16.411512,15.889936513926274,0.1214825093852216
16.413891999999997,15.878628445155682,0.1213833237081634
16.416287999999998,15.868763398624065,0.1212851319505037
16.418675999999998,15.864345575824258,0.121164513367773
16.421055999999997,15.864723350450204,0.1210193649875001
16.423451999999997,15.867615082501764,0.1208680197894158
16.425839999999997,15.866734930485965,0.1207517299189903
16.42822,15.872884794067811,0.1206114703442669
16.430623999999998,15.881129306194698,0.1204744862181719
16.433011999999998,15.88932659649334,0.1203560117846525
16.435391999999997,15.9066957727629,0.1201989700554067
16.437796,15.926439136831222,0.1200396078122507
16.440184,15.951629724631347,0.1198592569292197
16.442567999999998,15.978682643551032,0.1196709139461755
16.444964,16.010391390269604,0.1194620540329024
16.447352,16.043822698480877,0.1192487746931441
16.449735999999998,16.07739377631901,0.1190331830807906
16.452132,16.11217555897064,0.1188071662337103
16.45452,16.14895944236869,0.118570099020938
16.456899999999997,16.18746588725943,0.1183296232265775
16.459296,16.22397023140376,0.1181008329086511
16.461679999999998,16.261685280361586,0.1178623460654508
16.464063999999997,16.299819638199992,0.1176154246803919
16.466459999999998,16.33609166491884,0.1173777773588011
16.468847999999998,16.37129275645105,0.1171483027951827
16.471227999999996,16.405842221677204,0.116917569302238
16.473623999999997,16.442952866157217,0.1166631354038493
16.476011999999997,16.470472315785724,0.1164544166825076
16.478407999999998,16.498550843921674,0.11623385486467
16.480804,16.525326119445506,0.11600930326002
16.483196,16.54586277530461,0.1158066419958464
16.485576,16.562814538551464,0.1156168771981787
16.487972,16.572689064372426,0.1154666206376626
16.49036,16.585636626126444,0.11529951568237
16.492739999999998,16.59886372713418,0.1151270537048473
16.495136,16.610787575529802,0.1149504948440121
16.497524,16.619778157619233,0.114788328456847
16.499903999999997,16.629188048589242,0.1146172869247198
16.502299999999998,16.637154917320274,0.1144448697183774
16.504687999999998,16.64139712381219,0.1142877290051097
16.507067999999997,16.645918869557825,0.1141244811473038
16.509472,16.649649219370552,0.1139621713218828
16.51186,16.653100029929547,0.1138061940484055
16.514239999999997,16.653897113436074,0.1136582229038544
16.516636,16.652040469890125,0.1135182231423638
16.519023999999998,16.64860103447834,0.1133795842001948
16.521403999999997,16.644370203133636,0.1132415518184078
16.523799999999998,16.6493584795881,0.1130528101801609
16.526187999999998,16.653555360109646,0.1128649782457996
16.528584,16.65588990951163,0.1126842763303022
16.53098,16.660226559660035,0.1124932965932213
16.533368,16.6671243890623,0.1122804091934868
16.535752,16.6757920017855,0.1120453865045554
16.538155999999997,16.675939354843837,0.1118457516879829
16.540539999999996,16.672082506409343,0.1116665071244489
16.54292,16.669296593161484,0.1114809085082034
16.545319999999997,16.670794420660183,0.111269331019898
16.547704,16.670150377785603,0.1110706904429542
16.550088,16.67323099715013,0.1108584261398728
16.552484,16.67645138614153,0.1106431018109745
16.554872,16.680602940692697,0.1104243586047846
16.557252,16.686104969684227,0.1101936797054151
16.559648,16.68550814863789,0.1099778307528333
16.562032,16.68411993165863,0.1097619951744462
16.564415999999998,16.685013354679512,0.1095302224039851
16.566812,16.686837943260173,0.1092950863117672
16.5692,16.692946272587385,0.1090349972224308
16.571579999999997,16.69039457262288,0.108811559279079
16.573976,16.68639985041939,0.1085859273025437
16.576363999999998,16.686828638589315,0.1083322212059723
16.57876,16.686605800453187,0.1080760386784923
16.581155999999996,16.68130782563758,0.1078451832822599
16.583544,16.682295692314952,0.1075802285167572
16.585924,16.689429630858427,0.1072833763127341
16.58832,16.697122647909346,0.1069743228456999
16.590708,16.702953333840714,0.1066722871093756
16.593087999999998,16.706781919025655,0.1063804177391116
16.595484,16.715965180143794,0.1060583466761035
16.597872,16.718630282343483,0.1057589363522152
16.600251999999998,16.720643758237113,0.105456661449287
16.602648,16.724799104504026,0.1051428538320228
16.60504,16.72359977483774,0.1048591793529904
16.607419999999998,16.73199164002296,0.1045381557282247
16.609816,16.743596310768098,0.1041988525298368
16.612204,16.755200981513234,0.1038601304011527
16.614587999999998,16.763872385952173,0.103533451136168
16.616984,16.768399819271423,0.1032287170302841
16.619367999999998,16.77879378520306,0.1028993676480157
16.621764,16.790910312627396,0.1025669894424574
16.62416,16.798743099305174,0.1022588956216501
16.626548,16.809369382662286,0.1019424316303502
16.628928,16.825862198631793,0.1016022745928364
16.631324,16.83271659792155,0.1013152553726401
16.633712,16.83822052277095,0.1010403691429228
16.636091999999998,16.847449109859465,0.1007541365245155
16.638488,16.854256287320975,0.1004848649720827
16.640876,16.858269968103155,0.1002242177425005
16.643272,16.856137577019226,0.0999927691749628
16.645667999999997,16.85665891298777,0.0997550105549449
16.648059999999997,16.857831875262374,0.0995199104066353
16.65044,16.855419944924723,0.0992936925807354
16.652835999999997,16.858362690520263,0.0990386181175351
16.655223999999997,16.858092630555888,0.0988015866689602
16.657608,16.859405362457352,0.0985651369968017
16.660012,16.86043855510509,0.0983345789890598
16.662395999999998,16.86640711480544,0.0980846130358338
16.664779999999997,16.874098235998492,0.0978322564689565
16.667175999999998,16.881509817937825,0.0975861823272208
16.669559999999997,16.88943325655635,0.0973462904658265
16.67194,16.897356695174878,0.0971060842756389
16.674335999999997,16.902486637114066,0.0968744546890657
16.676723999999997,16.902681212000648,0.0966619015395195
16.679104,16.909301398007056,0.0964161811632945
16.681503999999997,16.916340892894052,0.0961623824313348
16.683888,16.918724559982152,0.0959219441790586
16.686268,16.924460802257027,0.0956622134168981
16.688664,16.935132411584515,0.0953840935742658
16.691052,16.946874956098647,0.0951000860099189
16.693431999999998,16.962761471732463,0.0947982004580714
16.695832,16.979858692179786,0.0944884838807466
16.698216,16.99839893486608,0.0941822492200866
16.700612,17.01372637199246,0.0938923983575658
16.703007999999997,17.02667962132009,0.0936020906559767
16.705395999999997,17.038981244341656,0.0933097910772774
16.707776,17.050491471430306,0.0930174096335569
16.710171999999996,17.05706633146634,0.0927431084216409
16.712559999999996,17.061918630009686,0.0924712228764047
16.71494,17.06583976299325,0.0922021588334496
16.717336,17.06817810411097,0.0919326297403248
16.719724,17.073449711534895,0.0916532323703671
16.722119999999997,17.081095506757574,0.0913753804639854
16.724515999999998,17.09153479865958,0.091090194622561
16.726903999999998,17.100763385748092,0.0908135001125585
16.729284,17.10435775764969,0.0905672591850959
16.731679999999997,17.108184446976768,0.0903319186354277
16.734067999999997,17.111591827423265,0.0901050574390692
16.736451999999996,17.10764243119015,0.0899108365869188
16.738847999999997,17.106067222755787,0.0897178638261909
16.741235999999997,17.098206172828455,0.0895525825067447
16.743616,17.088994648460762,0.0893977539691102
16.746015999999997,17.079643354466214,0.0892456508703088
16.748399999999997,17.072154391591223,0.0890888382685429
16.750784,17.063966580581926,0.0889454435173613
16.753179999999997,17.05028432401258,0.0888296128170487
16.755567999999997,17.034320427443095,0.0887262775968343
16.757952,17.021010257926083,0.0886186955736861
16.760347999999997,17.00234541247588,0.0885358826325249
16.762732,16.98382033665254,0.088450101850729
16.765116,16.96501572157548,0.0883696014480234
16.767511999999996,16.945000401684915,0.088296654107556
16.7699,16.92112064992838,0.088235189357009
16.772284,16.89896345966454,0.0881718357795402
16.774679999999996,16.876247190893263,0.0881192530775401
16.777067999999996,16.863541425854066,0.0880310118393947
16.779463999999997,16.855910797494346,0.087923686478127
16.781859999999998,16.8480006298809,0.0878218077923656
16.784247999999998,16.848470952305465,0.087700403435783
16.786631999999997,16.84814987879711,0.0875785457276292
16.789028,16.85141369790101,0.0874507016478084
16.791415999999998,16.853047503310822,0.0873384771853671
16.793795999999997,16.853330834280282,0.0872365821893444
16.796191999999998,16.855848583421636,0.0871393745851777
16.798579999999998,16.86395332592166,0.0870295435516613
16.800963999999997,16.875503191407073,0.0869163267976486
16.803359999999998,16.892500280624297,0.0867931059473989
16.805747999999998,16.91121993133422,0.0866687250440911
16.808131999999997,16.943534978388477,0.0865042307485526
16.810527999999998,16.97501140768158,0.0863562945637496
16.812915999999998,17.007791089586796,0.0862151363273618
16.815295999999996,17.042153563357843,0.0860757021443524
16.817691999999997,17.076376267502035,0.0859387082590343
16.820079999999997,17.110319432392505,0.0858078576199481
16.82246,17.145333532469614,0.0856725342001015
16.824863999999998,17.17327039512083,0.0855631419561161
16.827251999999998,17.199856783331693,0.0854645707123719
16.829631999999997,17.22858504191583,0.0853569526159757
16.832036,17.254799343074346,0.0852506902894025
16.834419999999998,17.282736205725566,0.0851435213464077
16.836803999999997,17.310673068376786,0.0850366354479201
16.839199999999998,17.348248347707756,0.0848888405622729
16.841587999999998,17.388896662971774,0.084730102813139
16.843971999999997,17.42717079043704,0.0845699188894703
16.846363999999998,17.459718154916775,0.0844245270610423
16.848751999999998,17.496968569023647,0.0842537514276941
16.851132,17.531425486451187,0.0840892772501489
16.853531999999998,17.56881567018492,0.0839176842609885
16.855919999999998,17.595403954253648,0.0837781506339711
16.858299999999996,17.622271777576096,0.0836334114415417
16.860695999999997,17.64862774421935,0.0834829049037054
16.863083999999997,17.673121379743044,0.0833364583029384
16.865479999999998,17.701339677505853,0.0831826310229508
16.867876,17.727695644149104,0.0830328567989037
16.870264,17.754982776352133,0.0828817528754122
16.872643999999998,17.786134340421142,0.0827208348940857
16.87504,17.815423573370587,0.0825639453941376
16.877428,17.842570935946753,0.0824163118339445
16.879807999999997,17.867576428149647,0.0822776773217612
16.882203999999998,17.889648654046347,0.0821473021608917
16.884591999999998,17.91507345512982,0.0820019893888239
16.886971999999997,17.931930774720186,0.0818921929509965
16.889367999999997,17.94785692875077,0.0817845127767356
16.891755999999997,17.96629704020697,0.0816769856167768
16.894152,17.987251109088785,0.0815691968733057
16.896548,18.00764609946316,0.0814724192023068
16.898936,18.031114125770596,0.0813657965374628
16.90132,18.04564258353258,0.081284829828155
16.903716,18.06524617797404,0.0811877772318136
16.906104,18.08592070760213,0.0810866765331847
16.908483999999998,18.108457568349785,0.0809824710092272
16.91088,18.132205133910936,0.0808717917135219
16.913268,18.156372008352665,0.0807541322366166
16.915647999999997,18.180678652421257,0.0806341003734651
16.918048,18.202983195743435,0.0805201861959754
16.920436,18.22314586869233,0.0804148051373295
16.922815999999997,18.24237737608145,0.0803110792338671
16.925216,18.26482168903049,0.0801953445082815
16.927604,18.29033903791257,0.0800699679816912
16.929983999999997,18.31972081866064,0.0799358966171896
16.93238,18.344027462729237,0.0798179526234799
16.934772,18.373688782731016,0.0796800070934074
16.937155999999998,18.403629641986523,0.0795376290608175
16.939556,18.427052342323577,0.0794064131123599
16.941944,18.450522264488875,0.0792598577468697
16.944323999999998,18.465192387735588,0.0791348978571769
16.946727999999997,18.477860410235888,0.0790159812845876
16.949115999999997,18.4978852094158,0.0788714052766971
16.951496,18.517770238968843,0.0787298215922341
16.953892,18.534861771842557,0.0785929513273947
16.95628,18.55316400952977,0.0784502846351049
16.95866,18.57025554240348,0.0783142398567148
16.961056,18.583063334530635,0.0781941453896852
16.963444,18.596010896284653,0.0780717496741896
16.965823999999998,18.61030893247903,0.0779407671796754
