Time,Force,Position
16.682655999999998,8.45961605177716,0.1467335402626906
16.685052000000002,8.599636430786079,0.1464270020319341
16.687448,8.716196366919043,0.1461630672842472
16.689835999999996,8.818188206893259,0.1458475148839499
16.692216,8.906356124813398,0.145505049534527
16.694619999999997,8.982654999597631,0.1451435734735745
16.697008,9.047876227178882,0.1447530836592137
16.699392,9.102811203490068,0.1443342269383621
16.701787999999997,9.155840418569191,0.1438016497618964
16.704171999999996,9.203983384281813,0.1432217294212505
16.706552,9.2413263461873,0.1426970288622401
16.708955999999997,9.26847370876347,0.1422554414824679
16.711344,9.295388753914164,0.1417998599117997
16.713724000000003,9.322815655744057,0.1413548292991379
16.71612,9.349823248693363,0.140931567870032
16.718507999999996,9.380648051680405,0.1404983281519632
16.720888,9.417012626197874,0.1400400644464306
16.723283999999996,9.458777202618906,0.1395634503122375
16.725672,9.506640629077808,0.1390373712499703
16.728056,9.5584610352013,0.1384951313027816
16.730451999999996,9.617031917668715,0.1379088498472533
16.73284,9.674624412748113,0.1373621713342671
16.73522,9.7332406211859,0.1368302588334591
16.737619999999996,9.785570988130722,0.1363847324970152
16.740008,9.834316462463288,0.1359722065698763
16.742388000000002,9.880827518623962,0.1355697326097691
16.744784,9.9264546310531,0.1351506349100041
16.747172000000003,9.970126864564063,0.1347306965748649
16.749551999999998,10.000762780238132,0.1344332781581804
16.751952,10.023577284381634,0.1341910286132333
16.754340000000003,10.044157370353243,0.1339539247287275
16.756719999999998,10.060268619981066,0.1337236553326307
16.75912,10.07386591218327,0.1335088029388135
16.761508000000003,10.083878311773226,0.1333207804118062
16.763887999999998,10.090677905803265,0.1331730775003007
16.766284000000002,10.097058190952724,0.1330416788284111
16.768672,10.106092203154654,0.1328926395928691
16.771052,10.114986445729723,0.1327492987539231
16.773452000000002,10.127325811290191,0.1325862941929975
16.77584,10.144041465395826,0.1323972654221604
16.778223999999998,10.164342012113716,0.1321859667565143
16.780620000000003,10.185573724391384,0.1319665305419206
16.783008,10.208016141482547,0.1317294289854726
16.785388,10.234462760066547,0.1314525020252411
16.787792,10.263283566449305,0.1311691438982695
16.790179999999996,10.289682963205058,0.1309221428125417
16.792564000000002,10.314731885520455,0.1306995645888329
16.79496,10.335869154141635,0.1305399159128565
16.797347999999996,10.365758999853156,0.1303274243834349
16.799732000000002,10.40053699078905,0.1300965356445686
16.802128,10.43554729915042,0.1298844478026384
16.804515999999996,10.476097379042216,0.1296577923524942
16.806896,10.517299085240072,0.1294357076414774
16.809292000000003,10.5611545184904,0.1291966324606413
16.81168,10.605521808419928,0.1289644687350918
16.814064,10.65310190390937,0.1286991939119052
16.816460000000003,10.697748733092617,0.1284621602761241
16.818848,10.744816971902862,0.1281943671273981
16.821243999999997,10.78671752623502,0.1279558887571413
16.82364,10.821867604223248,0.1277516790807434
16.826027999999997,10.846774861053913,0.1276242354362641
16.828411999999997,10.87545400195194,0.1274439588407527
16.830808,10.904692221357404,0.1272457331208203
16.833195999999997,10.929973461098278,0.127058494159563
16.835576,10.95278796524178,0.1268561792759439
16.837976,10.973415273041637,0.1266279000157861
16.840363999999997,10.991436075617257,0.1263887079284521
16.842744,11.01248458815556,0.1260718877558101
16.845144,11.025479371737818,0.1257804060393681
16.847531999999998,11.036007419722708,0.125474264314044
16.849912,11.042997796923586,0.1251630030829471
16.852307999999997,11.046310733713598,0.1248529737502377
16.854696,11.04804087863777,0.1245471899965689
16.857076000000003,11.051912893935222,0.1242203831623358
16.859475999999997,11.056204218113251,0.1238795068364632
16.861864,11.052347369678756,0.1236134254179238
16.864248,11.050772161244396,0.1233210593113396
16.866643999999997,11.04090901057065,0.1231074378239709
16.869032,11.034351213255436,0.1228822188623179
16.871411999999996,11.030679460418174,0.1226594720747111
16.873808,11.034037723178557,0.1223992339195047
16.876195999999997,11.033996188923922,0.1222037876711093
16.878579999999996,11.034186972094764,0.1220257458548949
16.880976,11.03498215974342,0.1218765189048304
16.883363999999997,11.038244082989449,0.1217441032434523
16.885740000000002,11.044764137765764,0.1216265465919531
16.888139999999996,11.053890697766311,0.1215210882332822
16.890524000000003,11.064413058177593,0.1214440975041065
16.892903999999998,11.079032167880328,0.1213548916304472
16.895300000000002,11.09253312056818,0.1213026120161816
16.907236,11.160496831284783,0.1212956054613477
16.912035999999997,11.194152873490053,0.1212910958406818
16.914419999999996,11.22189895297043,0.1212127318079641
16.916816,11.249784802077668,0.1211308079151819
16.919203999999997,11.276599715998266,0.1210596894711076
16.921584,11.303973708426309,0.120971772438812
16.923979999999997,11.330603526749671,0.1208595029366709
16.926368,11.352717286901004,0.1207721837690566
16.928752,11.376600830373278,0.1206518716039544
16.931147999999997,11.3975983293676,0.1205288024309581
16.933536,11.417572115003525,0.1203910814701766
16.935931999999998,11.438244748773752,0.120231982399743
16.938328000000002,11.454541093998804,0.1200939294062673
16.940716,11.465762302544386,0.119998280794394
16.943099999999998,11.476471654410773,0.119894923743804
16.945496000000002,11.485737984038185,0.1197902383594424
16.947884,11.492490356239976,0.1196938555759926
16.950264,11.507530670681156,0.1195242238540583
16.952659999999998,11.52406122918956,0.1193313281372068
16.955048,11.539288535085849,0.1191324708855665
16.957427999999997,11.55228142281024,0.1189338298145431
16.959824,11.557964755683267,0.1187768652775547
16.962211999999997,11.559411569637982,0.1186365822629846
16.964592,11.558344426167082,0.1185047974290434
16.966995999999998,11.5582556700842,0.1183425207650115
16.969384,11.554442251762207,0.1182031030093355
16.971763999999997,11.551420229373134,0.1180623616009296
16.974168000000002,11.557337775529508,0.1178543195533655
16.976556,11.56325532168588,0.1176468559089623
16.978936,11.56875355896167,0.1174522017554101
16.981332,11.572761552170244,0.1172804187230671
16.98372,11.578771646125231,0.1170945650365256
16.986099999999997,11.586923610453498,0.1168893515707178
16.988496,11.600709789968676,0.1166266176104624
16.990883999999998,11.614495969483857,0.1163635001717905
16.993264,11.630424019372311,0.1160819637464447
16.995664,11.65128743631338,0.1157648072089257
16.998048,11.667215486201837,0.1154853751838264
17.000432,11.682212370530516,0.1152120955200846
17.002827999999997,11.698140420418971,0.1149337582710535
17.005216,11.714720096613483,0.1146589377076369
17.007595999999996,11.739028636539944,0.1143330801584384
17.009995999999997,11.763057637212686,0.1140172437486993
17.012379999999997,11.788669429751264,0.1136999631908926
17.014776,11.809857711916424,0.1134248146845546
17.017172,11.831045994081588,0.1131494800560562
17.019560000000002,11.855167542552946,0.1128558353611042
17.021939999999997,11.873562328038773,0.1125998856079722
17.02434,11.89330758796496,0.1123277941359944
17.026728000000002,11.914263552704645,0.1120421563136977
17.029107999999997,11.939782797444604,0.1117123441786081
17.031512000000003,11.956222704012257,0.1114486598904622
17.0339,11.972662610579912,0.1111860565092035
17.03628,11.98588971158765,0.110951656570713
17.038676,12.004191949274862,0.1106813949131959
17.041064000000002,12.021143712521711,0.1104297125092508
17.043443999999997,12.035162209462367,0.1101973443812516
17.045844,12.045036735283334,0.1099959337702144
17.048232000000002,12.056494052970132,0.1097937475861207
17.050611999999997,12.070744867336265,0.1095782022542661
17.053015999999996,12.086718243195095,0.1093579105319988
17.055404,12.099618583120868,0.1091609537398614
17.057784,12.109585656740448,0.1089822169923104
17.060183999999996,12.121554831106442,0.1087909318125435
17.062568000000002,12.137248667711557,0.1085805069395019
17.064952,12.155596231369138,0.1083605879528865
17.067348,12.172872859840082,0.1081509529919232
17.069736000000002,12.18973017943045,0.1079536901591208
17.072115999999998,12.204957485326736,0.1077821607949124
17.074519999999996,12.219113856036389,0.1076192435490678
17.076908,12.22884671637262,0.1074952012864934
17.079292,12.24551704450788,0.1073269060666113
17.081687999999996,12.25804340152345,0.1071887465300736
17.084076,12.271361154471933,0.1070500910552535
17.08646,12.279603770740948,0.1069467777993183
17.088855999999996,12.285984055890406,0.1068525398224607
17.091244,12.293015967345925,0.1067618013433495
17.093628,12.307125116227327,0.1066234738128784
17.096023999999996,12.319371933989174,0.1064945420365507
17.098412,12.329616651004606,0.106379307271689
17.100796,12.340001137646896,0.1062607327627955
17.103191999999996,12.351596329102684,0.1061301648184415
17.105583999999997,12.365053851678033,0.1059906563354502
17.107964,12.375438338320324,0.1058727072535358
17.110359999999996,12.387173299402972,0.1057391105931153
17.112748,12.397325468619789,0.1056067325580286
17.115128000000002,12.399469234850931,0.1055241975725854
17.117527999999997,12.402683936268716,0.1054334913297746
17.119916,12.40496747212672,0.1053471708917075
17.122296000000002,12.412186375037336,0.1052319127233249
17.124695999999997,12.421267609067511,0.1051081053211425
17.127084,12.431280008657469,0.1049808533856943
17.129464000000002,12.447950336792726,0.1048203257297215
17.131863999999997,12.46634322642068,0.1046557009423514
17.134252,12.489531713474392,0.1044670736520439
17.136632000000002,12.512300891647524,0.1042895914678243
17.139028,12.5410763720599,0.104077111581514
17.141415999999996,12.566778816539223,0.1038858993040501
17.143796,12.592201721764829,0.1037023979270384
17.146192000000003,12.617065548482987,0.1035347269228244
17.14858,12.640718670387656,0.1033796078847677
17.15096,12.663812713784882,0.1032403592096815
17.153356,12.68970025386144,0.1030896943690085
17.155744000000002,12.713865232445302,0.1029430073994598
17.158128,12.736539966961944,0.102816314815132
17.160524,12.759307249277208,0.1027086199398143
17.162912000000002,12.79087433051105,0.1025526024137724
17.165308,12.826166073984004,0.1023820909393757
17.167703999999997,12.863459918203382,0.1022004078261459
17.170092,12.897680726489703,0.1020398517680701
17.172476,12.935114340335938,0.1018577644863107
17.174871999999997,12.966541651942924,0.1017104772157723
17.17726,12.993313135751018,0.101583383671226
17.179640000000003,13.020783467693414,0.1014387988688643
17.182039999999997,13.044808676650415,0.1013032837729324
17.184428,13.073536935234552,0.1011273402683527
17.186808000000003,13.09746959639294,0.1009756437827826
17.189207999999997,13.125266689417296,0.1008064538063966
17.191596,13.154414256882012,0.1006228972211895
17.193976000000003,13.184260672481036,0.1004216097577085
17.196375999999997,13.213315692147136,0.1002206717432384
17.198764,13.242510481440096,0.100016434714384
17.201144000000003,13.268632234800002,0.0998310668737915
17.203543999999997,13.304484952638273,0.0996005145185091
17.205932,13.34196768417062,0.0993495072557111
17.208316,13.382430903837406,0.0990640224404599
17.210711999999997,13.423313432384774,0.0987703407914493
17.213095999999997,13.458888506827192,0.0984922329653555
17.215479999999996,13.492880789403774,0.0982150090390172
17.217876,13.527152611234076,0.0979317364266376
17.220263999999997,13.5587707060119,0.0976573596809443
17.222647999999996,13.5978853470962,0.0973355653801803
17.225044,13.64170303780763,0.0969777001337251
17.227436,13.678862799973754,0.0966469925503385
17.229815999999996,13.716674188445934,0.0963210500622202
17.232215999999998,13.754206037664394,0.0960049591664042
17.234599999999997,13.791877656509715,0.0956866449789936
17.236983999999996,13.82731485718314,0.0953666796018825
17.239383999999998,13.86279927968481,0.0950274640886341
17.241772,13.899913715880558,0.094670292253018
17.244151999999996,13.939868870583885,0.0942848582441067
17.246548,13.982944283048512,0.0938653791123485
17.24894,14.02848832696838,0.0934073257898416
17.251319999999996,14.063557232305213,0.0929718870470741
17.253716,14.096159402044664,0.092520191698254
17.256108,14.122290634693918,0.0920696382127215
17.258487999999996,14.14460465730544,0.091615232070619
17.260887999999998,14.168036836931842,0.0911348796111042
17.263279999999998,14.18951413764007,0.0906431450694595
17.265663999999997,14.209967724989903,0.0901382531897628
17.268060000000002,14.226045023794567,0.089640423963497
17.270448,14.232531127747723,0.0891768539797443
17.272828,14.232871159834772,0.0887435376300668
17.275223999999998,14.241591681959823,0.0882860000470775
17.277612,14.251942217778955,0.0878108721602971
17.279996,14.259266939493282,0.0873313172586514
17.282391999999998,14.263705616729649,0.0868426498890857
17.28478,14.26656150210018,0.086353414268367
17.287164,14.267787373776631,0.0858834260217131
17.289559999999998,14.263798339146756,0.0854393487763503
17.291948,14.253942771904482,0.0850166433119499
17.294327999999997,14.23808090242296,0.0846186781369131
17.296724,14.220728788874222,0.0842363287718732
17.299111999999997,14.205983180549712,0.0838693396412908
17.301495999999997,14.188070092635662,0.0835555183590697
17.303892,14.176720489610435,0.0832621087918774
17.306279999999997,14.1669064566228,0.0829905762283813
17.30866,14.153692626620147,0.0827586763591363
17.311055999999997,14.144156237028364,0.0825375857431922
17.313444,14.135503791168116,0.0823344626434128
17.315824000000003,14.1301566986664,0.0821314135801964
17.31822,14.133190096202693,0.0819075996194161
17.320607999999996,14.1358041848584,0.0816927289846926
17.323004,14.133482906461492,0.0814961911634516
17.3254,14.125946721758256,0.0813237322070882
17.327788,14.115709588174305,0.0811746632442732
17.330172,14.105285463135248,0.0810487298230658
17.332568,14.092812015521533,0.0809505715212221
17.334956000000002,14.081129963840734,0.0808532761581113
17.337335999999997,14.070890934398912,0.0807610404161514
17.339732,14.06460888462168,0.0806738527834061
17.342119999999998,14.05548611633687,0.0806134253905448
17.344503999999997,14.04352262954448,0.0805800450553369
17.3469,14.027043084580058,0.0805542849679787
17.349287999999998,14.012053783682855,0.0805133041603053
17.351668,13.989243071255093,0.0804790503023957
17.3875,13.605026894016646,0.0804700096441221
17.3899,13.593295724649735,0.0804498628998072
17.392287999999997,13.579841993790128,0.0804308469787926
17.394679999999997,13.57169571703547,0.0804052436550533
17.397076000000002,13.57020736882612,0.0803610036953669
17.399464,13.574538331400916,0.0803179364257972
17.401844,13.576447884348717,0.0802924952683005
17.404244000000002,13.585434674722404,0.080238633840735
17.406632,13.59586448733507,0.0801903846093315
17.409012,13.6160252644261,0.080110317813657
17.411407999999998,13.632321609651154,0.0800421909679205
17.413796,13.649269581182269,0.0799784523453274
17.41618,13.66049078972785,0.0799312857235495
17.418575999999998,13.672922703086932,0.0798754360249619
17.420964,13.685494386072875,0.0798164290531235
17.423343999999997,13.69634350756612,0.0797584682704024
17.42574,13.71147636980592,0.0796786413925323
17.428127999999997,13.729822037605636,0.0795823717849836
17.430511999999997,13.747096770218713,0.0794917121077618
17.432903999999997,13.763952193951209,0.0794112806879519
17.435292,13.779457143243343,0.0793428626435346
17.437692000000002,13.78909555992309,0.0792940455952002
17.440088,13.807533775521424,0.079216406154301
17.442476000000003,13.826903156679537,0.0791368965327273
17.444860000000002,13.84333927153145,0.0790676480902014
17.447256,13.858332364144388,0.0789928793806832
17.449644000000003,13.877329658250162,0.078903261787653
17.452028000000002,13.888318549370268,0.078843515633219
17.454427999999997,13.897864418251396,0.0787781786821452
17.456816,13.903406085639691,0.0787278242496999
17.459196000000002,13.91481428564038,0.0786587376783484
17.461592,13.929575060827842,0.078570868859588
17.463979999999996,13.94834003750814,0.0784684971728154
17.466359999999998,13.96282127344188,0.0783870265808636
17.468763999999997,13.97115643750951,0.0783304654153653
17.471152,13.97907229269656,0.0782835349371731
17.473532000000002,13.985917212696972,0.0782420896140028
17.475928,13.991551427883884,0.078209236624715
17.47832,13.997045873443936,0.0781796071471084
17.480700000000002,14.001469383817351,0.0781552657348932
17.483096,14.009757326056738,0.0781195836516294
17.485483999999996,14.024051570535375,0.078062221818137
17.487864,14.030197642401488,0.0780372468950418
17.490264,14.033550217588266,0.0780183328856246
17.492651999999996,14.033038360909067,0.0780106850820499
17.495032,14.035459770536065,0.0779938557182938
17.497428000000003,14.036810244976424,0.0779822639511036
17.499816,14.043375625723115,0.0779479452518784
17.502196,14.052594733522282,0.0779109942104034
17.511768,14.061114993187145,0.0778898921787871
17.514155999999996,14.07056641841179,0.077867391826646
17.516536,14.0892369514356,0.0778083965812798
17.518936,14.111120290019324,0.0777340903177643
17.521323999999996,14.133795024535967,0.0776613133298821
17.523704,14.15740092461239,0.0775866898676346
17.526099999999996,14.183288464688946,0.0774989774480401
17.528488,14.208384608832588,0.0774098685600684
17.530872,14.232829126670172,0.0773169554591631
17.533267999999996,14.250848033387925,0.0772544917244734
17.535656,14.276083947158424,0.0771631650317831
17.538036,14.30532406242176,0.0770583310845077
17.54044,14.338568379177923,0.0769398401034817
17.542827999999997,14.36995036481454,0.0768258959318312
17.545208,14.40268282489151,0.0767013329363185
17.547608,14.4349959760879,0.0765868199812804
17.549995999999997,14.466098422470791,0.0764806753208083
17.552376,14.503998567025851,0.0763563547019351
17.554779999999997,14.54432012120791,0.0762160566853652
17.557168,14.587714711323024,0.0760639857678281
17.559547999999996,14.631388840691857,0.0759060463765127
17.561947999999997,14.661327804089492,0.0757895660486174
17.564331999999997,14.687262565994294,0.0756870539234722
17.566715999999996,14.713337097525956,0.0755820665660628
17.569112,14.736757902005149,0.0754794597793114
17.571499999999997,14.76232057685761,0.0753677750754245
17.573883999999996,14.788954186896714,0.0752521590375652
17.57628,14.81866083286887,0.0751255821308463
17.578667999999997,14.843571881415274,0.0750106927962246
17.581051999999996,14.876259015521876,0.0748572465234331
17.583448,14.90894614962847,0.0747053461428716
17.58584,14.94005049186923,0.0745517795959728
17.588219999999996,14.969152733363574,0.0744049625030778
17.590616,14.99597333485778,0.0742704292218965
17.593003999999997,15.023585332284902,0.0741381344636643
17.595384,15.050685473032829,0.0739991051851566
17.597784,15.080207023407752,0.0738456798558515
17.600171999999997,15.10307064523737,0.073707082185781
17.602552,15.1279363678134,0.0735631555404906
17.604947999999997,15.15601489594935,0.0734067291070757
17.607336,15.183581567406105,0.0732435657267649
17.609716000000002,15.21822547628874,0.0730577581280375
17.612112,15.254080089984878,0.0728650827725303
17.614499999999996,15.28807237256146,0.0726760852057288
17.616884000000002,15.327279561444373,0.0724689470808407
17.61928,15.365835124021231,0.0722588906118537
17.621672,15.400666024358976,0.0720555595649943
17.624052000000002,15.43577646395044,0.0718476159868455
17.626451999999997,15.479546932833628,0.0716218690883974
17.62884,15.517822956156763,0.071421756722691
17.631220000000003,15.55037221649437,0.0712336272445034
17.633616,15.582502167951397,0.0710546645839099
17.636003999999996,15.61612236347564,0.070863592913723
17.638388000000003,15.65430583900016,0.0706507205336238
17.640792,15.689044191539288,0.070438460008091
17.643179999999997,15.722059982585714,0.0702266296318234
17.645563999999997,15.750419945833253,0.070022041258144
17.64796,15.783343189081068,0.0697962609317994
