Time,Force,Position
16.511719999999997,13.436302225974895,0.1430710344334832
16.514124,13.565902271660496,0.1426956961983375
16.516512,13.67953842077661,0.1422595099143142
16.518891999999997,13.776419277390325,0.1417694079143328
16.521288,13.84825689926225,0.1413084432392474
16.523671999999998,13.89802987866895,0.140890097428614
16.526051999999996,13.923269584155191,0.140558817119994
16.528456,13.930027643930591,0.1402956913779873
16.530844,13.92007194545823,0.1401246985447554
16.533223999999997,13.911466721426224,0.1399366277376228
16.535628,13.909519425939529,0.1397029200173649
16.538016,13.911017253438224,0.1394523074063476
16.540395999999998,13.913818333549036,0.1392040057241383
16.5428,13.919086149257222,0.1389655157312831
16.545188,13.928123953174891,0.1387395296754663
16.547568,13.94530803384722,0.1385041944769653
16.549971999999997,13.966866507206849,0.1383044044546006
16.552356,13.992706825455164,0.1381223252290377
16.55474,14.025669707099745,0.1379198943735858
16.557135999999996,14.062729338035773,0.1377007962092373
16.559524,14.104724336024413,0.1374436157111929
16.561904,14.139130239907969,0.1372409552587233
16.564307999999997,14.167297524126797,0.1370742751623556
16.566695999999997,14.19309062054687,0.1369164854032445
16.569076,14.218651399541466,0.1367469616627619
16.571479999999998,14.23946380293855,0.1365908844956315
16.573867999999997,14.26004388891016,0.1364226538195458
16.576248,14.278948635217318,0.1362425230033815
16.578643999999997,14.296689898539215,0.13605589465149
16.581031999999997,14.31513000999542,0.1358521092041695
16.583408,14.331707790332064,0.1356612070239304
16.585815999999998,14.347586722534407,0.1354888693884759
16.588203999999998,14.364908676975729,0.1353162824413342
16.590584,14.378738286603411,0.1351785826522335
16.592979999999997,14.39443022735065,0.1350297416892728
16.595363999999996,14.409191002538115,0.134886985099511
16.597748,14.4237194603001,0.1347312972911014
16.600143999999997,14.442671428435498,0.1345348274966626
16.602528,14.458318043212362,0.1343497588756122
16.604908,14.47573444131017,0.1341371828031969
16.607311999999997,14.489193859743386,0.1339347480072047
16.609699999999997,14.50004677295237,0.133724735802953
16.61208,14.512017843176237,0.1334857902818226
16.614483999999997,14.519240537802592,0.1332590524615914
16.616867999999997,14.52101600869714,0.1330618645100541
16.619248,14.521208687725853,0.1328682173883862
16.621651999999997,14.518096013396027,0.1326857054264739
16.624039999999997,14.514843569439348,0.1325069123093432
16.62642,14.512242751788722,0.1323301063312374
16.628823999999998,14.50694098525738,0.1321862228777472
16.631211999999998,14.500800600964878,0.1320642204256204
16.633591999999997,14.496382778165074,0.1319350669306016
16.635987999999998,14.4952703087238,0.1317954758250981
16.638375999999997,14.499605063014334,0.1316271572047582
16.640756,14.507105401036542,0.1314525431582258
16.643159999999998,14.517119696484366,0.1312697817323245
16.645543999999997,14.53151028047736,0.1310684816245701
16.647927999999997,14.545621325216633,0.1308752466521957
16.650319999999997,14.564108658501077,0.130663334528945
16.652707999999997,14.58217668290494,0.1304626807857822
16.655088,14.60182749917464,0.1302590140161582
16.657483999999997,14.627856704735931,0.1300232661170492
16.659871999999996,14.655049393282477,0.1297963071587254
16.662252,14.682334629627636,0.1295855325805261
16.664651999999997,14.713996154517968,0.1293561473161289
16.667036,14.75082536388639,0.1291075100820123
16.66942,14.788957825866929,0.1288626576935359
16.671816,14.8286730797133,0.128615705257719
16.674204,14.867037859119314,0.1283847987125964
16.676584,14.90405216408497,0.1281691571286353
16.678987999999997,14.941066469050623,0.1279540394996182
16.681375999999997,14.97700983882964,0.1277478674880409
16.683756,15.010159711929324,0.1275577676567713
16.686151999999996,15.041726793163171,0.1273713615980743
16.68854,15.068638046598124,0.127210612400653
16.69092,15.091684868167102,0.127073728958192
16.693323999999997,15.110075861937192,0.1269622434157855
16.695708,15.127535690147504,0.1268561845135389
16.698088,15.145275057611537,0.1267440662729132
16.700487999999996,15.163154194702429,0.1266288110283724
16.702876,15.17996239660668,0.1265220404843403
16.705256,15.193697562577878,0.1264373038418184
16.707652,15.20692087186988,0.1263477273168703
16.71004,15.222286051535155,0.1262419712582733
16.712419999999998,15.234857734521096,0.1261506573323485
16.714816,15.242121963402088,0.126081371049865
16.717204,15.250457127469716,0.1260040300288618
16.719583999999998,15.259071830791068,0.1259203239578558
16.72198,15.268105842993004,0.1258265087102618
16.724363999999998,15.279840804075654,0.1257030646172793
16.726743999999997,15.28813064217291,0.1255915780794116
16.729139999999997,15.299912825083805,0.1254495970649123
16.731527999999997,15.312626173554474,0.1253031384258527
16.733908,15.325199752398287,0.1251601687741514
16.736303999999997,15.337913100868958,0.1250136197483378
16.738691999999997,15.349974823033572,0.1248647086659578
16.741072,15.364969811504382,0.1246986392178594
16.743467999999996,15.378242238482494,0.1245386864051108
16.745855999999996,15.388721168781272,0.1243932509391317
16.74824,15.396406602400717,0.1242616992908702
16.750635999999997,15.407304841580071,0.1241066282822972
16.753023999999996,15.417551454453372,0.123949672700059
16.755404,15.424864801020478,0.1238101416119073
16.7578,15.429524420535106,0.1236811980024756
16.760188,15.43832801116943,0.1235242685604722
16.762572,15.452858364789282,0.123337194457947
16.764968,15.467808027289715,0.1231407212469121
16.767356,15.481546984976651,0.1229560330634324
16.769735999999998,15.497288043410007,0.1227596405141128
16.772136,15.513540958522558,0.122569416560344
16.77452,15.534309931807138,0.1223602838243942
16.776904,15.549584459531667,0.1221934129243023
16.779315999999998,15.566209461696554,0.1220129842688091
16.781703999999998,15.58497633423472,0.1218177784861569
16.784083999999996,15.607747408265716,0.1215991828462234
16.786483999999998,15.635174310095612,0.1213593250834622
16.788871999999998,15.661670046365725,0.1211247524089002
16.791251999999997,15.690307653009112,0.1208755298071704
16.793647999999997,15.718014094092725,0.1206307091048478
16.796035999999997,15.750655902228946,0.1203584954906206
16.798416,15.781435379245613,0.1200963351392069
16.800811999999997,15.812214856262278,0.1198345189704903
16.803199999999997,15.842854563652086,0.1195757149175634
16.80558,15.878569407721365,0.1192874567026343
16.807979999999997,15.912561690297943,0.1190061024551059
16.810367999999997,15.940966979515856,0.1187507784002145
16.812748,15.970443203920407,0.1184895268392833
16.815143999999997,15.996614074966423,0.1182351605597765
16.817531999999996,16.021202154146607,0.1179836575646862
16.819916,16.043416045528033,0.1177354387058206
16.822311999999997,16.067259950603543,0.1174688553859051
16.824696,16.09566713567932,0.1171674920169824
16.82708,16.12007011926227,0.1168890028812708
16.829476,16.142750541352523,0.1166163063667566
16.831864,16.163987941203796,0.1163435950948551
16.834243999999998,16.182711383629456,0.1160774441598993
16.83664,16.19985203418928,0.1158132450015115
16.839028,16.214990584002688,0.1155603486275181
16.841407999999998,16.231619377883316,0.115291349012435
16.843804,16.247736315084744,0.1150183738055019
16.846192,16.26012859004706,0.1147607012090591
16.848571999999997,16.272940173889953,0.1144940727069837
16.850983999999997,16.28551944030737,0.1142155774655779
16.853371999999997,16.292511713366117,0.1139607070031929
16.855752,16.29978352567859,0.1137003605821895
16.858147999999996,16.3081262731777,0.113432928368284
16.860536,16.317260416609724,0.1131660416677258
16.862916,16.332121323027284,0.1128742236082125
16.865312,16.348704790937532,0.112578969338676
16.8677,16.367290359594204,0.1122738508560211
16.870079999999998,16.3820114963849,0.1119873837113083
16.872476,16.39473053242918,0.111712002326199
16.874864,16.41066237403337,0.111416909153725
16.877247999999998,16.431389813063316,0.1111025152161255
16.879644,16.44876467690649,0.1108110831131771
16.882032,16.4642772096301,0.1105267699937508
16.884411999999998,16.481791843100137,0.1102328881160137
16.886808,16.50237951250322,0.1099231697693894
16.889196,16.525620908958782,0.1096073874184191
16.891575999999997,16.54578926948129,0.1093088009923159
16.893971999999998,16.56889089630999,0.1089967129947583
16.896359999999998,16.593063458325325,0.1086792020927135
16.898743999999997,16.6217520785127,0.108348698463817
16.901139999999998,16.649229993886568,0.1080269499105359
16.903527999999998,16.676707909260443,0.1077065863408019
16.905911999999997,16.704325594261178,0.1073834731331321
16.908312,16.72542512034346,0.1070841224695338
16.9107,16.74051834418649,0.1068140341854202
16.913079999999997,16.748022473924436,0.1065731290358285
16.91548,16.75366427254283,0.1063391697056451
16.917868,16.760237236721,0.1061020758868437
16.920247999999997,16.76522740903333,0.1058656588648847
16.922648,16.767144545412606,0.1056450222538132
16.925036,16.757608155820822,0.1054692746515111
16.927415999999997,16.749562010296255,0.1052782176678257
16.929812,16.744588900704752,0.105071486162625
16.932199999999998,16.73682229443391,0.104874393638314
16.934583999999997,16.72519125629709,0.1046930753980485
16.93698,16.706622750361245,0.1045428009072138
16.939367999999998,16.68712307886562,0.1043954063260521
16.941751999999997,16.66562130662358,0.1042570693282625
16.944148,16.639975563261842,0.1041399266544109
16.94654,16.610325618407273,0.1040409955101728
16.948919999999998,16.583469170232036,0.1039323574891454
16.951316,16.55232898131025,0.1038476946947977
16.953708,16.523982289067796,0.1037531894184618
16.956087999999998,16.498289323877817,0.1036519599267438
16.958484,16.47660056018067,0.1035321529401092
16.960876,16.463571825775254,0.1033781566763309
16.963255999999998,16.451194717675893,0.1032267862130431
16.965652,16.438398300695955,0.1030841451965369
16.96804,16.427836301887904,0.1029438530953125
16.970423999999998,16.42020756938605,0.1027913292363933
16.972835999999997,16.422170031735696,0.1026020033831828
16.975223999999997,16.422642250018132,0.1024272949058312
16.977604,16.42283492904684,0.1022587889832269
16.979999999999997,16.42568133512803,0.1020841786315989
16.982387999999997,16.433183569008104,0.1018948160497872
16.984768,16.445481400313938,0.1016872993729683
16.987184,16.462435059418656,0.101465301873317
16.989572,16.48446385520285,0.1012203347815837
16.991956,16.513010809905488,0.1009552185864177
16.994352,16.544630800541185,0.1006762687617884
16.996736,16.58025499266972,0.1003813710781157
16.999119999999998,16.6218854870375,0.1000610259741445
17.001516,16.661234341405144,0.0997562652814674
17.003904,16.70472716689248,0.0994327716324401
17.006283999999997,16.748499531633538,0.0991050726823153
17.00868,16.78919886044154,0.0987930847325328
17.011067999999998,16.828967023689763,0.098484227101935
17.013447999999997,16.86887495656485,0.0981729858082627
17.015848,16.91013336388029,0.0978518180951444
17.018235999999998,16.94966920970304,0.0975341877432955
17.020615999999997,16.98720295477937,0.0972266181333919
17.023016,17.027669966161895,0.0969082746650533
17.025399999999998,17.0690681431042,0.0965886984680104
17.027783999999997,17.108324449673226,0.096280689040863
17.030179999999998,17.14371632437628,0.0959872463680326
17.032567999999998,17.179527507959914,0.0956865842598643
17.034947999999996,17.20961192855802,0.0954050941728307
17.037347999999998,17.23848564434262,0.0951334790785016
17.039735999999998,17.262191675649138,0.0948700173944793
17.042115999999996,17.28389560620923,0.0946153252774614
17.044531999999997,17.297730903410525,0.0943896476130113
17.046919999999997,17.30849316467876,0.0941777839012788
17.0493,17.31981450445444,0.0939552024671177
17.051696,17.326060707550642,0.0937537487805367
17.054084,17.33137574508707,0.0935551915586398
17.056468,17.33482845150394,0.0933614715178765
17.058864,17.34042302829409,0.0931575629482564
17.061252,17.347368079524596,0.0929433902048958
17.063632,17.352450799635545,0.0927345630872873
17.066031999999996,17.362189347545385,0.0925144237067668
17.068416,17.36992579470881,0.0923019650669249
17.0708,17.37593968037953,0.092091726803052
17.073196,17.377157968624505,0.091896007707773
17.075584,17.38065789686962,0.0916876360642137
17.077963999999998,17.383226659554953,0.0914813856821414
17.08036,17.382582616680377,0.0912902774387051
17.082748,17.384871840111995,0.0910893025141586
17.085127999999997,17.381574070184932,0.0909021375652748
17.087524,17.37771722175044,0.0907254827920273
17.089911999999998,17.371718502942667,0.0905587142365945
17.092295999999997,17.371865856001005,0.090367223259803
17.094692,17.36735738126045,0.0901868017898104
17.09708,17.35949633133312,0.0900238882666521
17.099459999999997,17.35042457659229,0.0898683234641782
17.101855999999998,17.338791642597602,0.0897307748663185
17.104243999999998,17.328229643789548,0.0895879920089618
17.106623999999996,17.31752787535464,0.0894480025007382
17.109023999999998,17.30054026542676,0.089334900644243
17.111411999999998,17.280619389192683,0.0892310137243029
17.113791999999997,17.252829879599805,0.089153078975423
17.116187999999998,17.226111305193562,0.0890699253568344
17.118575999999997,17.201394831533733,0.0889793000946868
17.120959999999997,17.178540688993465,0.0888839725033007
17.123355999999998,17.155407007199475,0.0887938754910717
17.125743999999997,17.132273325405485,0.0887035271097432
17.128124,17.111001974731046,0.0886085678488874
17.130519999999997,17.090801559243253,0.0885085145609775
17.132907999999997,17.075117201927487,0.0884000312352542
17.135288,17.063716585358282,0.0882719528440525
17.137687999999997,17.055668543975845,0.0881264948611996
17.140071999999996,17.045199092966413,0.0879962164166361
17.142456,17.043249901621845,0.0878440063453808
17.144851999999997,17.04716724288967,0.0876737658209716
17.147243999999997,17.05508878565033,0.0874895623480207
17.149624,17.066083364344042,0.0872936373273655
17.152019999999997,17.07987143971709,0.0870918028767293
17.154407999999997,17.091657414343718,0.0868970900659182
17.156792,17.10958946083646,0.0866788356723828
17.159187999999997,17.12910429919504,0.0864615079670778
17.161575999999997,17.151412634232948,0.0862373908870536
17.16396,17.171718868524444,0.0860202174476049
17.166355999999997,17.189743462815805,0.0858156232875266
17.168743999999997,17.207628287480304,0.0856136849996025
17.171128,17.225373342517944,0.0854149225795113
17.173523999999997,17.250055865354614,0.085194646706294
17.175911999999997,17.27445884893756,0.0849799582274832
17.178296,17.29536948770687,0.0847848726924618
17.180691999999997,17.31721129203596,0.084588459708347
17.183083999999997,17.336352147484334,0.0844125930314869
17.185464,17.35586508998504,0.0842460865206582
17.187859999999997,17.372584535806414,0.0840853359207261
17.190247999999997,17.380504182709206,0.0839503491519628
17.192632,17.38334869293252,0.0838333051198469
17.195027999999997,17.388335073529117,0.0837074736451427
17.197415999999997,17.391319353379295,0.0835882278113127
17.1998,17.390159662109777,0.0834846524490399
17.202199999999998,17.38993113640004,0.0833791517860305
17.204583999999997,17.39035423699636,0.083277260046247
17.206964,17.39371060389887,0.0831671908890343
17.209359999999997,17.40014000673444,0.0830464024648548
17.211747999999996,17.409362906249346,0.0829200667490421
17.214128,17.42058790651066,0.0827875150755372
17.216524,17.433954777145264,0.0826461923873884
17.218908,17.442945359234688,0.0825087642820026
17.221292,17.44392753833845,0.0823967783786641
17.223708,17.44360646483009,0.082277910493388
17.226096,17.445706800948734,0.0821448427702056
17.228475999999997,17.44408247482826,0.0820190972311708
17.230887999999997,17.44422793202873,0.0818759966432714
17.233275999999996,17.436784295124113,0.0817496522702718
17.235656,17.434415794898964,0.0816064342508284
17.238052,17.44019546728635,0.0814357601887337
17.24044,17.449327714860505,0.0812493284898076
17.24282,17.45459553056869,0.0810730260426908
17.245216,17.46107405109037,0.0808897893306083
17.247604,17.472115851612326,0.0806841592172571
17.249983999999998,17.482226486574504,0.0804803414303882
17.252395999999997,17.48754152411093,0.0802878096010353
17.254783999999997,17.4909942305278,0.0800990651011643
17.257164,17.49272437545197,0.0799115175793197
17.25958,17.49473405962987,0.0797191470293319
17.261964,17.495952347874848,0.079526100354719
17.264343999999998,17.497170636119822,0.0793333973132349
17.26674,17.50304475216369,0.0791322790053527
17.269128,17.511852134513756,0.0789234311560224
17.271507999999997,17.522242308729652,0.0787164557941421
17.273903999999998,17.53370341813219,0.0785056908454196
17.276291999999998,17.546235462721366,0.078290603078533
17.278675999999997,17.55341283137735,0.0780963192045745
17.281071999999998,17.566456732645722,0.0778866142121704
17.283459999999998,17.575356662794405,0.0776913226764705
17.285839999999997,17.581835183316084,0.0775101573434046
17.288235999999998,17.58524066790471,0.0773389458307189
17.290623999999998,17.586364512493198,0.0771783151849026
17.293003999999996,17.584415321148633,0.0770273722253007
17.295399999999997,17.575760979430516,0.0769063067156182
17.297787999999997,17.566966868085537,0.076787686512489
17.300168,17.565249994166443,0.0766479814233109
17.302567999999997,17.56260195468758,0.076509796089625
17.304955999999997,17.557672275208574,0.0763822908915763
17.307336,17.54939002054279,0.0762695880978924
17.309731999999997,17.5391056651306,0.0761623626173078
17.312119999999997,17.526679439345124,0.0760632478780991
17.314504,17.51332204799987,0.0759655891389719
17.316899999999997,17.49889372146798,0.0758718814156231
17.319287999999997,17.488609366055783,0.0757646676913555
17.321672,17.476043370643453,0.0756679728270833
17.324067999999997,17.463197835977397,0.0755762290138846
17.326455999999997,17.454636042057896,0.0754682497321776
17.32884,17.448355888138536,0.0753498298397354
17.331231999999996,17.44314666940581,0.075227257671004
17.333616,17.43435255806083,0.0751077426907379
17.335995999999998,17.430493813768464,0.07497609233278
17.338411999999998,17.429847875036014,0.0748323888110595
17.340799999999998,17.435208238542813,0.0746727094685621
17.343179999999997,17.446063047609666,0.0744905557734699
17.345591999999996,17.4561264607436,0.0743070886386293
17.34798,17.457901931638144,0.0741501982201976
17.350375999999997,17.459677402532694,0.0739932286230755
17.352771999999998,17.4615926430541,0.0738334442063072
17.355155999999997,17.46378742282923,0.0736682660634931
17.357539999999997,17.46691336816414,0.0735015377482585
17.359935999999998,17.469387687192988,0.0733308999257679
17.362323999999997,17.471722236594978,0.0731629388935978
17.364704,17.47740936118374,0.0729809499212062
17.367099999999997,17.478021349093034,0.0728137647854937
17.369483999999996,17.481054746629322,0.0726338942112595
17.371879999999997,17.48636978416575,0.0724439230265046
17.374284,17.49033434726181,0.0722629148713068
17.376672,17.492157039984605,0.0720899335564078
17.379051999999998,17.49598183345381,0.0719119918783237
17.381448,17.502879662856074,0.0717250592056827
17.383836,17.505121664459445,0.0715447394167584
17.386215999999997,17.5053615653164,0.0713693573515944
17.388612,17.499874703187825,0.0712040067730359
17.391,17.49466738031297,0.0710338685155966
17.393379999999997,17.492672862998027,0.0708525780515004
17.395784,17.496452330496865,0.0706450657940051
17.398172,17.50465530836911,0.0704208124987847
17.400551999999998,17.519004358107466,0.070180167643242
17.402956,17.538568314152155,0.0699243697412779
17.405344,17.562416010943405,0.069654893811169
17.407723999999998,17.589336743667705,0.0693774947143009
17.41012,17.61574561971281,0.0690941392845361
17.412508,17.638150294265074,0.0688206950843158
17.414887999999998,17.6619054432577,0.0685390711143281
17.417284,17.681656390757496,0.0682668932791458
17.419667999999998,17.700336403070654,0.0679988322848263
17.422051999999997,17.72036688982417,0.0677225082119386
