Time,Force,Position
17.796623999999998,12.316901809174006,0.1366153009108153
17.799003999999996,12.347639751936034,0.1360556789685767
17.801399999999997,12.37595628507107,0.1355326485700793
17.803787999999997,12.39812674633999,0.1350687294880484
17.806171999999997,12.417084402049,0.1346397900606852
17.808567999999998,12.43133900813087,0.1342679761101282
17.810955999999997,12.444662448652965,0.1339034697720152
17.813335999999996,12.451932365107568,0.1336151948674269
17.815739999999998,12.46315926122676,0.1333165102381324
17.818127999999998,12.471545438838367,0.1330611293783271
17.820511999999997,12.478860681263344,0.1328169930113513
17.822907999999998,12.49469618335318,0.1325104926393728
17.825295999999998,12.510252146189298,0.1322138088129622
17.827679999999997,12.518730871599532,0.1319788845730164
17.830076,12.525487035517068,0.131753396781022
17.832463999999998,12.5305206379419,0.1315370671554218
17.834843999999997,12.537696110740017,0.1313004649677488
17.837244,12.544871583538129,0.1310639633670032
17.839627999999998,12.552326595589962,0.1308193016617649
17.842011999999997,12.558990211708878,0.1305773970857142
17.844407999999998,12.563931266335098,0.1303436836232576
17.846795999999998,12.569943256147958,0.1301005636184658
17.849175999999996,12.569716626296088,0.1298914867296241
17.85158,12.57349419793705,0.1296498312105964
17.853968,12.58034480551107,0.1293826144045107
17.856347999999997,12.588406117898588,0.1291003732637254
17.858743999999998,12.591252523979774,0.1288636822001316
17.861131999999998,12.598382670807514,0.1285861602178971
17.863515999999997,12.599646285022864,0.1283529745128727
17.865911999999998,12.60128198629055,0.1281300949770273
17.868299999999998,12.603941400916632,0.1279204624402432
17.870679999999997,12.604598714796296,0.1277274619796522
17.873079999999998,12.603253927929549,0.1275505435161197
17.875467999999998,12.605261716249572,0.127338948254985
17.877847999999997,12.606058799756095,0.1271418217877085
17.880243999999998,12.605412861023648,0.1269442097823285
17.882627999999997,12.60639693598528,0.1267211533097985
17.885011999999996,12.610221729454484,0.1264585417487018
17.887415999999998,12.61646793255069,0.1261690659766843
17.889799999999997,12.619408782288364,0.1258899875155564
17.892183999999997,12.625050580906752,0.1255755995256858
17.894579999999998,12.628318191726391,0.1252665996867177
17.896971999999998,12.637452335158416,0.1249157682688488
17.899351999999997,12.645375773776944,0.1245794301371522
17.901747999999998,12.648456393141478,0.1242979508226786
17.904135999999998,12.654190739558484,0.1240041082651921
17.906519999999997,12.670587216013631,0.1236377561602988
17.908915999999998,12.683491347655146,0.1233083316666374
17.911303999999998,12.701842703028468,0.1229498209075395
17.913683999999996,12.722335928775063,0.1225726882576294
17.916083999999998,12.74124636265583,0.1221988431150157
17.918471999999998,12.76108796209637,0.1218207323091927
17.920851999999996,12.78549284153719,0.121398858672022
17.923247999999997,12.809897720978006,0.1209779632189392
17.925635999999997,12.835792844486042,0.1205369343468747
17.928019999999997,12.86634379579297,0.1200721325621881
17.930415999999997,12.890608905606925,0.119659843080679
17.932803999999997,12.911381670607245,0.1192845491854034
17.935183999999996,12.932806061913624,0.1189149909889439
17.937583999999998,12.960236755459253,0.1185046753564934
17.939971999999997,12.985246039377886,0.118121527990758
17.942368,13.010767179975712,0.117745739755615
17.944764,13.03735925576018,0.1173642520285639
17.947152,13.064230870798369,0.1169759927872944
17.949536,13.098087175463828,0.1165217316823489
17.951932,13.133945580875706,0.1160571165680084
17.95432,13.16621909367533,0.1156120714363832
17.956699999999998,13.203987052035004,0.1151222638893839
17.9591,13.24338502408876,0.1146127509897513
17.961484,13.285344175396377,0.1140790649005788
17.963867999999998,13.32665170039793,0.1135422981637994
17.966267999999996,13.365025959093291,0.113023689779061
17.968656,13.39897670741524,0.1125446093845044
17.971035999999998,13.435069326110462,0.1120514670986345
17.973435999999996,13.472232879992324,0.1115532350940347
17.975824,13.503529901261796,0.111090875074282
17.978208,13.53990205921074,0.1105960965425667
17.980603999999996,13.579347253092742,0.1100825780281803
17.982992,13.619071986228462,0.1095665271562
17.985376,13.655164604923684,0.1090880149729911
17.987771999999996,13.693259324365323,0.1085987775409079
17.990159999999996,13.732704518247324,0.1080963147185725
17.992544,13.769356215449989,0.1076094534958187
17.994939999999996,13.808010013399068,0.1071133310350335
17.997327999999996,13.83930703466854,0.1066691757690812
17.999712,13.869812660005092,0.1062287688968039
18.002111999999997,13.899247350155006,0.1057975747140715
18.004495999999996,13.926540169931643,0.1053840946332487
18.00688,13.952901824148505,0.104977724147502
18.009279999999997,13.97497973761881,0.1046023413635761
18.011667999999997,14.005205823701644,0.1041825458588837
18.014048,14.037713549784613,0.1037452823422232
18.016448,14.071431980681082,0.1032980203177034
18.018836,14.106081577137331,0.1028505605721628
18.02122,14.14073117359358,0.1024061661681951
18.023616,14.18031613710244,0.1019385538103585
18.026004,14.2199011006113,0.1014739633152801
18.028384,14.259625833747016,0.1010091202211856
18.030788,14.292924955762908,0.1005863161687653
18.033176,14.329436883338712,0.1001450818808737
18.035556,14.363806940541238,0.0997183773676738
18.03796,14.398176997743764,0.0992938439248429
18.040348,14.434129846812125,0.0988712524315378
18.042728,14.46915153032071,0.0984544823002048
18.045132,14.510179516068549,0.0980093106280169
18.04752,14.547063530696688,0.0975882368391429
18.0499,14.586880811631024,0.0971567007697932
18.052296,14.6236250566323,0.0967419789377845
18.054684,14.659158596820085,0.0963394497088843
18.057064,14.697625403314058,0.0959257081161718
18.05946,14.729387059434483,0.09555984986846
18.061848,14.76366267298052,0.0951933227422089
18.064228,14.800871552832756,0.0948167216525504
18.066624,14.83686972787149,0.0944521857832165
18.069012,14.870586262910088,0.0941046627111994
18.071392,14.903651171642627,0.0937563313537414
18.073788,14.93792678518867,0.0934014893544843
18.076176,14.971922859480989,0.0930551089115599
18.07856,15.009690817840667,0.0926784896568991
18.080956,15.046015753961369,0.0923006598798041
18.083344,15.085833034895703,0.091900612352362
18.085724,15.12644171176296,0.0915032439224309
18.08812,15.16560736639124,0.0911038433579385
18.090508,15.205704186579297,0.0907041561805019
18.092888,15.243938675647795,0.0903122790059031
18.095292,15.285385970276211,0.0899042373152855
18.09768,15.323760228971572,0.0895120431857825
18.10006,15.367489163600128,0.0890936345428074
18.102456,15.409215997482264,0.0886843640426967
18.10484,15.4533642409914,0.0882616843229187
18.107224,15.499142498194614,0.0878229698539341
18.109628,15.543617502785713,0.0873799205402366
18.112016,15.58650971551097,0.0869386879880616
18.114396,15.626887970810618,0.0865000233980716
18.1168,15.666894139057929,0.0860526278638535
18.119188,15.701964940252624,0.0856236500835145
18.121568,15.730238043275154,0.0852173656640496
18.123968,15.757068124058708,0.0848082485764696
18.126352,15.785480996708095,0.0844023865541113
18.128736,15.813614330103762,0.0840041852104418
18.131132,15.84146812424571,0.0836141236718787
18.133516,15.864805860215624,0.0832323829166583
18.1359,15.886281265065984,0.0828553793370059
18.138296,15.90589433879679,0.0824838662921189
18.140684,15.923505311781172,0.0821200715179039
18.143064,15.938462557713084,0.0817600365095278
18.14546,15.95304771659266,0.081390957691616
18.147848,15.963628673979398,0.0810367598965355
18.150232,15.972626839500304,0.0806803475574451
18.152628,15.97347683240868,0.0803542897557836
18.155016,15.970602163077942,0.0800358891975895
18.157396,15.965585623373933,0.0797272693910413
18.159796,15.955493946990448,0.0794362156474514
18.16218,15.944750644300903,0.0791409312169136
18.164564,15.93428688086508,0.0788397420832042
18.16696,15.925033822242757,0.0785303202432988
18.169348,15.917782864366847,0.0782135379597776
18.171744,15.90587607869205,0.0779049791602716
18.17414,15.892386501151414,0.0775946491821146
18.176528,15.874380865438749,0.0772896762064925
18.178908,15.851719401927188,0.0769930387804104
18.181308,15.830920269535186,0.0766922302271164
18.183696,15.81156415938216,0.0763961474393558
18.186076,15.785410351056964,0.0761163345004752
18.18848,15.756602815679296,0.0758377325192709
18.190868,15.729657611421183,0.075555187676351
18.193248,15.700710306416653,0.0752778265973895
18.195644,15.670971605479204,0.0749984599453
18.198032,15.644166170847951,0.0747106977683109
18.200412,15.615638174724005,0.074421605493425
18.202808,15.591626236772086,0.0741270365548236
18.205196,15.568685234006807,0.0738276920171973
18.207576,15.550679598294138,0.0735143447974008
18.20998,15.536398624820585,0.073194910224912
18.212368,15.520767176906672,0.0728849809620832
18.214748,15.50634643380626,0.0725674025165631
18.217144,15.49592989219868,0.0722384696362788
18.219536,15.486025207270298,0.0719150590252914
18.221916,15.47197655122222,0.0716052162704431
18.224312,15.457648355920425,0.0712997090965169
18.2267,15.446253426924825,0.0709867080040864
18.229084,15.433927332369445,0.0706746263818949
18.23148,15.41843565408239,0.0703559122374413
18.233868,15.410812609154146,0.0700168440411184
18.236248,15.409987262398069,0.0696628890007285
18.238652,15.407020045268716,0.0693171650939802
18.24104,15.40549585037834,0.0689768703171507
18.24342,15.402621181047602,0.0686456857789402
18.245824,15.397744410970448,0.068319778270503
18.248212,15.40045673499838,0.0679805661903542
18.250596,15.39916485753348,0.0676522834038327
18.252992,15.393729008948888,0.0673368680289658
18.25538,15.383078254057958,0.0670384113443735
18.257764,15.36614165767406,0.0667609394090423
18.26016,15.347854586849802,0.066492338614426
18.262552,15.329799833451023,0.0662365438141968
18.264932,15.304528072999496,0.0660022854645093
18.267332,15.285122845160355,0.0657551967091269
18.26972,15.26636924362728,0.0655116390345117
18.2721,15.251200534706452,0.0652659115053777
18.2745,15.233610416158628,0.0650334040194819
18.276888,15.212667722424026,0.0648145407816446
18.279268,15.19232943316724,0.0646185034690016
18.281668,15.1677074031639,0.0644377093826439
18.284056,15.135728596480952,0.0642809194863464
18.286436,15.1042616464772,0.0641311558334133
18.288832,15.072515157219726,0.0639867061833096
18.29122,15.044493330201368,0.0638377399102605
18.2936,15.015772655048709,0.0637025478325661
18.296,14.982628469522632,0.0635853102909773
18.298388,14.947342413623282,0.063475151637705
18.300768,14.915501480709322,0.0633663411475681
18.303164,14.888316375594252,0.0632522683589827
18.305552,14.86178289678524,0.0631424702149082
18.307932,14.837903145028706,0.0630323307988725
18.310336,14.81146221401831,0.0629383674826034
18.312724,14.78846640599331,0.0628459728716703
18.315108,14.760767548341173,0.0627774991647196
18.317504,14.737444979234208,0.0627099187905618
18.319892,14.714634266806442,0.0626499355029328
18.322272,14.692475180684736,0.062594604369952
18.324668,14.678556814974169,0.0625337582923834
18.327056,14.666920089263742,0.0624622758029752
18.329436,14.655655450605652,0.0624013017422857
18.331836,14.646113373440258,0.0623411636787689
18.334224,14.634289656274731,0.0622915281884906
18.336604,14.621255234295704,0.0622485792230047
18.339,14.605799402689676,0.0622191115626121
18.341392,14.592066132576347,0.0621906957595613
18.343772,14.580334963209436,0.0621574164567505
18.346168,14.572188686454773,0.0621233072126906
18.348556,14.564973575259891,0.0620882565970511
18.350936,14.554545658505097,0.0620646785846786
18.353332,14.547702634362553,0.0620404044649771
18.35572,14.537507035033238,0.0620306101925521
18.358104,14.530524241263834,0.0620092306500764
18.3605,14.527405879360405,0.0619813058219163
