Time,Force,Position
16.365932,10.229149248837857,0.1371930720531279
16.368328,10.417913206321472,0.1367473621373605
16.370716,10.581401611637824,0.1362926152228604
16.373096,10.72049840851844,0.1358602095943942
16.3755,10.840231511814553,0.135417018667649
16.377888000000002,10.933895771152612,0.13505411522878
16.380268,11.009080280637702,0.1346991685459575
16.382668,11.063084091389111,0.1343983699316091
16.385052,11.10000395269828,0.134129187377738
16.387436,11.123796844229808,0.1338750791743059
16.389832000000002,11.138140206394556,0.1336313967141947
16.392220000000002,11.148853349976685,0.1333669423047826
16.3946,11.159241628334712,0.1330670355255655
16.397000000000002,11.164881531095231,0.1327826655100677
16.399388000000002,11.169730037922838,0.1325031266884192
16.401772,11.17415923586986,0.132239240856639
16.404168000000002,11.18361634866811,0.131953592824209
16.406556000000002,11.196890671504091,0.1316630339238101
16.40894,11.212771499564305,0.131381695305297
16.411336000000002,11.23740490471486,0.1310525370707056
16.413724000000002,11.2682297077019,0.1307123487717416
16.416108,11.3073877788987,0.1303363535202175
16.418504000000002,11.350363060133231,0.1299534464282205
16.420892000000002,11.395293220285938,0.129577699084132
16.423276,11.437290114132448,0.1292267309677017
16.425672,11.484501914285293,0.128823290442682
16.428060000000002,11.533064188878493,0.1284032048025787
16.43044,11.580043671605855,0.1279872303415827
16.43284,11.625300592840526,0.1275825460566119
16.435228000000002,11.663387728850692,0.1272224235497757
16.437608,11.694305079636347,0.12690852511923
16.440008,11.721265450757416,0.1266060187411494
16.442392,11.74627094296031,0.1262985225117683
16.444776,11.77397738404392,0.1259535229789781
16.447172000000002,11.79758707583608,0.1256243893101145
16.44956,11.818962349456346,0.1252982885792662
16.451944,11.83717203934494,0.1249807417019877
16.454340000000002,11.849003339941946,0.1247018130636259
16.456728000000002,11.85766905680728,0.1244288788742272
16.459112,11.860468241060223,0.1242019919322327
16.461516,11.858751367141137,0.1240012461436598
16.463904,11.858384967662404,0.1237823196687956
16.466284,11.860951834489873,0.1235418823362769
16.46868,11.865660571690611,0.1232814828628985
16.471072,11.877446546317245,0.1229639082499351
16.473452,11.889651829824455,0.1226352501712239
16.475848,11.896270119972996,0.1223416205260514
16.478236,11.910384956428008,0.1219803104530412
16.480620000000002,11.921473978778208,0.1216203619931106
16.483016,11.937917677061598,0.121211150567571
16.485404,11.955851619412211,0.1207797750728767
16.487788000000002,11.975647892882382,0.1203381055205248
16.490184,11.993162526352414,0.1199213425997823
16.492572,12.006905275755088,0.1195518562508132
16.494956000000002,12.019018011463684,0.119208596958577
16.497356,12.030851207918555,0.1188745846597504
16.49974,12.04305649142577,0.1185522767253849
16.50212,12.06164016422457,0.1181963307672583
16.504524,12.089815031874872,0.1177798391537889
16.506912,12.121202705085093,0.1173352107531446
16.509292000000002,12.15245060866845,0.1168936525026906
16.511688,12.180765245945617,0.1164748544745803
16.514076,12.204563825050748,0.116079621073055
16.516456,12.226639842663184,0.1156922264409341
16.51886,12.24284932766323,0.1153468748052643
16.521248,12.254775071916722,0.1150393355800259
16.523628000000002,12.270425478409326,0.1147109756512837
16.526024,12.273783741169709,0.1144780410736201
16.528408,12.28324085396796,0.1142222642793408
16.530792,12.28734329083302,0.1140126264567305
16.533188,12.291026418817497,0.1138156222513013
16.535576,12.29363861161534,0.1136281283012901
16.537956,12.296111034786318,0.1134445689314167
16.540352000000002,12.299933932397655,0.1132436655355863
16.542740000000002,12.306969635568908,0.1130155075701451
16.545136,12.314517195419365,0.112795073913447
16.547532,12.32499802157601,0.1125566197356998
16.54992,12.333476746986236,0.1123331769268857
16.5523,12.334598695716856,0.1121689741289437
16.554696,12.335813192246093,0.1120245116561974
16.557084,12.338470711014304,0.1118822930059353
16.559464000000002,12.342711021648356,0.111738875533106
16.561864,12.35053622489466,0.1115805941230204
16.564248,12.362225860006932,0.1114004156037976
16.566632000000002,12.375638056611908,0.111215130493611
16.569028,12.39370608101577,0.1110067983702613
16.571416,12.411215026912194,0.1108149244263539
16.573796,12.441900060272374,0.1105546508003906
16.576192,12.470023914378697,0.1103252036292658
16.57858,12.506668028149884,0.1100518764034394
16.580976,12.545546560092966,0.1097818546938638
16.583372,12.586007883901884,0.1095118751288979
16.58576,12.631776661815753,0.1092244186024583
16.58814,12.679128231595454,0.1089372200465614
16.590544,12.728853989173912,0.1086510910423101
16.592932,12.779371142685289,0.1083657327461305
16.595312,12.828677591383164,0.1080949961460037
16.597708,12.87784427045418,0.1078293280022945
16.600096,12.930875381391171,0.1075434856352972
16.602476,12.984325801208744,0.1072479517027031
16.604872,13.044062062519288,0.1069109369713486
16.60726,13.101004827150494,0.1065874730310167
16.60964,13.161020627714754,0.106248066263938
16.61204,13.216752687532466,0.1059426799774517
16.614428,13.273276143283091,0.1056386476500907
16.616808,13.330218907914295,0.105326795314966
16.619204,13.389722851799364,0.1049906009816744
16.621592,13.439775370459785,0.1047006263407624
16.623972000000002,13.48759347094831,0.1044082920433808
16.626376,13.533409470690422,0.1041313155650536
16.628764,13.5747094122605,0.1038704246522997
16.631144,13.616009353830576,0.1036110047736129
16.633544,13.65586627316168,0.1033512486819784
16.635928,13.693721091746363,0.1031034101567494
16.638312,13.729573809584634,0.1028684583333426
16.640708,13.766916771490122,0.102617343238274
16.643096,13.801046927835696,0.1023882211289556
16.645476000000002,13.83410614899463,0.1021667263413121
16.647872,13.865442808660866,0.1019503844248484
16.65026,13.896779468327104,0.1017353667308271
16.652644,13.923180760940731,0.1015475971436694
16.655044,13.954517420606969,0.1013358368727132
16.657432,13.98278104434015,0.1011437500439086
16.659812,14.013466077700327,0.1009315877592725
16.662208,14.042428549567813,0.1007237227432345
16.664596,14.070320086248657,0.1005244234042387
16.666992,14.097000918116,0.1003368715048504
16.669388,14.125963389983484,0.1001321197508311
16.671776,14.16079239446336,0.0999015666999574
16.674156,14.195249311890894,0.0996631407196666
16.676560000000002,14.23492113562476,0.0993952180219508
16.678948000000002,14.274081102679432,0.0991219363705081
16.681328,14.310587342681629,0.098856785375814
16.683724,14.355381524923212,0.0985485179648742
16.686116000000002,14.399012224179542,0.0982313779719991
16.688496,14.440501053062595,0.0979291867730121
16.690892,14.485761766013,0.0975950607168877
16.69328,14.535445989336822,0.097233841764846
16.69566,14.587272083033922,0.0968620638444382
16.698068,14.638306780798102,0.0964919180611855
16.700452000000002,14.689760787442864,0.096113742165493
16.702836,14.739492232594932,0.095741517466441
16.705232,14.78656995069452,0.095376173277501
16.707620000000002,14.83350789916725,0.0950163025508643
16.71,14.884589818759672,0.0946372383231148
16.712396000000002,14.932878241672764,0.0942681991588927
16.714784,14.981865512720152,0.0938858007180514
16.717164,15.03313442376768,0.0934900640421349
16.719564000000002,15.075883075150342,0.0931245484208204
16.721952,15.111973797987696,0.0927828428354138
16.724332,15.14648172895921,0.0924426360889915
16.726728,15.17926709843803,0.0921057763475486
16.729116,15.21326317273035,0.0917611706736874
16.731496,15.236876656238248,0.0914519495848057
16.733896,15.260490139746146,0.0911434993848872
16.73628,15.280798269895516,0.0908365061515581
16.738664,15.299244068925322,0.0905359517605147
16.74106,15.31289427052938,0.0902527943475644
16.743448,15.32603261545424,0.0899645813841862
16.745832,15.338519334073045,0.0896734237276251
16.748228,15.351797448624762,0.08938384363528
16.750616,15.364563706497284,0.0890888212623727
16.752996,15.380682539556584,0.0887749848618377
16.755392,15.393356249630488,0.0884654055614393
16.75778,15.401513901532365,0.0881661338071998
16.760164,15.411022027874596,0.0878556206894467
16.76256,15.420250614963107,0.0875524589148423
16.764948,15.42468360462587,0.0872643493007871
16.767344,15.435402435781596,0.0869473009834592
16.76974,15.447983598056888,0.0866247285483976
16.772128000000002,15.4567003284662,0.0863145977603462
16.774508,15.467279389995072,0.0860003145455714
16.776908,15.475856350777525,0.0856941084352054
16.779296,15.48564401637348,0.0853792061663111
16.781676,15.497433782715849,0.0850577719348352
16.784072000000002,15.51522985129747,0.0847147981064477
16.78646,15.535587099132949,0.0843540982254028
16.78884,15.555432490289228,0.0839867412553854
16.791240000000002,15.572484384766174,0.0836270392241246
16.793628000000002,15.58902442256392,0.0832612217337164
16.796008,15.6011881718165,0.0829004138283163
16.798408000000002,15.607345618829823,0.0825606235844789
16.800796000000002,15.6087074684174,0.0822344106386044
16.803176,15.612071418751391,0.0819011313769883
16.805576000000002,15.616366534645165,0.0815660600904388
16.807964000000002,15.622523981658489,0.0812278651426914
16.810344,15.621883730499643,0.0809091285059655
16.812744000000002,15.628972343072752,0.0805695991965158
16.815132000000002,15.634990020459217,0.0802361768780488
16.817516,15.64450004265932,0.0798829022748279
16.81992,15.662809863778005,0.0795054168365467
16.822308,15.68219062008333,0.07912468178163
16.824688000000002,15.702362772321576,0.0787453551884236
16.827084,15.726911213104987,0.0783637876204543
16.829472,15.74866615720907,0.0779887681874941
16.831852,15.76520619500682,0.0776350428172028
16.834248,15.778114118364073,0.0773046017314727
16.836636000000002,15.798611135826407,0.0769593699744185
16.839016,15.817617909221529,0.0766271058660415
16.841412000000002,15.836205373736066,0.0763036861756296
16.8438,15.85744656530308,0.0759781770300442
16.84618,15.884554289482484,0.0756369769889789
16.848576,15.915386675901004,0.0752897502997603
16.850964,15.94528789675974,0.0749449195148977
16.853348,15.9742579520587,0.0746024437696851
16.855744,15.998432409931908,0.074271286985064
16.858132,16.02581967336503,0.0739261059237447
16.860528000000002,16.04547807306621,0.0736002619181162
16.862924,16.061923667207473,0.0732878711322913
16.865312,16.075808082094877,0.072993180510466
16.867692,16.078750827690417,0.072729376092412
16.870092,16.07503564474065,0.072478403888048
16.872476,16.071088144365408,0.0722150161830491
16.87486,16.061833189885213,0.0719547582285631
16.877256,16.053649170591658,0.0716902790412279
16.879640000000002,16.05068005760443,0.0714081419428576
16.882024,16.04864211017699,0.0711246397134018
16.88442,16.035662493457682,0.0708700284731309
16.886808000000002,16.025244055992232,0.0705987335089672
16.889188,16.01668794964634,0.0703248867615385
16.891584,16.010273713673723,0.0700434132234933
16.893972,16.001857376954693,0.0697673486580189
16.896368,15.99223033542216,0.0694982332803223
16.898764,15.984186085755464,0.0692321784872625
16.901152,15.977724627954608,0.068969232102158
16.903536,15.972985731646444,0.0687061202889151
16.905932,15.968107065711422,0.0684452981605287
16.90832,15.966953062015516,0.0681796233935147
16.910700000000002,15.967801159066022,0.0679087858409868
16.913096,15.970651356862945,0.0676331598056916
16.915484,15.975224116152566,0.0673568027440008
16.917864,15.985383868800854,0.0670732634605841
16.92026,15.994565234061126,0.066808932246556
16.922648,16.007051952679927,0.0665484443815139
16.925028,16.016186096111955,0.0663021073716259
16.927424000000002,16.020105333237648,0.0660726071267969
16.929812000000002,16.021231073684007,0.0658461027302062
16.932196,16.025290080436562,0.0656129089700071
16.934592000000002,16.02571697274862,0.0653990802352393
16.936980000000002,16.024281533941117,0.0651875066512258
16.939364,16.017631188827284,0.0649919196237052
16.941760000000002,16.01191200927323,0.0647952825709766
16.944148000000002,16.004330498599625,0.0646004563963902
16.946544,15.995166196060175,0.0644021891957974
16.94894,15.981346065721835,0.0642084025567066
16.951328,15.968736640196996,0.0640080831018518
16.953708,15.958780941724632,0.063807535924821
16.956108,15.941887775453242,0.0636210350384684
16.958496,15.925134378808712,0.0634316912483537
16.960876,15.905307946231124,0.0632502374731986
16.963276,15.88897385846717,0.0630521700568978
16.965664,15.867704403650606,0.0628634614893183
16.968044,15.843781221781567,0.0626740446860263
16.970444,15.8129205721135,0.0624982083256229
16.972832,15.78699528949804,0.0623123003888525
16.975216,15.758648597255586,0.0621383014586114
16.977612,15.731093300946052,0.0619655137935846
16.98,15.704608939823157,0.0617886085390258
16.98238,15.679335283513756,0.0616047672227207
16.98478,15.652990692017722,0.0614239368397104
16.987164,15.628648201268105,0.0612381693957756
16.989548,15.603095005704985,0.061058362956436
16.991944,15.576191335701504,0.0608869599276225
16.994332,15.547937191257668,0.0607240112604352
16.996716,15.520334673119889,0.0605649989070415
16.999112,15.49045051498197,0.0604152862477797
17.001496,15.458564256097636,0.0602695395762857
17.00388,15.436408961691669,0.0601077303435466
17.006276,15.40969038728542,0.0599648634267856
17.008664,15.38576530955851,0.0598195530317218
17.011048,15.36034998776438,0.0596855709490943
17.013444,15.34066142895578,0.0595443040130885
17.015836,15.326559863505851,0.0593986334685161
17.018216,15.320326931414732,0.0592388647086433
17.020612,15.307668388203778,0.0590995070997083
17.023004,15.29822265055274,0.0589494145450749
17.025384,15.29184994883476,0.0587917027788112
17.02778,15.286920269355754,0.0586409776764349
17.030168,15.284364777675504,0.0584965240026075
17.032552,15.282041603420728,0.0583649898566328
17.034948,15.279299120285373,0.058241616097808
17.037336,15.27548570196338,0.0581214414324108
17.039716000000002,15.274885089201304,0.0579909159607586
17.042116,15.27200283643909,0.057869507924146
17.044504,15.277268756289406,0.0577296454646747
17.046884000000002,15.283046532818917,0.0575972969788322
17.049284,15.288684539721569,0.0574676662491995
17.051672,15.287245309198331,0.0573533832380838
17.054052,15.289810280167927,0.0572309723277692
17.056452,15.28851081927155,0.0571135553040481
17.05884,15.28893391986787,0.056997821657309
17.06122,15.287215150090914,0.0568889306180664
17.06362,15.280840552515064,0.0567827278663746
17.066008,15.271392919006155,0.0566836858355467
17.068392,15.266229026243806,0.0565712229057411
17.070788,15.261996299041234,0.0564581779134543
17.073176,15.255342162211663,0.0563572066191322
17.075556,15.244823593516124,0.0562608938066858
17.07796,15.230720132208328,0.0561636839357598
17.080344,15.218246684594613,0.0560520549363516
17.082724,15.205401149928557,0.0559295845260922
17.085128,15.19148468007586,0.05580998053746
17.087516,15.177288670969448,0.0556958293780389
17.089892,15.168167798542507,0.055570752637406
17.092296,15.14847734387604,0.0554752225533577
17.09468,15.13027713327679,0.0553679911872305
17.097064,15.11300808823732,0.0552601552087008
17.09946,15.098951848757768,0.0551423776347263
17.101844,15.083173047785516,0.0550224858353705
17.10424,15.069396347559682,0.0548985895877179
17.106636,15.053757316214291,0.0547754817222651
17.109024,15.032903378562573,0.0546652767957157
17.111404,15.012421527963186,0.0545654505579462
17.1138,14.99179990773694,0.0544682199377017
17.116192,14.972109453070477,0.0543704596885114
17.118572,14.95120829359051,0.0542785150928757
17.120968,14.928444802990988,0.054187102841354
17.123356,14.9096855138843,0.0540882819888003
17.125736,14.894790656643586,0.0539848751760053
17.128140000000002,14.876822763469816,0.0538879077908123
17.130528,14.858947418094663,0.0538071240521954
17.132908,14.847078374958762,0.0537156317094323
17.135304,14.832415835143523,0.0536249912698349
17.137692,14.816682360141646,0.0535374557299115
17.140072,14.805232625886328,0.0534369703537073
17.142476000000002,14.79043031644423,0.0533485419073302
17.14486,14.775907546255851,0.0532543735364898
17.147244,14.75896336644048,0.0531719206874735
17.14964,14.745464309610496,0.0530937113225389
17.152028,14.730754547967017,0.0530212301838865
17.154408,14.716184555950395,0.0529457436954512
17.156812000000002,14.708179944680468,0.0528484665788626
17.159196,14.702876282291257,0.0527335268423668
17.161576,14.70092519508882,0.0526065447611761
17.16398,14.694178510460633,0.052483565851801
17.166368000000002,14.687571595459309,0.0523576090048394
17.168748,14.684037716391035,0.0522249685037819
17.171144,14.677570571016568,0.0520958670614732
17.173532,14.670032490455462,0.0519699115979218
17.175912,14.66607930250661,0.0518456425475659
17.178316,14.666409855304313,0.0517093187470235
17.180704,14.663807141795818,0.0515768310681211
17.183084,14.665720486459357,0.0514459891975094
17.185480000000002,14.666702665563117,0.0513153420725458
17.187864,14.668755779853514,0.0511816726441125
17.190248,14.677094735636883,0.0510328905131721
17.192644,14.683152051420116,0.0508928578831156
17.195032,14.693353338323046,0.0507437593707323
17.197412,14.701040667800354,0.0505898189562806
17.199808,14.710590328397222,0.0504353955850725
17.202196,14.721722780859928,0.0502863715018321
17.204592,14.733506859628688,0.0501433433939755
17.206988,14.745942564703508,0.0500061238667593
17.209376,14.753954759404916,0.0498835021433078
17.211756,14.764620681158796,0.04976299092818
17.214152000000002,14.77249310623334,0.0496425697347616
17.216540000000002,14.779154826494388,0.0495278761687371
17.218924,14.786747712315211,0.0494129550967136
17.221320000000002,14.791686871083565,0.0492954212275464
17.223704,14.793041137239662,0.049175349768617
17.226088,14.786666539663813,0.0490614356331293
17.228484,14.77493726615477,0.0489616151819597
