Time,Force,Position
16.39852,9.59899588717997,0.1455071822625168
16.400908,9.716209345476862,0.1452059663277462
16.403288,9.818994477241866,0.1448399521537037
16.405684,9.906512664713816,0.1444519314222313
16.408076,9.97899622531819,0.1440560190259117
16.410456,10.04058913017468,0.1436029762176725
16.412852,10.085470172641276,0.1432163986328058
16.41524,10.119458663502122,0.1428503955900971
16.41762,10.15093509279522,0.1424287565795098
16.420016,10.174777102012856,0.142034249210107
16.422404,10.193591196379266,0.1416731609914159
16.424788,10.21082249887984,0.1413214311283416
16.427184,10.232058002873243,0.1409291744056867
16.429572,10.255667694665402,0.1405327744527706
16.431968,10.279462482054797,0.1401829487230445
16.434368,10.308797040974616,0.1398125495321945
16.436756,10.341529501051587,0.1394442756899263
16.439136,10.375797531166151,0.1390987900967819
16.441532000000002,10.414813936878224,0.1387334516602033
16.443920000000002,10.45699592632197,0.1383567623624519
16.4463,10.504625139497524,0.1379367399654799
16.448696,10.548762007859445,0.1375682424702359
16.451084,10.589686070661449,0.1372409685278122
16.453468,10.626605931970618,0.1369574378349353
16.455868000000002,10.662362310294528,0.136665213592052
16.458252,10.690529594513354,0.136443840338563
16.460636,10.716462460560289,0.1362273149752954
16.463032000000002,10.740300678062184,0.1360095749504587
16.46542,10.753896074406525,0.1358801168721711
16.467804,10.7704719588853,0.1356965013242838
16.470200000000002,10.786815525938596,0.1354962127062371
16.472592000000002,10.799853739633363,0.1353122356426513
16.474972,10.807165190342602,0.1351801660476813
16.477368000000002,10.807399403625949,0.1351213577767019
16.479752,10.80619059467032,0.1350628906961573
16.482136,10.804981785714688,0.1350045995305336
16.48454,10.809639509371449,0.1348919220092277
16.486928,10.815740255267183,0.1347793306303416
16.489308,10.82249262746898,0.1346692153023131
16.491704000000002,10.828825690790191,0.1345740073755044
16.494092000000002,10.834459905977106,0.1345035315498819
16.496472,10.842328539335911,0.1344302466414932
16.498868,10.853782065306971,0.1343326879791996
16.501256,10.866166756837814,0.1342274945797175
16.50364,10.879203074674708,0.134124962235296
16.506036,10.896103824377578,0.1339881909280527
16.508424,10.911282012587751,0.1338613277326485
16.510808,10.928602071171204,0.1337108096768842
16.513204,10.95020587050121,0.1335120410005888
16.515592,10.96659476352488,0.133370045088021
16.517972,10.982983656548551,0.1332286827010852
16.520368,11.00109511106492,0.1330778263574764
16.522756,11.019858191887348,0.1329291164852434
16.525152000000002,11.04062337345619,0.1327605389799931
16.527552,11.064833678010425,0.1325735435374432
16.529936,11.086482803310805,0.132425343775318
16.532320000000002,11.103848187864628,0.1323257777063742
16.534716,11.118280306112258,0.1322522921087116
16.537104,11.132852193986748,0.1321742883528859
16.539484,11.148634786674736,0.1320802047452309
16.54188,11.16204319156397,0.1319932048623653
16.544268000000002,11.179223480520564,0.1318530636355192
16.546648,11.19416935130526,0.1317158662285807
16.549044000000002,11.21367850209023,0.1315241945200117
16.551432000000002,11.232396256942286,0.1313351191672051
16.553816,11.24860005436872,0.131157773058792
16.556212000000002,11.269599449220909,0.1309427250103246
16.558600000000002,11.290459074446238,0.1307338438216279
16.56098,11.307966124484793,0.1305641314707596
16.563376,11.32947737601618,0.1303590766919913
16.565764,11.346844656427876,0.1301940683237932
16.568160000000002,11.364491476093288,0.1300205154481538
16.57056,11.387353202065036,0.1297968943130955
16.572944,11.41314819434298,0.1295499695354891
16.575328,11.437220625128225,0.1293131328244089
16.577724,11.464785400727106,0.1290349173930556
16.580112,11.49956718337874,0.1286917954869474
16.582492000000002,11.5395638723367,0.1282999569368622
16.584888,11.583704532414355,0.127873066523909
16.587276,11.628776358051796,0.1274431939450332
16.589660000000002,11.678643781114982,0.1269799549367574
16.592056,11.724879089737671,0.1265653943734495
16.594444,11.772697190226197,0.1261492851828106
16.596828000000002,11.816883176274228,0.1257814411424029
16.599224,11.86600452937487,0.1253780861634302
16.601612,11.919781710274403,0.1249472947505673
16.603992,11.97276749524102,0.1245235441895966
16.606392,12.023890949088075,0.1241132289095666
16.60878,12.077715351815858,0.1236664064382756
16.61116,12.1287462578643,0.1232398723701609
16.61356,12.188484415032711,0.1227309430665634
16.615948,12.249293507387762,0.1222153701330288
16.618328,12.30651770713056,0.1217242751106547
16.620724,12.364440755007658,0.1212178708075832
16.623112,12.423993816578834,0.1206888304932968
16.625496000000002,12.485176891844093,0.1201406632711693
16.627892,12.537327850765283,0.1196430958115065
16.63028,12.587104621887724,0.1191538360203235
16.632664000000002,12.63329650039791,0.1186864641112283
16.63506,12.67818512629598,0.1182167281703641
16.637448,12.719488859581796,0.1177666479758252
16.639832000000002,12.76097958432272,0.1172909359471205
16.642228,12.802237991638162,0.1168032209065965
16.644616,12.844474786341626,0.116289676403797
16.647000000000002,12.882614831753642,0.1157897817150149
16.649396,12.918660228620622,0.1152890904509691
16.651784,12.950329336942431,0.1148067268274331
16.654168000000002,12.982976832652264,0.1142984112945505
16.656564,13.015624328362094,0.1137926032456097
16.658952,13.051764168885562,0.113256063023212
16.661336000000002,13.085110512729692,0.1127393519617775
16.663732,13.117153603961707,0.1122190735669405
16.66612,13.14561180258147,0.1117136875859058
16.668504000000002,13.17155604377562,0.1112175430249016
16.6709,13.196848658663708,0.1107214024950103
16.673292,13.21576288426021,0.110254581955963
16.675672000000002,13.236679210603128,0.1097747981570447
16.678076,13.254150413960655,0.1093054493094452
16.680464,13.26738509839987,0.1088464650729238
16.682844,13.277034890226831,0.108401210018721
16.68524,13.288314695747877,0.1079341385022053
16.687624,13.298803105336,0.1074682675467642
16.690004000000002,13.31064198936448,0.1069893400636238
16.692408,13.32490228301996,0.1064902600908975
16.694796,13.33823141111566,0.1059961456197295
16.697176,13.351700308838222,0.1055004625208139
16.69958,13.370384112867116,0.1049719482501984
16.701964,13.38878837764229,0.1044521970006777
16.704344,13.406401246484547,0.1039342671659841
16.706752,13.420801309766889,0.1034410401144908
16.709136,13.432128337116168,0.1029678718767649
16.71152,13.444386530025236,0.1024924107311963
16.713912,13.459577989240492,0.1020019542395519
16.7163,13.473139434761672,0.101533739292551
16.71868,13.484139701028992,0.101091678287292
16.721076,13.497514155095066,0.100649319847098
16.723464,13.51088860916114,0.1002072523392615
16.725844000000002,13.52691679027969,0.0997579367510122
16.72824,13.549602899943547,0.0992809703960631
16.730628,13.57736414628688,0.0987768508576891
16.733024,13.602052356697154,0.0982916924033614
16.735416,13.628602898226983,0.0978011863823184
16.737804,13.65166109494318,0.0973405482179627
16.740184,13.667222745352904,0.0969293194701839
16.74258,13.685298353188246,0.0965163279027968
16.744964,13.701883716956363,0.0961220149043008
16.747348000000002,13.711112304044876,0.0957723362008997
16.74974,13.72034089113339,0.0954233679484286
16.752128,13.729429708595042,0.0950785177933962
16.754524,13.741219474937408,0.09470790333903
16.75692,13.756082277212831,0.0943220466876274
16.759308,13.76987414430162,0.0939440146081566
16.761688,13.78645950806974,0.0935585111204743
16.764084,13.806397447024638,0.0931513655382691
16.766472,13.8235418893002,0.0927522959268086
16.768852,13.840406792322042,0.0923607065002977
16.771256,13.8597856527695,0.0919680559101745
16.77364,13.885682672135404,0.0915580309110108
16.776024,13.907947577060812,0.0911788763872691
16.77842,13.926021289038284,0.0908428821022046
16.780808,13.946608958441372,0.0905055439550708
16.783188,13.96477521821746,0.0901880443766038
16.785584,13.98294147799355,0.0898706496452729
16.787972,14.006834500755168,0.0895331339329613
16.790368,14.026723322023951,0.0892141429412343
16.792764000000002,14.04661214329274,0.0888957845247968
16.795152,14.073158893106832,0.0885551575141574
16.797536,14.10207983071968,0.0882180255675001
16.799932000000002,14.13114053795939,0.0878787015390132
16.802316,14.154007951504743,0.0875897220715407
16.8047,14.172312085049825,0.0873317872778226
16.807096,14.1911280752741,0.0870819196707197
16.809484,14.20701079919218,0.0868444299793494
16.811864,14.218470012736848,0.0866340761640938
16.81426,14.238868794826962,0.0863884914678645
16.816648,14.260338512103717,0.0861378289707389
16.819032,14.281947999007327,0.0858853932010621
16.821428,14.294757686992355,0.0856662855384431
16.823816,14.306775979044463,0.085446478494738
16.826196,14.319632888857734,0.085207203986919
16.828592,14.332489798671004,0.0849687011620375
16.83098,14.349071370723388,0.0847213140596082
16.833376,14.36551317314891,0.0844771836886559
16.835776,14.380092644454876,0.0842386111123296
16.838164,14.39560328132062,0.0839974891563093
16.840544,14.410834378932645,0.0837631042728619
16.842940000000002,14.422061275051838,0.0835450377425223
16.845328000000002,14.425559307439082,0.0833516853805874
16.847708,14.429010117998082,0.0831785789058328
16.850108000000002,14.43474256855722,0.0829908460567398
16.852496000000002,14.43954385355658,0.0828048331499971
16.854876,14.442203268182665,0.0826299422655096
16.85728,14.444163834674445,0.0824711437348714
16.859668,14.449849063405338,0.082303289046699
16.862048,14.452041947322597,0.0821591010218771
16.864452,14.45088225605308,0.0820342850565806
16.86684,14.447301155156564,0.081926768724095
16.869220000000002,14.442509349446553,0.0818275080028418
16.871616,14.44037127078901,0.0817248431626868
16.874004,14.440607379930226,0.0816251903719592
16.876384,14.44163488500436,0.0815267856825016
16.87878,14.442802159705352,0.0814257185232289
16.881168000000002,14.445552226272184,0.0813267095206378
16.883548,14.45081625026463,0.0812279223462745
16.885944000000002,14.460456562802248,0.081125215017641
16.888332000000002,14.469025940153225,0.0810277131567709
16.890712,14.479597418250618,0.0809230968845276
16.89312,14.49817729933368,0.0807895553114848
16.895504,14.517456028551043,0.0806408785965129
16.897888000000002,14.539947563328324,0.0804773061986111
16.900284,14.567654004411931,0.080291454192726
16.902672,14.596431380682182,0.0801005530100437
16.905052,14.623625965086596,0.0799073401955715
16.907448000000002,14.648166822438537,0.0797176095784695
16.909836000000002,14.6688432479245,0.0795392001819399
16.912216,14.6930120182241,0.0793395056497476
16.91462,14.714527061471228,0.0791424392615872
16.917008,14.738975371024548,0.0789360022010026
16.919392000000002,14.761840888712031,0.0787281003631289
16.921788,14.786336420093596,0.0785042858754655
16.924176,14.807898685168968,0.0782898899928461
16.926556,14.824385813564865,0.07809479647458
16.928952000000002,14.837148279721646,0.077907206528696
16.931340000000002,14.844044213266042,0.0777373415066065
16.93372,14.846563858265265,0.0775713297796092
16.936116000000002,14.848431876958427,0.0774008499981096
16.938504000000002,14.848297794905172,0.0772373058413663
16.940884,14.8466734687847,0.0770884136631244
16.94328,14.840905171544536,0.0769559604404721
16.945668,14.832855234304231,0.0768364554929817
16.948064000000002,14.819450621130738,0.0767411951559827
16.95046,14.8061857775841,0.0766428068694418
16.952848,14.796925135530298,0.0765310230468002
16.955228,14.786453788663,0.0764269045196169
16.957624,14.779055477728754,0.0763112193265706
16.960012,14.768164821980877,0.0762159946734939
16.962396000000002,14.765142799591802,0.0760975169972057
16.964792,14.762120777202728,0.075979059348071
16.96718,14.757888050000156,0.0758683603063836
16.969564000000002,14.748812503543586,0.0757888711361616
16.97196,14.7394574178333,0.0757153183905388
16.974352,14.73224420249629,0.0756321400677249
16.976732000000002,14.73103728939853,0.0755295383506697
16.979132,14.731832477047186,0.0754202063817108
16.98152,14.733279291001905,0.075315178609522
16.983904,14.73737983200909,0.0752080244728468
16.9863,14.742551308202918,0.0750961595352858
16.988684,14.742415330291797,0.0749883971005108
16.991068000000002,14.747494258687006,0.0748600644190143
16.993464,14.75043131670894,0.0747410441559795
16.995852,14.7615165473434,0.0745937315476377
16.998232,14.771530842791226,0.0744511876676591
17.000632,14.778332332679131,0.0743229345252297
17.00302,14.791419664060008,0.0741701630046405
17.0054,14.802784433948188,0.0740179293190346
17.007796,14.818572714209786,0.0738444154859931
17.010184000000002,14.827423526672352,0.0736917607884103
17.012564,14.838416209508198,0.0735303839146127
17.014964,14.848757266037984,0.0733644966311935
17.017348000000002,14.858726235515434,0.0731879540269867
17.019744,14.872327319433378,0.0729891585443338
17.02214,14.883926302604904,0.0727964138818491
17.024524,14.89380272428374,0.0726046579970717
17.026908000000002,14.905588698910371,0.0723908099055786
17.029304,14.9210067879775,0.0721555076619781
17.031692,14.940568848164322,0.0719068277776148
17.034072000000002,14.961341613164642,0.0716514834928323
17.036464000000002,14.98891207633713,0.0713805225286052
17.038852000000002,15.013409503576566,0.0711205158343447
17.041248,15.042470210816274,0.0708377321543536
17.043644,15.065804155070452,0.0705677337775862
17.046032,15.090348804138127,0.0702907654429896
17.048412,15.118385798019442,0.0699958756145018
17.050808,15.140276720034644,0.0697217037184408
17.053196,15.162819268355904,0.0694522078355756
17.055576000000002,15.184290881490526,0.0691880728353878
17.05798,15.206833429811784,0.0689195259240073
17.060368,15.225511546267072,0.0686595094612301
17.062748,15.248565951267528,0.0683993852085314
17.065148,15.272831061081485,0.0681322307267941
17.067532,15.293743595708666,0.0678810887730991
17.069916,15.31880010145554,0.0676168055911131
17.072312,15.343577067948694,0.067359185930695
17.0747,15.368446582240468,0.0671183857483421
17.077080000000002,15.387030255039267,0.0668995746940259
17.079476,15.39895599929276,0.0666926759018826
17.081864,15.411673139479168,0.0664882376486539
17.084244,15.42210863966544,0.066295331846358
17.086644,15.44055254283738,0.0660835300179109
17.089028,15.457134114889762,0.0658747849472963
17.091424,15.477719888434978,0.0656570066305079
17.09382,15.50244963309989,0.0654279732437355
17.096208,15.52517727701838,0.0652047369893488
17.098588,15.549115625750376,0.0649748799431613
17.100984,15.573473283362947,0.0647371688794434
17.103372,15.597039545042604,0.0644984077841819
17.105752,15.6228874467224,0.0642500312768495
17.108148,15.654881420268302,0.0639860266370182
17.110536,15.683709810082531,0.0637157503598304
17.112928,15.718264962882296,0.0634388487920551
17.115324,15.751237323816222,0.0631580520010745
17.117712,15.784349454377004,0.0628761704765395
17.120092,15.816949728258592,0.0625879273156264
17.122496,15.84917791508784,0.0622905339511438
17.124884,15.886481238596565,0.0619812274327904
17.127264,15.923924331732144,0.0616692260383477
17.129668000000002,15.958853467442111,0.0613553557398216
17.132056000000002,15.992758889793684,0.0610277506282206
17.134436,16.012929146174056,0.060725201537621
17.136836000000002,16.034030568114215,0.0604228177083702
17.13922,16.054480363748308,0.0601176141098716
17.141604,16.069063626770014,0.0598230417546082
17.144000000000002,16.085648990538136,0.0595253571755945
17.146388,16.10572669911989,0.0592133378592034
17.148772,16.12608394695537,0.05889676096238
17.151168000000002,16.147791669231207,0.0585726479637087
17.153556000000002,16.166985434081425,0.0582457740053071
17.15594,16.17980080964006,0.0579213915351723
17.158336000000002,16.19382689001219,0.0575917210232331
17.160724000000002,16.20054341553296,0.0572647444754741
17.163104,16.213545782546692,0.056922217574055
17.165504000000002,16.22124069545548,0.056577746348597
17.167892000000002,16.226281881311795,0.0562320406345906
17.170276,16.229740275302273,0.0558821845002849
17.172672000000002,16.2273793585086,0.0555223124188671
17.175060000000002,16.22436681540887,0.0551569651066461
17.17744,16.218840314883526,0.0547869345465573
17.179836,16.21038054805199,0.0544198932496625
17.18222,16.205692665287806,0.0540314210902997
17.1846,16.194346853978313,0.0536471193567543
17.187,16.170848668563462,0.0532834383585828
17.189388,16.143486051282636,0.0529219174080059
17.191768,16.106532239150305,0.0525672883135496
17.194164,16.060499088845674,0.05222693604175
17.196552,16.008599405928646,0.0518917063761376
17.198932,15.94654944965268,0.051572713948996
17.201336,15.879144817443516,0.051265678518324
17.20372,15.806245739674305,0.0509729416260856
17.206104,15.72491895003884,0.0506983560834875
17.2085,15.63716654928355,0.050438293243932
