Time,Force,Position
3.3090519999999994,5.538602530499288,0.1557418771904216
3.311456,5.598886495170055,0.1551949103490949
3.313839999999999,5.63775744368166,0.1548062293626367
3.361623999999999,5.5987977390871775,0.1547660301261769
3.364011999999999,5.605408445804242,0.1546839094943839
3.366387999999999,5.612485683230132,0.154521374500603
3.368784,5.619749912111124,0.1543001508713764
3.371172,5.622450860991842,0.1542074339253122
3.373567999999999,5.636558114015377,0.1539454195464452
3.375964,5.659045857076916,0.1535374759365515
3.378347999999999,5.682279670101001,0.1530295049630256
3.3807319999999983,5.699322085288601,0.1525747861160855
3.3831359999999986,5.721719176409392,0.1520046491105434
3.38552,5.743509967194501,0.1515231056746172
3.387903999999999,5.77363402618937,0.1509460158804722
3.3903,5.800824818878045,0.1504189113727721
3.392688,5.830344473395099,0.1497780339862258
3.3950679999999984,5.852834112314509,0.1492426311788777
3.397464,5.87983980940595,0.1486447596568832
3.399851999999999,5.913456213214456,0.1479818988873633
3.402232,5.955033798180386,0.1472108362372721
3.4046319999999994,5.995959756840258,0.1464409009952733
3.40702,6.030135239156205,0.1457463010624523
3.4094,6.061796764046536,0.1450832429984595
3.4117999999999995,6.097043181549122,0.1443757732406639
3.414188,6.130519815730768,0.143742874901153
3.416568,6.157710608419443,0.1432453930096518
3.4189719999999983,6.186531414802197,0.1426861546312946
3.4213559999999994,6.2046900911468095,0.142326687525841
3.4237399999999987,6.214980134132613,0.1421166132397833
3.426136,6.230158322342787,0.1418674405772058
3.4285239999999995,6.246127906485878,0.1416132891249136
3.430903999999998,6.252646065404326,0.1415141184871097
3.433299999999999,6.261632855778016,0.1413063741182715
3.435687999999999,6.266243357606533,0.1411522152298036
3.438084,6.278303183913278,0.1408865323534594
3.440484,6.289943701339442,0.1406478685418699
3.4428719999999995,6.305216333206101,0.1403161052182461
3.445251999999998,6.31625244615445,0.1400316908402065
3.4476439999999986,6.323191809811346,0.1397839489260395
3.4500319999999984,6.3224023097362965,0.1396602346573064
3.452411999999999,6.322543975221027,0.1395235829688709
3.454815999999999,6.328831712571869,0.1392739012054246
3.4571999999999985,6.336749463616789,0.1389701129903948
3.4595839999999995,6.339219990929899,0.1387374621758677
3.4619799999999987,6.339828187123452,0.1385300996637114
3.464364,6.345651289623338,0.1382221817915266
3.4667439999999985,6.3513346224963625,0.1379233909173974
3.469147999999999,6.360650069809884,0.1375328793086283
3.471535999999998,6.373038553056462,0.1370848506525089
3.473915999999999,6.379700273317508,0.1367277354743475
3.4763119999999983,6.385011519138197,0.1364084510970242
3.4787,6.394838823130916,0.1360318687585051
3.4810799999999986,6.397960976750084,0.1358007546928581
3.4834799999999984,6.404435705556027,0.1354977833089624
3.485867999999998,6.404532045070382,0.1352779149382685
3.4882479999999987,6.40369721902496,0.1350707885111751
3.490644,6.402443084098957,0.1348894471214773
3.4930319999999995,6.3990470787996765,0.1347499988152755
3.495427999999998,6.394160829433176,0.1346565845364506
3.497831999999999,6.400356018985399,0.134375411801891
3.500215999999998,6.4062716692839015,0.1341120225102966
3.5025959999999987,6.411628241074964,0.1338837318668037
3.504999999999999,6.415774108052525,0.133684944195006
3.507387999999999,6.421922075776506,0.1334532325349454
3.509768,6.431003309806681,0.13317610720638
3.512172,6.439525465329416,0.1329329364056799
3.514555999999999,6.446976685665512,0.1327099767818977
3.5169359999999994,6.452797892307528,0.1325397132707427
3.5193319999999986,6.4575481637629055,0.1323900761562534
3.5217199999999984,6.460296334471866,0.1322717136195107
3.524099999999999,6.465186375554104,0.1321125969827544
3.526496,6.464070114397092,0.1320510996919874
3.528879999999999,6.467097824359773,0.1319147417291516
3.5312639999999984,6.465841793575902,0.131861215763441
3.5623239999999985,6.419387438532818,0.1317279323750467
3.5647079999999995,6.414314197711216,0.1316850669985186
3.5671039999999987,6.407518395396916,0.1316577958450766
3.5695,6.406868664948726,0.1315271598324437
3.5718879999999995,6.406638243381118,0.131372855025923
3.5742679999999982,6.414695764052899,0.1310772045670352
3.5766719999999985,6.425826320657734,0.1307334112493397
3.5790599999999984,6.439890143568764,0.1303465450149623
3.581439999999999,6.452231404987099,0.1299788638576615
3.583836,6.464852205659153,0.1295973189797068
3.586224,6.479335337450764,0.1291916373587854
3.5886039999999984,6.495960339615652,0.1287504746272611
3.591007999999998,6.514727212153817,0.1282717845033969
3.5933959999999985,6.537498286184816,0.1277287170678086
3.595775999999999,6.559617733909756,0.1271807106626236
3.59818,6.580666246448058,0.1266519315184234
3.600567999999999,6.602506154919278,0.1261190371550504
3.602948,6.62476537227108,0.1255665733869781
3.605343999999999,6.64632574148858,0.1250576258362556
3.607731999999999,6.670959146639135,0.1245026205093698
3.610111999999999,6.692379746229775,0.1240054443527305
3.6125079999999983,6.713520806566693,0.1235273312570981
3.614896,6.738666068396447,0.1229920392727181
3.617275999999999,6.760878063920005,0.1225017315085156
3.619672,6.781879354630065,0.1220404330169689
3.62206,6.798876443847291,0.1216413230363444
3.62444,6.810658626758183,0.1213249733539843
3.626835999999999,6.823511744855715,0.1209934176055769
3.629223999999999,6.836225093326387,0.1206716809412164
3.63162,6.846936341050642,0.1203779135348568
3.634015999999999,6.859789459148174,0.1200509913216832
3.636403999999999,6.86942977168579,0.1197769811386553
3.638784,6.880420558663766,0.119473858932775
3.64118,6.890200640828241,0.1191949160964473
3.643564,6.902913989298912,0.1188812923004953
3.645947999999999,6.917489668889142,0.1185490049292886
3.648351999999999,6.934346988479507,0.1181778291055236
3.650739999999999,6.948503359189154,0.1178698579272859
3.653115999999999,6.962939269152521,0.1175489564767066
3.655519999999999,6.9740226039291136,0.1172860321166286
3.657907999999999,6.984314542772787,0.1170235156146275
3.660288,6.988600179377212,0.1168378054756324
3.662695999999999,6.990464406354637,0.116700943216585
3.66508,6.991117928518565,0.1165880105090049
3.6674599999999984,6.992143537734829,0.1164950876192092
3.669863999999999,6.992889607697373,0.1164168268217193
3.672252,6.999921519152887,0.1162468716401071
3.674631999999999,7.005091099488846,0.1160963458700022
3.677027999999998,7.007979039824667,0.1159859349303038
3.679416,7.014591642399601,0.1158396123660043
3.681796,7.019062374601259,0.1157264446085186
3.684192,7.024604041989556,0.1155969157074019
3.6865799999999993,7.026373825310495,0.1155449586376071
3.68896,7.032008040497408,0.1154503935896034
3.691355999999999,7.0373627164306,0.115371072899527
3.693743999999999,7.04485926273707,0.1152613476074783
3.6961239999999993,7.052727896095877,0.1151723303604994
3.698528,7.06394910464146,0.1150301957176627
3.700916,7.072888673186905,0.1149260398496085
3.703296,7.086251752105766,0.1147543919988041
3.705691999999999,7.104550198077238,0.1145277269480275
3.708079999999999,7.131927982221015,0.1141904935213877
3.71046,7.163589507111347,0.113796079925159
3.712855999999999,7.198324067934735,0.1133646611512808
3.7152439999999984,7.232686541705785,0.1129149944618332
3.717628,7.270261821036751,0.1124243685898906
3.720023999999999,7.302482424434525,0.1120125918165022
3.722408,7.333492323018799,0.1116223509755434
3.724791999999999,7.364641991229933,0.1112232547375411
3.727187999999998,7.391927227575094,0.1108652899385022
3.729576,7.420423168733754,0.1104871472379685
3.731971999999999,7.448919109892413,0.1101096727928981
3.734368,7.47983646067807,0.1096890987314883
3.736756,7.508100084411252,0.1092892367359905
3.7391359999999993,7.532499276278461,0.1089280421167394
3.741532,7.550752396279559,0.1086415008495939
3.7439199999999992,7.560904565496374,0.1084110257904225
3.7463,7.567983698780132,0.1082182647985447
3.7487,7.5793465728104445,0.107968319452331
3.751083999999999,7.587356871653982,0.1077700304431479
3.753468,7.5933650697511,0.1075951944898058
3.755863999999999,7.596579771168884,0.107444591227151
3.7582479999999983,7.593276313668221,0.1073461258222442
3.760643999999999,7.588250294674861,0.1072558650560524
3.7630399999999984,7.58429521086814,0.1071518427843106
3.765427999999998,7.573123120008669,0.1071307207422532
3.7678119999999993,7.564372438776196,0.1070690925259094
3.7702079999999984,7.558834563103638,0.1069663983536187
3.772592,7.558511593737415,0.1068027494889943
3.774971999999998,7.560749803625047,0.1065931274711946
3.777376,7.564198718326179,0.106365005976321
3.7797639999999983,7.568439028960229,0.1061367151501001
3.782143999999999,7.5730986484748595,0.1058906154053852
3.78454,7.575756167243072,0.1056640495670237
3.786928,7.579624390824784,0.1054171564425333
3.7893079999999983,7.583632384033356,0.1051617510336304
3.791711999999999,7.5952294713470145,0.1048427241064303
3.794096,7.608177033101032,0.1044973296919029
3.7964759999999984,7.617260162989078,0.1041879680254248
3.798872,7.622898169891729,0.1038919709317423
3.801259999999999,7.627884550488322,0.1035908481906506
3.80364,7.63072906071164,0.1033166860530354
3.806035999999999,7.634876823547072,0.1030531859864616
3.808423999999999,7.638605277501924,0.1028092664862215
3.810808,7.640983257016415,0.1025920323961122
3.813203999999999,7.650578243583658,0.1022944244947572
3.815587999999998,7.6561690286580655,0.1020367529901567
3.817983999999999,7.656824446679862,0.1018261161761219
3.8203799999999983,7.648680065783074,0.1016958991463199
3.822764,7.639045440819065,0.1015978818775994
3.825144,7.623124974362087,0.1015721170501467
3.8275479999999984,7.608834521599188,0.1015067961164231
3.8299359999999982,7.591982889582431,0.1014860025896788
3.832315999999999,7.575131257565673,0.1014654192148084
3.834712,7.562144057414889,0.1014112846813619
3.8371,7.555163159503355,0.1012985606652124
3.8394799999999982,7.545388764912485,0.1012051970068028
3.841875999999999,7.533472499948339,0.1011371818191896
3.844263999999999,7.518622968677999,0.1010949793912834
3.846659999999998,7.511362531512744,0.1009939457069719
3.849055999999999,7.50531279916099,0.1008735249383019
3.851443999999999,7.501404937182512,0.1007275783212678
3.853824,7.500849650390809,0.100537452845618
3.856228,7.501505068412604,0.1003286805979952
3.858611999999999,7.500577694568565,0.1001194124294328
3.860992,7.498858924791608,0.0999114870940785
3.863396,7.501935752440403,0.0996663374822681
3.865784,7.50780607676853,0.09940179353197
3.8681639999999984,7.517121524082052,0.0991225810865261
3.870567999999999,7.525505805835794,0.0988494880717127
3.872952,7.535892188335955,0.0985546254263763
3.875335999999999,7.541855060462701,0.0983178459614106
3.877731999999998,7.548749098149226,0.0980743707299387
3.88012,7.56258060363478,0.0977695256144481
3.8825,7.573339073187278,0.0974980680535897
3.884896,7.5842373123666365,0.0972238197433655
3.887279999999999,7.5960667171057725,0.0969436996096462
3.8896599999999992,7.613762654457299,0.0966168446277409
3.892059999999999,7.640118621100551,0.0962256354619729
3.8944439999999982,7.662470386250969,0.0958739482577173
3.896823999999999,7.68105026733403,0.0955831262375698
3.89922,7.6982796739767325,0.0953176699796753
3.901608,7.711644648753462,0.0950821621051887
3.904003999999999,7.724218227597273,0.0948473006431907
3.9064,7.739585303120418,0.0945957189830976
3.908788,7.748806306777454,0.0944023259430856
3.911164,7.756164979314931,0.0942210913938458
3.913572,7.765665522225688,0.0940175676590221
3.915956,7.77865840995008,0.0937678928273699
3.9183359999999983,7.793793168047748,0.0934957820062865
3.920739999999999,7.819078199504363,0.0931379016373238
3.9231279999999984,7.847576036520892,0.0927461635132699
3.925507999999999,7.8774243479777795,0.09233263469924
3.927907999999999,7.901406126822278,0.0919667236748627
3.930292,7.924596509733857,0.0916001792305567
3.932675999999999,7.942711755965965,0.0912788148222145
3.9350799999999992,7.961758167757851,0.0909536414415189
3.937464,7.975217586191066,0.090660643297319
3.939843999999999,7.9821588457058334,0.0904041776419956
3.942243999999999,7.987098004474185,0.0901628258051445
3.944628,7.997531608802587,0.0898623538049457
3.947011999999999,8.008384522011571,0.0895447252095721
3.9494079999999983,8.02217070152675,0.0892069377810358
3.9517919999999993,8.035817111415069,0.0888757854099284
3.954175999999999,8.04760119018383,0.0885548265609568
3.956579999999999,8.062458304885649,0.0882057238460333
3.958963999999998,8.077594958841187,0.0878459426443465
3.961347999999999,8.08979834649053,0.087507560470948
3.9637439999999984,8.102001734139874,0.0871722089767934
3.966131999999998,8.112063251415938,0.0868581779591199
3.9685159999999993,8.111462638653862,0.0866136434118062
3.9709119999999984,8.112864126638204,0.0863560628523946
3.9732999999999983,8.115196780182321,0.0860954084172947
3.975675999999998,8.117669203353303,0.0858287910660536
3.97808,8.12028139615114,0.0855562006705437
3.9804679999999983,8.125035459322257,0.085263384970756
3.982852,8.128998126560456,0.0849699139828503
3.985247999999999,8.135754290477989,0.0846640119248648
3.987632,8.144233015888217,0.0843551489818349
3.990015999999999,8.157275021298723,0.0839966492199128
3.992412,8.165381659656614,0.0836711336684912
3.994795999999999,8.175350629134062,0.0833390779314808
3.9971799999999984,8.18531959861151,0.0830086143082065
3.999576,8.19542833771582,0.0826732140629916
4.001963999999999,8.206608012006766,0.082328567262586
4.004344,8.217927455924576,0.0819781485900226
4.006747999999998,8.228827590961803,0.0816450490268487
4.009131999999999,8.241590057118588,0.0813048389441421
4.011512,8.252210652902093,0.0809849118035196
4.013912,8.2652526583126,0.0806362905032621
4.016299999999999,8.2800172252158,0.0802846759724042
4.01868,8.286773389133334,0.0799844993383409
4.021083999999998,8.288733955625116,0.0797083076947161
4.023471999999998,8.290275213236315,0.0794482436714237
4.025851999999999,8.292607866780434,0.0791900413074725
4.028255999999999,8.294800750697691,0.0789376556154856
4.030639999999998,8.29778503054787,0.0786877938829352
4.033023999999999,8.298627440024768,0.0784562379928089
4.035419999999999,8.301332180621225,0.0782184099088409
4.037807999999998,8.301755281217545,0.078004818963048
4.040187999999999,8.304971878493198,0.0777809561719672
4.042591999999999,8.304324043902879,0.0775762668212584
4.044975999999998,8.300603173379505,0.077392358022534
4.047359999999999,8.295671598042631,0.077222468642923
4.049755999999999,8.292742123452173,0.0770409709884287
4.05214,8.294328707033747,0.0768494502699462
4.054523999999999,8.295263664309266,0.0766503132306559
4.05692,8.29140302415903,0.0764719492655195
4.059308,8.285540283262378,0.0763049918136021
4.061684,8.274043327178813,0.0761913144242291
4.064087999999998,8.265339867774582,0.0760680502776032
4.066476,8.26450504172916,0.0759030897054352
4.068855999999999,8.266603481989934,0.0757228713770126
4.071251999999999,8.270983562250844,0.0755203155802771
4.073639999999999,8.275223872884892,0.0753233556571081
4.076023999999999,8.278533017959163,0.0751294793736609
4.07842,8.282913098220074,0.0749281611093873
4.080803999999999,8.290366214414037,0.0747076268752867
4.0832,8.293023733182252,0.0745073347032117
4.085595999999999,8.294330777510105,0.0743260228387497
4.087983999999999,8.294566886651321,0.0741533263748325
4.090368,8.296525557285232,0.0739798317910494
4.092763999999999,8.300346559038701,0.0738001529884226
4.095151999999999,8.30537826560567,0.0736068244242269
4.097531999999999,8.305986461799224,0.0734520883266762
4.099927999999999,8.303009765380523,0.0733042046162645
4.102315999999998,8.30161586082766,0.0731613746172299
4.104695999999999,8.308090589633602,0.0729804601520612
4.107095999999999,8.320571620678797,0.0727680426324884
4.10948,8.341340593963379,0.072502252229596
4.111863999999999,8.358384905008846,0.0722479968722061
4.11426,8.376360381614095,0.0719943381589534
4.116648,8.394196088592484,0.0717466668343697
4.119043999999999,8.411752256317147,0.0715106556287954
4.12144,8.435734035161644,0.0712318344687809
4.123828,8.463580245872116,0.0709397763246535
4.126211999999999,8.491426456582587,0.0706505681623253
4.128608,8.516059861733144,0.0703847618188679
4.130996,8.543626533189894,0.0701062572767632
4.133375999999998,8.570262039086865,0.0698289997610596
4.135779999999999,8.594104048304503,0.0695581755373565
4.138167999999999,8.616363265656306,0.0692818334207263
4.140547999999999,8.638762252634965,0.069000892343475
4.142951999999999,8.661952635546545,0.0687240231773233
4.145339999999999,8.690497694391317,0.068411025159655
4.14772,8.719694379542148,0.0681072548182053
4.150115999999999,8.752103870252894,0.0677847476906622
4.152503999999999,8.779438224284167,0.0674907200004554
4.154883999999999,8.801837211262828,0.0672196881362707
4.157279999999998,8.816227795255822,0.0669860803448261
4.159667999999998,8.834203271861067,0.0667495347839829
4.162047999999999,8.844589654361226,0.0665350210910624
4.164444,8.855627663167446,0.066328873615495
4.166831999999999,8.868155916040884,0.0661022486945951
4.169211999999998,8.872396226674933,0.0659223560071875
4.171607999999999,8.871840939883231,0.0657572300231396
4.173995999999999,8.866350286038918,0.0656111321742497
4.176375999999999,8.86314127219474,0.0654466376932338
4.178771999999999,8.863005294283619,0.0652675449261149
4.181159999999998,8.870086323425248,0.0650525530446907
4.183555999999999,8.884244589992763,0.0648067525669088
4.18596,8.904129619545811,0.0645473299551625
4.188348,8.92708768503191,0.0642751480765924
4.190727999999998,8.949254354585095,0.0640009595774209
4.193123999999999,8.967416822645445,0.0637442434126705
4.195511999999999,8.985998599586376,0.0634745701677222
4.197892,8.997503139101418,0.0632353811682734
4.200287999999999,9.00821628268354,0.0629924714783938
4.202675999999999,9.018649887011945,0.0627587034392462
4.205055999999999,9.037091894326016,0.0624943425402765
4.207451999999998,9.055953210520668,0.0622177244530403
4.20984,9.077608023394657,0.0619357118719857
4.212223999999999,9.097819814029664,0.0616428735699641
4.214619999999998,9.110674827985068,0.0613880897898441
4.217008,9.120456806007413,0.0611452022837835
4.219387999999999,9.133172050335952,0.0608934491738841
4.221784,9.150822661717104,0.0606252471969966
4.224171999999999,9.167402337911618,0.0603641690416061
4.226552,9.1787671077998,0.0601296719624531
4.228947999999999,9.184125575448732,0.059918862664197
4.231335999999999,9.182406805671771,0.0597363339110065
4.233732,9.17561289921534,0.0595746640610402
4.236127999999999,9.167887827199134,0.0594148749259852
4.238515999999999,9.160954151115842,0.0592586380200995
4.2409,9.15695374133875,0.0590944879182382
4.243295999999999,9.147878194882184,0.0589493127394286
4.245683999999999,9.14308638917217,0.0587808648715623
4.248063999999999,9.143229950514767,0.0585980242010712
4.250463999999999,9.145003525551443,0.0583910257424936
4.252847999999998,9.14305243834901,0.0581891896719222
4.255232,9.13588644484024,0.0580104655678269
4.257627999999999,9.128580681704614,0.0578359569620713
4.260019999999999,9.120343753009209,0.057661826372655
4.262395999999999,9.121465701739828,0.0574469866692982
4.264791999999998,9.129525118269475,0.0572112021766236
4.267175999999999,9.136513599612488,0.0569815461923515
4.269568,9.139637649089524,0.0567603467084323
4.271963999999999,9.139828432260366,0.056545815665235
4.274351999999999,9.14523412173754,0.0563090486781252
4.276727999999999,9.151850516028215,0.0560624257710607
4.279124,9.16233134218486,0.055807655662502
4.281511999999999,9.172812168341506,0.0555525309512902
4.283904,9.17821785781868,0.0553153010343161
4.286299999999999,9.1817612161763,0.0550798528052324
4.288687999999999,9.180508977108165,0.0548527141138401
4.291067999999999,9.18526304027928,0.0546071804635182
4.293463999999998,9.1888063986369,0.0543721068634758
4.295851999999998,9.187274620315046,0.054154546041606
4.298227999999998,9.183321432366192,0.0539562212489579
