Time,Force,Position
4.487368,4.883988786017919,0.1659448796340589
4.489716,4.991422162150332,0.165227966289465
4.492056,5.09415438451348,0.1645773371347728
4.494403999999999,5.210857881989042,0.1632311117309307
4.496748,5.328218693344268,0.1614769048746823
4.499088,5.424680241077399,0.1598600118139509
4.501431999999999,5.493815018210733,0.1586601169240277
4.503776,5.549123977432122,0.1576427522582495
4.506119999999999,5.593865250271856,0.1568022265944724
4.508471999999999,5.633161195237648,0.1559490797469752
4.510812,5.657420617477997,0.1552899804407069
4.513156,5.663383489604742,0.1549235077787708
4.5155080000000005,5.664456320649251,0.1547534158424351
4.517844,5.676002394418928,0.1545662896369355
4.520188000000001,5.701933364607992,0.1542227107106047
4.522539999999999,5.73829414740972,0.1536105912489305
4.524884,5.765996796777593,0.1530519360662894
4.527224,5.774331960845222,0.1528069747501054
4.529567999999999,5.7772652271514175,0.1527475904815554
4.53192,5.793512454690361,0.1525705466111207
4.534256000000001,5.822329469357376,0.1522240419296248
4.5366,5.855849533651527,0.1517217275923233
4.54832,5.893413437835278,0.1516532270392251
4.550656,5.916456467688521,0.1514995200667354
4.553000000000001,5.938942314892191,0.1512488386822873
4.555344,5.956679786498353,0.151042110577044
4.55768,5.975813058515248,0.150881386800502
4.560024,6.004163542473439,0.1506613818249667
4.562367999999999,6.038752646096358,0.150346437862089
4.56472,6.072225488562266,0.1499768177307397
4.567056000000001,6.097971363154095,0.1496151244866793
4.5694,6.120831193267972,0.1492682298831132
4.571752,6.144155658232804,0.1489813509858438
4.574092,6.179630601445128,0.1485844462390745
4.57644,6.2142669268962925,0.1482372310441183
4.578784000000001,6.251511653429555,0.1477800721256728
4.581132,6.284706852499611,0.1473194470116138
4.583475999999999,6.321673935637024,0.1467596787690507
4.585827999999999,6.3552412217594165,0.1463256505440303
4.588176000000001,6.396629919412374,0.1457907863198637
4.590524,6.443373292998524,0.1451247932380755
4.5928640000000005,6.48490365613621,0.1444402133945686
4.595208,6.512001901026268,0.1439337684509584
4.597552,6.527274532892927,0.1435990822164941
4.599895999999999,6.541708546998426,0.143318018768998
4.602244000000001,6.557957670395239,0.1430557404351365
4.604592,6.575604490060653,0.1427136325320598
4.606935999999999,6.58934155188972,0.1423566267410014
4.609276,6.600611878121415,0.1419808389016273
4.611628,6.608389859539474,0.1416879518901263
4.6139600000000005,6.62305808692832,0.141323015561794
4.616300000000001,6.633442573570612,0.1410436812847404
4.618644,6.643362425361947,0.140709283803882
4.620991999999999,6.646718792264462,0.1403897196975273
4.623336,6.651612625062438,0.1399803401727607
4.625676,6.650500155621164,0.1396755378312363
4.628024,6.6519016436055045,0.1393494391426205
4.73114,5.834422049103362,0.1390959612614256
4.733484000000001,5.844058569925239,0.1390271845306224
4.73582,5.854254169254558,0.1389233855267944
4.738156,5.86873350933043,0.1387279075172237
4.740500000000001,5.8802795831001085,0.1385813656100093
4.742852000000001,5.89475892317598,0.1383832960120849
4.745188000000001,5.907096392878575,0.138229243272768
4.747532,5.927302495939977,0.1379315158243361
4.749879999999999,5.94764836862824,0.1376250553892818
4.752212,5.966271679823807,0.1373428825045817
4.754556000000001,5.982892890272957,0.1370983139393755
4.756895999999999,5.998862474416049,0.1368511776469065
4.75924,6.014320201879943,0.1365921451914913
4.76158,6.026332806358444,0.1363756432797508
4.763923999999999,6.044631252329917,0.1360326591825917
4.766276,6.057202935315858,0.1357834255789065
4.768612000000001,6.073127193488576,0.1354634557514899
4.7709600000000005,6.089051451661294,0.1351428841025079
4.773304,6.11219271688676,0.134689731042859
4.775644,6.134030729500112,0.1342297747658829
4.777984,6.155868742113463,0.1337805807692444
4.780328000000001,6.173050926927923,0.1333959823215991
4.782676,6.192095442861939,0.1329913615323459
4.785019999999999,6.214352764355872,0.1325338787177757
4.787364,6.24447871920861,0.1319573980333185
4.789708000000001,6.276606774807766,0.1313559876495179
4.7920560000000005,6.314880902273033,0.130651199377445
4.7944,6.352503403432242,0.1299530609308628
4.796748000000001,6.390125904591451,0.1292561690527698
4.799092,6.427748405750659,0.1285651068141808
4.801436000000001,6.466441842096505,0.1278533118965778
4.80378,6.50699760956191,0.1271244695333349
4.8061240000000005,6.54941570814687,0.1263789726079361
4.808468,6.5912747282243895,0.1256702814763047
4.810804000000001,6.633273517928769,0.1249672116409014
4.8131520000000005,6.679136739499123,0.1242164272669894
4.815504000000001,6.720064594016865,0.1235435025322781
4.817848,6.765555728534881,0.1227904755407221
4.8201920000000005,6.806111496000286,0.122116413815905
4.82254,6.849600529771885,0.121410221308723
4.824876,6.887362800557954,0.1207779905061751
4.827211999999999,6.9303399776503545,0.1200685774769859
4.829560000000001,6.969592492503643,0.1194049689620577
4.831908,6.999905438811485,0.1188642064017586
4.8342480000000005,7.027285118813134,0.1183691759790304
4.836592,7.051871302135446,0.1179074043758181
4.838932,7.0744553847113405,0.1174771101970687
4.841272,7.093175035421263,0.1170928131664323
4.843616000000001,7.111894686131185,0.1167090537793499
4.845955999999999,7.126330596094552,0.1163899604274007
4.848304000000001,7.142908376431199,0.1160401146215465
4.850648,7.15548195527501,0.1157418830788128
4.852988,7.16218900150643,0.1155125391676373
4.855335999999999,7.167313255872015,0.1152871755062783
4.897492,7.004897681600174,0.1152259032206029
4.899827999999999,7.006155608241917,0.1151622982986513
4.904524,7.005179116711765,0.1150966514780492
4.906864000000001,7.005738195219205,0.1150681505152097
4.909208,7.006157504099785,0.1150467161239501
4.911552,7.008578913726783,0.1150004763876367
4.913888,7.012211028167278,0.1149313540896366
4.916220000000001,7.01891617854083,0.1148220106922501
4.918564,7.025900868168102,0.1146984484546949
4.920908000000001,7.032885557795374,0.1145748862171398
4.923248000000001,7.040801412982424,0.1144428473061854
4.925592,7.046063541117,0.1143305990078364
4.927932,7.0611964033568,0.1141039799853403
4.930272,7.07618949596974,0.1138846141723669
4.932608,7.093324458955957,0.1136338761031272
4.934952000000001,7.109668026009255,0.1133864864241589
4.937291999999999,7.129084628995608,0.1131004873568877
4.939636,7.144357260862268,0.1128710899289849
4.941976,7.155625691236094,0.1126896277187503
4.944319999999999,7.1701069271698366,0.1124630702052542
4.946664,7.181143040118186,0.1122581620082804
4.949,7.193389857880034,0.112032312624062
4.951344000000001,7.213133221948351,0.1117007574255236
4.953684000000001,7.23329589489725,0.1113511847487356
4.956032,7.254669272659647,0.1109796360703551
4.958376,7.273109384115848,0.1106388236560103
4.96072,7.290618330012272,0.1103076503477168
4.963072,7.303331678482942,0.1100234901421932
4.965412000000001,7.317395501393972,0.1097122944612991
4.967764000000001,7.331878633185583,0.109381229407074
4.970104000000001,7.3431961812455215,0.1090541563344167
4.972448,7.35493303818604,0.1087074976168515
4.974792000000001,7.360151736208111,0.1084177394358344
4.977136,7.363927411991206,0.1081225962653339
4.979476,7.368262166281742,0.1078018793163551
4.981816,7.371014128706442,0.1074833065704686
4.984164,7.3751165655715,0.1071400694448623
4.986511999999999,7.383502743183113,0.1067422146852236
4.988856,7.390166359302029,0.106349219448143
4.991200000000001,7.394967644301388,0.1059728932557053
4.993592,7.398697994114108,0.1056106005209115
4.995976000000001,7.40242834392683,0.1052499054824235
4.998380000000001,7.400292161127161,0.104946071484534
5.000772,7.395874338327355,0.1046764349882215
5.0031680000000005,7.390525349967769,0.1044136499936434
5.005564,7.389599871981598,0.1040897873882081
5.007952,7.386812062875871,0.1037794449385815
5.0103480000000005,7.390170325636254,0.1034010447717436
5.012744,7.395390919516195,0.103011747451738
5.015128000000001,7.401682448582774,0.1026105467939695
5.017524,7.412210496567663,0.102195130985973
5.019920000000001,7.422459005298833,0.1017936684871981
5.022308000000001,7.432288205149422,0.1014098231796453
5.024704,7.446773232798902,0.1009941504145671
5.027104,7.458836850821385,0.1006187764047539
5.029488000000001,7.46968976403037,0.1002619572494454
5.031867999999999,7.476398706119659,0.0999527469909996
5.034272,7.477241115596558,0.0996958251127095
5.03666,7.487023093618904,0.0993564497790221
5.03904,7.494802970894833,0.0990359682730382
5.041444,7.5025828481707615,0.0987150628341912
5.043828,7.511293891006469,0.0983900304554987
5.046208,7.526011236081427,0.0980095656027758
5.048612,7.54380161708944,0.0975992613063033
5.051,7.565596199590286,0.0971545861693236
5.053380000000001,7.584177976531217,0.0967494075000841
5.055776,7.606763954964982,0.0963091743432606
5.058164,7.623995257465554,0.0959318133090098
5.060544,7.63228699142068,0.0956316915190028
5.062948,7.639368020562308,0.0953510593565876
5.065336,7.64500602746496,0.0950646144412302
5.067716000000001,7.649573099180972,0.0947900301974978
5.070112,7.658563681270399,0.0944620519479227
5.072495999999999,7.662618896307215,0.0941756965585363
5.07488,7.668815981717307,0.0938660928448277
5.077276,7.677015167873815,0.0935385371173248
5.079663999999999,7.684143418843686,0.09322182396623
5.082044,7.694204936119752,0.0928812462406027
5.084440000000001,7.695326884850372,0.0926169092806603
5.086828000000001,7.699242330260327,0.0923358547587146
5.089224,7.705159876416699,0.0920380295004305
5.091620000000001,7.7032087892142656,0.0918017231857473
5.0940080000000005,7.695903026078637,0.0916241279810029
5.096387999999999,7.685663996636814,0.0914689569778696
5.098784,7.673562636075434,0.0913243933425763
5.101172,7.662532210700692,0.0911680065884658
5.103555999999999,7.650291080512453,0.0910289466544018
5.105952,7.641262755884128,0.0908558603892056
5.10834,7.640894460547529,0.0906234319101725
5.110720000000001,7.640386395584071,0.0903972215484394
5.113116,7.642532057673086,0.090162956168213
5.115504,7.649752856441574,0.089886861784668
5.117888000000001,7.655343641515983,0.089647286613967
5.120284,7.663076296963668,0.0893856081391635
5.122668000000001,7.668946621291796,0.089134280786784
5.125052,7.67788998155298,0.088858280314628
5.127447999999999,7.690697773680138,0.0885576713684399
5.129836000000001,7.703086256926714,0.0882753273174078
5.132216,7.722272438345461,0.0879482592542887
5.134612000000001,7.744391886070402,0.0876049276965446
5.1370000000000005,7.764369463422066,0.0872834635895721
5.139396,7.793146839692314,0.0869018943382696
5.141792000000001,7.826999352642036,0.0864811437798562
5.14418,7.861783031151537,0.0860564303814738
5.146560000000001,7.892143199287622,0.0856791288172267
5.148960000000001,7.924225928916405,0.0853013962567854
5.151344,7.95430655779877,0.0849394218850539
5.153727999999999,7.983595790748218,0.0845786255825669
5.156128000000001,8.012233397391608,0.0842151420985978
5.1585160000000005,8.042221478475353,0.0838319897343012
5.1609,8.069136523626046,0.0834759133092663
5.163296000000001,8.090185036164348,0.0831587407982136
5.165684000000001,8.111932396836952,0.08281508436853
5.168063999999999,8.135402319002251,0.0824711098281279
5.170464000000001,8.161525968220026,0.0821224573819854
5.172848,8.183505646318107,0.0818086644459814
5.175231999999999,8.203622993296632,0.0815043778233528
5.177628,8.227372454715653,0.0811576883496813
5.180016,8.24590700982834,0.0808531255933178
5.182396000000001,8.259645967515276,0.0805748668986825
5.184792,8.278320292254824,0.0802689443593213
5.18718,8.296063451434593,0.0799697776400657
5.189576000000001,8.311664740241087,0.0796908064668886
5.191972,8.32605532423408,0.079426121103885
5.19436,8.344450109719908,0.0791356930831298
5.19674,8.359911628899539,0.0788621319642948
5.19914,8.378446184012228,0.0785682683066602
5.201528,8.39949469655053,0.0782771239986663
5.203908,8.416119698715418,0.0780269935119332
5.206303999999999,8.43018352162645,0.0778108939679676
5.208691999999999,8.44317640935084,0.0776033685123821
5.211072,8.45574998819465,0.0774110168785371
5.213468000000001,8.465622618157743,0.0772581829880874
5.215859999999999,8.471491046628005,0.0771296986719412
5.21824,8.476009000657905,0.077021178295639
5.220636000000001,8.483320451367138,0.0769029881933906
5.2230240000000006,8.48821049244938,0.0768125705520882
5.225408,8.487326548717846,0.076781670349125
5.227804000000001,8.493659612039057,0.0767015498673215
5.230192000000001,8.498502431293053,0.0766457375585178
5.232571999999999,8.499341049054214,0.0766138574411696
5.234964,8.499760357934795,0.0765980092154634
5.237352,8.49724640050918,0.0765969142118578
5.239744,8.498736644576399,0.0765726956520189
5.242140000000001,8.500366658270478,0.0765433266702382
5.251696000000001,8.507164356442647,0.0765113462857183
5.254076,8.510097622748843,0.0764969755982307
5.25648,8.515172759428316,0.0764661329118557
5.258864000000001,8.525323032787261,0.076404615371388
5.261244,8.538546342079261,0.0763237265963601
5.263648,8.556705018423871,0.0762177431045213
5.266032000000001,8.571278802156229,0.0761181587510499
5.268412,8.58492142032881,0.0760222482090879
5.270816,8.602056383315029,0.0758913372775709
5.273204,8.62133321667452,0.0757433117587576
5.275584,8.63539514372768,0.075632477340703
5.277988000000001,8.654811746714035,0.0754813366435328
5.280372,8.672086479327112,0.0753460206324539
5.282756000000001,8.682703283394881,0.0752360619739973
5.285156000000001,8.696393123395703,0.075106774701097
5.2875440000000005,8.704356200410999,0.0750007571865399
5.289924000000001,8.712179507799432,0.0749003933107699
5.29232,8.71134278589614,0.0748366579203202
5.294708,8.711856538433205,0.0747543729689683
5.2970880000000005,8.712789599850852,0.0746560725681836
5.299492000000001,8.715864531641776,0.0745418371042451
5.301880000000001,8.716285736380225,0.0744313749366002
5.304259999999999,8.716706941118677,0.0743212353187884
5.306656,8.71433464917779,0.0742200060003791
5.309044,8.706515133505096,0.0741303369640007
5.311424000000001,8.69417955966037,0.0740493498952353
5.313828000000001,8.68519656100242,0.073939088569825
5.316216000000001,8.673839374545716,0.0738213886094083
5.318595999999999,8.661690792156094,0.0737010207442729
5.321,8.651172223460549,0.0735522770183203
5.323384000000001,8.638559006219973,0.0733853301644881
5.325764,8.622360896367141,0.0732236353842579
5.3281600000000005,8.609794900954808,0.0730232356904154
5.330548,8.601652415915888,0.0727856346288327
5.332928000000001,8.591927139011132,0.0725428698490874
5.335331999999999,8.587276998785848,0.0722717582476329
5.337716,8.583185937068006,0.0719809418922359
5.340096000000001,8.583658155350438,0.0716476788212209
5.342496000000001,8.58454968251345,0.0712994916178481
5.34488,8.587722849676599,0.0709306305803316
5.34726,8.58931322497391,0.0705578141175017
5.349664000000001,8.593185240271362,0.0701655637485315
5.3520520000000005,8.595474463702978,0.0697683268254349
5.354431999999999,8.597112060828533,0.0693632830912671
5.356836,8.606758060939757,0.0689207189977345
5.359223999999999,8.620268492916951,0.0684651772223941
5.361604,8.636572421573485,0.068005946317847
5.364000000000001,8.655669846909353,0.0675411789295351
5.366384,8.6744877329915,0.0670875030888845
5.3687640000000005,8.691955144633285,0.0666525802967713
5.371168000000001,8.713798844820246,0.0662184605350615
5.373556000000001,8.736433940940122,0.0657881840631976
5.375935999999999,8.757858332246501,0.0653717969350459
5.378332,8.780074119485798,0.0649592933562811
5.38072,8.802941533031152,0.0645554759744483
5.383100000000001,8.823806845830088,0.0641624759821083
5.385496,8.842530288255748,0.0637842242940153
5.387884,8.861765587360608,0.0634196549753701
5.390280000000001,8.879650412025107,0.0630721756514489
5.392671999999999,8.898466402249385,0.0627246881512744
5.395056,8.914581443592944,0.0624095447532642
5.397436000000001,8.92748367937659,0.0621143784122914
5.399839999999999,8.937033339973457,0.0618422992143757
5.402228000000001,8.944301360570186,0.0615873111205039
5.404608,8.944072834860448,0.0613779251364413
5.407012,8.939560568404154,0.0611942051128939
5.409395999999999,8.930904330828168,0.0610313384798167
5.411776,8.920757849184966,0.0608893976953471
5.414172000000001,8.911822072355257,0.0607363067741366
5.416556,8.905959331458604,0.0605697839890143
5.418936,8.897023554628896,0.0604170355794612
5.421344,8.889018943358968,0.0602629813039499
5.4237280000000005,8.878732692088903,0.0601255486670221
5.426107999999999,8.868446440818836,0.0599879132719969
5.428512,8.85736879361585,0.0598464386103428
5.430896000000001,8.848293247159285,0.0596978053046124
5.43328,8.841080031822274,0.0595466806460944
5.435676000000001,8.836008686858541,0.0593840248411939
5.43806,8.831868507454587,0.059220082707779
5.440455999999999,8.828519723983547,0.0590602928379283
5.442852,8.829873990139646,0.058863429074895
5.44524,8.836163623348353,0.0586525128157254
5.447620000000001,8.852883069169728,0.058395406193007
5.450016,8.874677651670575,0.0581198196787524
5.452404,8.901035514171697,0.0578123866206039
5.454784,8.931956656673092,0.0574743393989683
5.457188,8.964368043241706,0.0571176207934196
5.459576,9.000411544250817,0.0567329434756917
5.461956000000001,9.032450843767094,0.0563615561832805
5.464352,9.05862361067098,0.0560056478348215
5.46674,9.086286621642088,0.0556311849311815
5.469124000000001,9.11194753186678,0.0552638575244439
5.47152,9.140169621345326,0.0548720717610539
5.473908,9.169322876383651,0.0544812201335154
5.476288,9.201269628101311,0.054089984592011
5.478692000000001,9.22734984720658,0.0537123632305152
5.481076,9.251567735192292,0.0533371255205378
5.483452,9.274854457618227,0.0529650911539391
5.485856,9.298280949671025,0.0525893659523005
5.488244,9.31476997392479,0.0522304570037235
