Time,Force,Position
4.459624,5.055517718920066,0.1697277491224308
4.461971999999999,5.060870498995389,0.1697276944460799
4.464304,5.094949641796981,0.1691110528585975
4.46664,5.142019776465094,0.1681099342437514
4.468983999999999,5.1835973614310245,0.167142076376844
4.471332,5.212231176358675,0.1664992338307758
4.473671999999999,5.234856793189206,0.1661512680233942
4.476016,5.277501521626037,0.1654268162463191
4.478372,5.329737444914369,0.1644381682589084
4.480708,5.385839695926546,0.1632262434561075
4.483051999999999,5.434214979064644,0.1620695930271919
4.485396,5.460055297312961,0.1614722317976989
4.4877400000000005,5.484031388583852,0.1610624999345631
4.490072,5.520297727729094,0.1604786033512393
4.492416,5.560148959486589,0.1598416252147756
4.494764,5.601445109340928,0.1590534741532704
4.497104,5.633244508000251,0.1583947144451853
4.499447999999999,5.661831101099658,0.1578424963421051
4.501792,5.696609092035549,0.1572424762972641
4.504132,5.738417098569088,0.1565334656444187
4.506475999999999,5.782833506184726,0.1556922816963873
4.508816,5.813656413313898,0.1550122491452717
4.511168,5.825111835142828,0.154647727582018
4.513515999999999,5.828186766933753,0.1544396882068691
4.515855999999999,5.831446794321912,0.1543120763653249
4.5182,5.848022678800688,0.1539340262303627
4.520552,5.876658389586209,0.1532501425554758
4.522884,5.898590845856046,0.1526149348653752
4.525231999999999,5.918428653580849,0.1519829026257875
4.52758,5.929931297238023,0.1515883908479745
4.529923999999999,5.9484167346645975,0.1511492088774197
4.532268,5.985432935488121,0.1503480088307098
4.534611999999999,6.028410112580523,0.1493343659263848
4.536947999999999,6.05974866810463,0.1484569338417102
4.539287999999999,6.081123941724896,0.1477358932731152
4.5416360000000005,6.102591763143779,0.1470649990331856
4.54398,6.132160535346947,0.1462890402843004
4.54632,6.156282083818304,0.1455937126635105
4.548667999999999,6.175515487065294,0.1449508597855008
4.551012,6.189301666580471,0.1443927274214475
4.553352,6.203040624267407,0.1438878503924021
4.555688,6.226044015723883,0.1432910691744532
4.55804,6.259150458711061,0.1425454564249486
4.560392,6.290813879459263,0.1417979489737794
4.562728,6.3252254709164255,0.1409306480092728
4.565071999999999,6.35297913382828,0.1401850142037027
4.567423999999999,6.374307185620303,0.1395831096077749
4.569768,6.395588015584082,0.1390283436487619
4.572104,6.419150485547998,0.1384246221701168
4.574448,6.445041817340296,0.1377188610281079
4.5768,6.460830097601892,0.1371529063516112
4.579143999999999,6.469913227489935,0.1367410657957416
4.581488,6.4774588914825175,0.1364236685497455
4.583836,6.4954796940581385,0.1359956820537869
4.586179999999999,6.51978633812673,0.1354473376493914
4.588519999999999,6.537714592903734,0.1349797044220628
4.590864,6.544421639135156,0.1347122558075858
4.593204,6.557879161710502,0.1343847589101517
4.59554,6.571848540965046,0.1340697011269492
4.597883999999999,6.587168394659948,0.1337179752350156
4.600232,6.597320563876763,0.1334169668170592
4.602575999999999,6.601885739734906,0.1331939020899734
4.60492,6.600816700406137,0.1330897407619396
4.607263999999999,6.606777676675013,0.1329128954231142
4.609603999999999,6.607616294436174,0.132864898859849
4.611943999999999,6.606313041824058,0.1328570175087434
4.614288,6.608362364398718,0.132781201940083
4.616628,6.611203082906296,0.1327014930526278
4.618967999999999,6.616138449958909,0.1326270703531586
4.621312,6.621585673690719,0.1325649279567137
4.623656,6.631968264475141,0.132427093731963
4.625995999999999,6.641187372274307,0.1322730565953214
4.628352,6.648172061901579,0.1321228420065957
4.630696,6.646776261490846,0.1320790766660274
4.633039999999999,6.644681612945813,0.1320745867007213
4.635384,6.648313727386308,0.1319925749418972
4.637724,6.654227481826943,0.1318617366312109
4.640067999999999,6.654973551789487,0.1317783465440109
4.642412,6.658513118431365,0.1316603948067638
4.644748,6.6633559376853615,0.1315514387936477
4.647096,6.672063188805329,0.1313880760795181
4.649448,6.681189748805879,0.1312015613033267
4.651792,6.695159128060424,0.1309073113608973
4.654131999999999,6.703261974702577,0.1306993288270707
4.656476,6.715508792464425,0.130422401204711
4.658828,6.733110286159465,0.1300513083023336
4.661168,6.745496873548173,0.1297688048585898
4.66352,6.760165100937018,0.1294435844057901
4.665872,6.768035630153695,0.1292116586487403
4.668208,6.777488951236206,0.1289741552830895
4.670548,6.788664833811416,0.1287238380541906
4.672896,6.799561177132905,0.1284880891643909
4.675236,6.813251017133728,0.1282204765420264
4.677572,6.831596684933444,0.1278975911351519
4.679912,6.851153057546658,0.1275514291018756
4.682259999999999,6.869638494973235,0.1272266843571822
4.684604,6.890265802773085,0.1268644218303341
4.686947999999999,6.914478003185192,0.1264670540041715
4.689295999999999,6.934965541358184,0.1261148276051905
4.69164,6.953590748411618,0.1257853586701014
4.693984,6.975009452144389,0.1254293426864862
4.696327999999999,6.997871178116136,0.1250773536499727
4.698672,7.019522199274383,0.124755939337311
4.701008,7.044246256365686,0.1243903852675353
4.703348,7.067247751964293,0.1240401976461021
4.705703999999999,7.083032240510152,0.1237963688293044
4.708043999999999,7.100167203496366,0.1235191614226503
4.710388,7.111435633870194,0.1233170767871804
4.712731999999999,7.129269444990712,0.1230045723597814
4.71508,7.143378593872115,0.1227319935899495
4.717416,7.154554476447324,0.1224972538433447
4.767128,6.91393805787493,0.1223852926672844
4.77192,6.894899229514522,0.1223669827914937
4.774312,6.888243196827082,0.1223254833866299
4.776707999999999,6.885311826378756,0.1222452836822678
4.779104,6.882380455930431,0.1221650552797414
4.781492,6.884104913280995,0.1220366091394208
4.783887999999999,6.887412162497399,0.1219029998075455
4.786284,6.897237570632248,0.1217023091300675
4.788668,6.9109274106330725,0.1214549404689025
4.791064,6.926339812126592,0.1211934641036776
4.793467999999999,6.948829451046001,0.120832301416546
4.795852,6.973041651458106,0.1204621381466497
4.798235999999999,6.991107780004102,0.120178493956888
4.800632,7.010803922244175,0.1198517747883589
4.803016,7.028265646312355,0.1195264248252763
4.805396,7.042794104074339,0.1192371127968291
4.807803999999999,7.059743971463322,0.118901373493533
4.810188,7.073248715866913,0.1185922333772898
4.812567999999999,7.088755561016919,0.1182578878009539
4.814964,7.103471010234007,0.1179269326480537
4.817352,7.116696215383876,0.1176374364820591
4.819747999999999,7.134856787586358,0.11728812118087
4.822148,7.153948525348618,0.1169323584345932
4.824532,7.174250967924374,0.1165582394020035
4.826912,7.197626446433188,0.1161472255390809
4.829316,7.219419133076165,0.1157424723810189
4.831704,7.244704164532778,0.1152807162515931
4.834083999999999,7.265473137817359,0.1148580417191232
4.836487999999999,7.2875925855423,0.1144102621819154
4.838875999999999,7.314135543640655,0.1138985845161066
4.841256,7.337325926552235,0.1134402731242827
4.843651999999999,7.355580942411202,0.1130363133012092
4.84604,7.383334605323056,0.1125066056305177
4.848419999999999,7.407456153794414,0.1120440026431822
4.850816,7.433020724504748,0.1115869923444164
4.853208,7.46645392857389,0.1110514325744771
4.855587999999999,7.49509153521728,0.1105630720498519
4.857984,7.523449602606948,0.1100894182331167
4.860372,7.554880705929672,0.1095858590815657
4.862752,7.586172039625535,0.1090899981706666
4.865155999999999,7.612807545522508,0.1086316945093678
4.867543999999999,7.636370015486425,0.108210969840883
4.869923999999999,7.660351794330923,0.1077750756723847
4.87232,7.681540076496087,0.1073654209551341
4.874708,7.697653221981776,0.1070133984864311
4.877087999999999,7.717770568960301,0.1066236412911833
4.879484,7.73374394481913,0.1062840377978917
4.881872,7.74971732067796,0.1059440932513136
4.884252,7.759404855043819,0.1056783312405353
4.886652,7.764529109409404,0.1054802858224497
4.88904,7.772354312655707,0.1052303896266178
4.89142,7.781390220715507,0.104958960708454
4.893815999999999,7.782138186535922,0.1047831745242669
4.896203999999999,7.781303360490499,0.1046077975846805
4.898584,7.780608304071935,0.1044265292699091
4.900979999999999,7.7720446142945665,0.1043202237127963
4.903368,7.768136752316087,0.1041793903202868
4.905764,7.763437494404691,0.1040389151158173
4.908159999999999,7.750590063880767,0.1039845683541456
4.910548,7.739884503730122,0.1039036487033047
4.912932,7.7322519795125295,0.1037895892308704
4.915327999999999,7.729042965668352,0.1036171950516271
4.917716,7.724623247010677,0.103464473791752
4.920095999999999,7.716990722793086,0.1033499763810876
4.922495999999999,7.7144333352549666,0.1031837478215381
4.92488,7.703588005477459,0.1031074212277964
4.927263999999999,7.693673841259732,0.10302439989434
4.92966,7.684411303348061,0.1029471957120514
4.932048,7.678361570996306,0.1028311238012833
4.9344280000000005,7.674873017898408,0.102670345418408
4.936824,7.669614681479571,0.1025538963866847
4.939212,7.667149841740068,0.1024177050245153
4.941595999999999,7.66733872905304,0.1022676452633249
4.943992,7.674185544911321,0.1020658081481483
4.94638,7.679030260023185,0.1018835512070876
4.94876,7.686668471814384,0.1016816438928047
4.95116,7.691373417299388,0.1015060144325196
4.953543999999999,7.698732089836868,0.1013178131117026
4.955924,7.714238934986875,0.1010474051369615
4.958319999999999,7.726672744203825,0.1008096839456155
4.960711999999999,7.741108654167194,0.1005546707598209
4.963108,7.750189888197367,0.1003629121978191
4.965503999999999,7.757129251854266,0.1001961246789741
4.967891999999999,7.7690039825637776,0.0999858737345418
4.970276,7.777945446967091,0.0998018083068639
4.972671999999999,7.793964148796295,0.0995502350689952
4.975059999999999,7.809051685065721,0.0993047000010595
4.977444,7.824418760588866,0.0990471937772779
4.979844,7.845372829470683,0.0987559384854606
4.982232,7.86497642391214,0.098490490124857
4.984615999999999,7.885139096861037,0.0982010991965425
4.987007999999999,7.905162000183076,0.0979193734502537
4.989391999999999,7.928537478691889,0.0975978277207032
4.991771999999999,7.948467834215309,0.0972908351680434
4.994176,7.96839818973873,0.0969832449240119
4.996559999999999,7.9835329478364,0.0967092448073477
4.998939999999999,7.999598871493847,0.096429368645463
5.001332,8.01315083772568,0.0961557778477234
5.00372,8.017623465785206,0.095963611193556
5.0061160000000005,8.021164928284955,0.0957765307427286
5.008516,8.023775225224925,0.0955961782055445
5.010904,8.031320889217508,0.0953761591961362
5.013283999999999,8.042079358770005,0.0951221170088665
5.015687999999999,8.049904562016307,0.0948913874912651
5.018072,8.060802801195665,0.0946340212680818
5.020451999999999,8.06769683888219,0.0944112639079969
5.022855999999999,8.078734847688406,0.094150628048121
5.025243999999999,8.090843791681264,0.093879855854188
5.027623999999999,8.095503411195894,0.0936522256677122
5.030028,8.09722976440433,0.0934453918898712
5.032411999999999,8.100678679105462,0.0932347319125239
5.034792,8.10426736343345,0.0930189842676051
5.037188,8.104131385522331,0.0928244479954617
5.039572,8.104507264290406,0.0926425226824841
5.041952,8.109027114178176,0.0924241325125032
5.044347999999999,8.119553266305196,0.0921583555760965
5.046735999999999,8.132221288805493,0.0918725022362663
5.049116,8.144609772052071,0.091597841864045
5.05152,8.165937823844091,0.0912558632713758
5.053903999999999,8.190199141942308,0.090893500163193
5.056288,8.21217882004039,0.0905588073181523
5.058688,8.22843173515294,0.09025967629062
5.061076,8.244684650265492,0.0899632547840208
5.063456,8.26186873093782,0.0896619547061072
5.065852,8.270904638997623,0.0894268746083007
5.068239999999999,8.2820824174307,0.0891713726036326
5.070615999999999,8.287114123997668,0.0889672705103551
5.073012,8.288001859444943,0.0887986977416725
5.075396,8.295687293064384,0.088586669469089
5.077791999999999,8.310449964109717,0.0883203845494966
5.080195999999999,8.322698677729433,0.088057792184543
5.08258,8.334155995416232,0.0877951047468742
5.084959999999999,8.348267040155505,0.0875255572390417
5.087356,8.360655523402082,0.0872597461388247
5.089744,8.367968869969188,0.0870336757998095
5.092124,8.37635315172293,0.0867998244006824
5.094519999999999,8.382595563103397,0.0865864758822275
5.096907999999999,8.389908909670503,0.0863633368749802
5.099283999999999,8.393777133252215,0.0861476976835113
5.101683999999999,8.398995831274284,0.0859128767436538
5.104068,8.405704773363574,0.0856522784073951
5.106463999999999,8.414415816199282,0.0853770455998474
5.108867999999999,8.415118456049322,0.0851553431445901
5.111255999999999,8.414098534406664,0.0849359789160511
5.113636,8.421226785376534,0.0846560031078277
5.11604,8.426492705226847,0.0843847041561427
5.118423999999999,8.432969329890662,0.0840968146608114
5.120804,8.447454357540142,0.083755631094878
5.123199999999999,8.457004018137011,0.0834475352151073
5.1255880000000005,8.457753879815293,0.0831915589305432
5.127967999999999,8.459946763732551,0.0829443229046527
5.130372,8.462139647649812,0.0826974179755536
5.132759999999999,8.45967670376818,0.082469736208152
5.13514,8.460286795819602,0.0822201681486341
5.137535999999999,8.464901089363858,0.0819448244141426
5.139923999999999,8.462717684735946,0.0817066832146578
5.142303999999999,8.461093358615473,0.0814471182987019
5.1447,8.458537866935222,0.081191097156719
5.147088,8.452490030441338,0.0809724608244236
5.149467999999999,8.443089618760675,0.0807864752942021
5.151864,8.433549437453154,0.0806056608368974
5.154247999999999,8.430155328011743,0.0803828607987777
5.156644,8.435188930436578,0.0800936825198671
5.159048,8.444226734354249,0.0797803960995703
5.161432,8.444464739353334,0.0795137376256414
5.163815999999999,8.443492039538919,0.0792605604233321
5.166216,8.449456807523536,0.0789687214911124
5.168604,8.449834582149478,0.0786987984445608
5.17098,8.450491896029146,0.0784179719448964
5.173387999999999,8.462090879200673,0.0780757869753058
5.175772,8.475040336812562,0.0777165353825765
5.178156,8.48798979442445,0.0773581105226393
5.18056,8.500799482409477,0.0770027375969982
5.182943999999999,8.50853403371503,0.076679188332246
5.185328,8.51347508834125,0.0763659340376881
5.187723999999999,8.524142905953001,0.0760285884467118
5.190108,8.528385112444921,0.0757396156789414
5.192487999999999,8.534769189310115,0.0754344082337923
5.194884,8.54250374061567,0.0751086824885058
5.197267999999999,8.548236191174807,0.0747930297280056
5.199652,8.552757936920445,0.0744910939200171
5.202048,8.548060574866918,0.074249101515745
5.204431999999999,8.541081572813255,0.07402945679679
5.206811999999999,8.531820930759451,0.0738318091820529
5.209208,8.533222418743794,0.0735863131265996
5.211592,8.537557173034328,0.0733267930077557
5.213972,8.53295235877942,0.0731144608244723
5.216376,8.526997070084152,0.0729200786025499
5.218764,8.521553638068081,0.0727384300030511
5.221143999999999,8.505820163066206,0.0726212196777288
5.223547999999999,8.485942716944635,0.0725301594320555
5.225935999999999,8.465925501196205,0.0724437770602682
5.228316,8.452985522873664,0.072317477311299
5.2307120000000005,8.445120681230595,0.0721621084080969
5.233096,8.436976300333805,0.0720167520202854
5.235491999999999,8.428971689063875,0.0718665905747023
5.237895999999999,8.433771078205366,0.0716579610607333
5.240283999999999,8.43656836660044,0.0714598748385103
5.242659999999999,8.444812878727323,0.0712529377314848
5.245056,8.461345333093595,0.0709971815898394
5.247439999999999,8.483232463393058,0.0707062349543065
5.24982,8.509123795185356,0.0703944928595414
5.25222,8.533664652537293,0.0701005945713398
5.254603999999999,8.559555984329592,0.0697904749153481
5.256983999999999,8.581443114629055,0.069503045660741
5.259376,8.605332345674936,0.0692085030225615
5.261763999999999,8.63401717414657,0.0688973373055956
5.26416,8.665635268924396,0.0685747939116027
5.266551999999999,8.696182428515584,0.0682592849371981
5.268939999999999,8.733015429599744,0.0679052871199344
5.271319999999999,8.768777495497265,0.0675564679013119
5.273724,8.800535359901952,0.0672253545355187
5.276107999999999,8.82600738281367,0.0669346566403714
5.278487999999999,8.847195664978832,0.0666735180598728
5.280884,8.872388148636826,0.0663951935457171
5.283272,8.893296891548268,0.0661460851323769
5.285663999999999,8.904474669981347,0.0659343709465869
5.288067999999999,8.920168506586455,0.0657188965953185
5.290455999999999,8.932277450579313,0.0655079449008365
5.292835999999999,8.9381005530792,0.0653345410370286
5.295232,8.937498044459256,0.0652022456419422
5.297616,8.937966471025948,0.0650634926403072
5.299996,8.942858407966055,0.0648937802543962
5.3024,8.946679409719524,0.0647312002186652
5.304784,8.948777849980296,0.0645674538731987
5.307164,8.946080692815318,0.0644172953016734
5.309567999999999,8.94366307490406,0.0642579054389935
5.311952,8.938172421059743,0.0641128793430631
5.314332,8.934963407215568,0.0639502189750729
5.316735999999999,8.93068345818475,0.0637944420147982
5.31912,8.932689350646903,0.0636055847969024
5.3215,8.943774581281367,0.063379670492793
5.323903999999999,8.960214487849022,0.0631232915554351
5.326288,8.97986719997659,0.0628483108783831
5.328668,8.99379314911863,0.0625875809037174
5.331071999999999,9.008929803074167,0.0623152590272911
5.333456,9.028210428149398,0.0620229159112693
5.3358360000000005,9.041764290239104,0.0617449507048895
5.338232,9.05718048344836,0.0614655030357661
5.34062,9.070734345538062,0.0611878337806439
5.343,9.0865698476279,0.0608929334162686
5.345392,9.10147418415796,0.0606004762450243
5.34778,9.11102384475483,0.0603390671713238
5.350175999999999,9.117360699791783,0.0600951457736849
5.352568,9.126491051508072,0.0598480906891109
5.354956,9.137483734343917,0.0595983266126278
5.357336,9.1471259427394,0.0593646286932969
5.359731999999999,9.16226259669494,0.0590976051305288
5.362119999999999,9.178470185837115,0.0588264687832671
5.364504,9.191604739046236,0.0585682740087012
5.366895999999999,9.201806025949162,0.0583197659178937
5.369284,9.205861240985978,0.0580975370360319
5.37168,9.20470154971646,0.0578992789212469
5.374075999999999,9.202470923260304,0.0577069023800933
5.37646,9.203033793483485,0.0575110979646324
5.37884,9.20666969963972,0.0573037096163933
5.381243999999999,9.208303505049535,0.0571030521010987
5.383632,9.210868476019137,0.0569009502996409
5.386011999999999,9.20621643993598,0.0567275471480018
5.388415999999999,9.20636000127858,0.0565449236462383
5.390799999999999,9.20636379299432,0.0563670209021132
5.393179999999999,9.20408594470992,0.0562043102107012
5.395576,9.20287903161216,0.0560356653708754
5.397959999999999,9.20767842075365,0.0558482160459778
5.400356,9.209404773962085,0.0556728185424838
5.402752,9.208197860864324,0.0555040296059672
5.405135999999999,9.21006398369962,0.0553243068806493
5.407511999999999,9.20736682653464,0.0551755407888124
5.409915999999999,9.201456863809746,0.0550428013972302
5.4123,9.197549001831264,0.0549037809728127
5.414683999999999,9.194292766158846,0.0547732848714873
5.417088,9.191176300113286,0.0546380007121402
5.419471999999999,9.190061934814144,0.0544965731609642
5.421847999999999,9.189878735074776,0.0543546993698706
5.424251999999999,9.188764369775631,0.0542133996024025
5.426639999999999,9.184576968543434,0.0540831957007014
5.42902,9.180110028057516,0.0539617818359021
5.431424,9.17592262682532,0.0538310549520842
5.433812,9.17923177189959,0.0536642221928425
5.436188,9.181889290667804,0.0534896485430768
5.438583999999999,9.183615643876236,0.0533155695953287
5.440968,9.189765507458086,0.0531171474129443
5.443363999999999,9.197265845480295,0.0529048272709885
5.44576,9.199039420516977,0.052700036751092
5.448143999999999,9.20109253480737,0.0524859808081017
5.450524,9.206218685030828,0.0522611726725422
5.452928,9.202824575589416,0.052044020721231
5.455316,9.198778839841948,0.0518175639667159
5.457696,9.195012643348198,0.051581637948384
5.460092,9.190315281294671,0.051345889799562
5.462479999999999,9.182544883308088,0.051120012529951
5.46486,9.175054024575228,0.0508845817805103
5.467264,9.166492230655724,0.0506537426467639
