Time,Force,Position
5.057188,3.939099660578278,0.1818432152322458
5.059571999999999,4.07138359242377,0.1810917168828025
5.061956,4.200039201544505,0.1801175714758271
5.064359999999999,4.317105306783057,0.1791755494146056
5.066744,4.426074252953064,0.1781266979420204
5.069123999999999,4.523733234494609,0.1770855935305227
5.071527999999999,4.607009215474637,0.1761908068234922
5.073912,4.678788240371099,0.1754099309476109
5.076291999999999,4.740233792169252,0.1747136407095708
5.078683999999999,4.79507053310821,0.1740078717878763
5.081071999999999,4.844369398374611,0.1732454883680088
5.083463999999999,4.887711079087873,0.1724553396482162
5.085868,4.915689475993728,0.1719982784741758
5.088256,4.938128101369155,0.171637357458173
5.090636,4.9544678767067145,0.1714119721950584
5.093036,4.969596947230776,0.1712420706728154
5.095424,4.986728118501254,0.1710127726951336
5.097799999999999,5.004138829025452,0.1707635379874107
5.100195999999999,5.024622575482706,0.1704214654679259
5.10258,5.047480509738714,0.1700427786688816
5.10496,5.068615882502026,0.1696990626031833
5.107363999999999,5.090030794519058,0.1693439275992462
5.109752,5.106417791684861,0.1690843253272705
5.112131999999999,5.126157364037439,0.1687177375251865
5.114523999999999,5.1458969363900176,0.1683620922077151
5.116911999999999,5.166427904675516,0.1679971897365807
5.119304,5.18854166482685,0.1676107588655242
5.121708,5.209724259418405,0.1672479779082902
5.124096,5.235749673263954,0.1667227860643186
5.126476,5.257538568191194,0.1662733494963492
5.128879999999999,5.275602800879319,0.1659098063874017
5.131264,5.291245623940447,0.1656299235909915
5.133644,5.3198322170398535,0.1650267390120086
5.13604,5.346836018273424,0.1644412840045401
5.138423999999999,5.379706352119387,0.163720730684045
5.140808,5.40740900148726,0.1630910081405092
5.143208,5.437533060482129,0.1623896739032032
5.145595999999999,5.467377580223278,0.1617152835819157
5.147976,5.498153265524205,0.161031178610231
5.150368,5.527206389332438,0.1603730604020799
5.152752,5.559891627581164,0.1596037349088015
5.155147999999999,5.590062908404277,0.158883821321055
5.157551999999999,5.622236289973806,0.1581233052318565
5.159936,5.651336635610282,0.1574462381316328
5.162315999999999,5.676293010127063,0.1568763729817553
5.164707999999999,5.704462190203758,0.1562326839773463
5.167095999999999,5.733981844720813,0.1555469996208967
5.169476,5.762058476998892,0.1548665574284814
5.171868,5.7862706774109975,0.1542795372576463
5.174256,5.817280575995271,0.1535655848877176
5.176651999999999,5.850944201632021,0.1528133182294893
5.179048,5.886889467268907,0.1519978370778333
5.181436,5.915245638800707,0.1513447658938395
5.183816,5.948676947011978,0.1505902748114834
5.186219999999999,5.978942671491577,0.1498772515078399
5.188604,6.015494237464147,0.1490318223591745
5.190984,6.048972767503662,0.1482604044388688
5.193379999999999,6.083662002356675,0.1474631525591545
5.195767999999999,6.114067496463135,0.1467627150260387
5.198148,6.146614860942872,0.146013897697289
5.200552,6.173667779862556,0.1453976018537157
5.20294,6.197368123595464,0.1448609015277478
5.265063999999999,6.098035698247335,0.1447110155284162
5.267451999999999,6.101807582314692,0.1446085717145571
5.269831999999999,6.114099726046913,0.1443692740982871
5.272224,6.127043496085192,0.1441355875943188
5.274611999999999,6.139847496496611,0.1439119992258911
5.277007999999999,6.156236389520283,0.1436410831349255
5.279408,6.172066204036516,0.1434020955948317
5.281796,6.189898119299164,0.1431237284198307
5.284175999999999,6.216669603107258,0.1426836530053389
5.286579999999999,6.246374353221547,0.1421930684300218
5.288967999999999,6.2798037655749495,0.1416487143676872
5.291347999999999,6.307226875689101,0.1412156177847343
5.293744,6.336931625803391,0.1407326705192847
5.296132,6.363283800730904,0.1403281450119432
5.298511999999999,6.392709011591473,0.1398707325090379
5.300908,6.417990251332348,0.1394993170766312
5.303291999999999,6.441129620699945,0.1391717469757278
5.305672,6.459473392641791,0.1389230681181356
5.308076,6.480098804583774,0.1386229933705376
5.310464,6.500491899100282,0.1382944374653617
5.312844,6.519162432124091,0.1379883063664082
5.315247999999999,6.539602748468839,0.1376252746114051
5.317632,6.557808646641694,0.1372716871116467
5.320012,6.5714984866425175,0.1369727872545552
5.322415999999999,6.584816239591004,0.1366555330029044
5.3248,6.596970509554234,0.136324810054989
5.327183999999999,6.609451540599429,0.1359314877304363
5.32958,6.623842124592423,0.1354709172196897
5.331963999999999,6.6315747800401095,0.135108142745242
5.334344,6.635070916569483,0.134782484229737
5.336736,6.632468203060991,0.1345183491136487
5.339124,6.634288999925912,0.1341640654903869
5.341515999999999,6.630243264178443,0.1338991346330293
5.343919999999999,6.627827542125053,0.1335811512004228
5.346307999999999,6.62154738820569,0.133320851291036
5.348687999999999,6.615686543166907,0.1330363703901448
5.35108,6.612386877381983,0.1326875667396492
5.353468,6.610297916410556,0.1323103538516058
5.355848,6.606486393946434,0.1319493699150931
5.358243999999999,6.605328598534786,0.1315614512901611
5.360631999999999,6.601377306443801,0.1312087750300284
5.363012,6.590488546553791,0.1309621120248529
5.365407999999999,6.57932024741006,0.1307308658186108
5.367792,6.57215614975916,0.1304363258602538
5.370187999999999,6.564712512854541,0.130157518705567
5.372584,6.554987235949785,0.1299250988997535
5.374972,6.54977801721706,0.1296428583702497
5.377355999999999,6.542938784790255,0.1294115772320452
5.379752,6.539312357923366,0.1291224467682449
5.382135999999999,6.542483629228647,0.1287400239038144
5.38452,6.552312829079236,0.1282722309343704
5.386911999999999,6.561071093743186,0.1278255258786123
5.389299999999999,6.576766826206166,0.1272788914949857
5.391696,6.591112084228786,0.1267670161568333
5.394091999999999,6.606668047064905,0.1262293929070301
5.396476,6.619011204341107,0.125745871960088
5.398856,6.629212491244033,0.1253011044040753
5.453811999999999,6.340324712479374,0.1251988569569614
5.456208,6.339115903523745,0.1251001491908915
5.458603999999999,6.341771526434089,0.1249526213860426
5.460991999999999,6.348291581210406,0.1247551118525212
5.463372,6.357465363039197,0.12453375941331
5.465776,6.3710626552414045,0.1242334894697521
5.468159999999999,6.386801817816888,0.1238993915237961
5.47054,6.406265642631485,0.1235248051595745
5.472944,6.429174590431476,0.1231253360771405
5.475327999999999,6.451943768604605,0.1227321267015016
5.477708,6.485794385696458,0.122181301542039
5.480103999999999,6.529515736893534,0.1214976007397889
5.482491999999999,6.570164052157555,0.1208588174778981
5.484871999999999,6.6129542377948525,0.1201883348998829
5.487276,6.656675588991928,0.1195137553415242
5.489659999999999,6.704029054629499,0.1187606927049266
5.492039999999999,6.750311585080434,0.1180293616480381
5.494439999999999,6.7947317844118125,0.1173229399462543
5.496827999999999,6.838360587810271,0.1166224744589643
5.499207999999999,6.879847520835452,0.1159657243458523
5.501612,6.917050713114081,0.1153820801229511
5.503995999999999,6.945965963153322,0.1149294755681579
5.506376,6.968223284647253,0.1145518304623205
5.50878,6.991551541327824,0.1141610150168166
5.511168,7.0163700420756125,0.1137357393521324
5.513548,7.03611340614393,0.1133799372060736
5.515943999999999,7.055717000585387,0.1130356359948248
5.518327999999999,7.076531299840343,0.1126729643144581
5.520707999999999,7.096693972789241,0.1123074625178869
5.523116,7.120069451298055,0.1118966438497695
5.525499999999999,7.134225822007703,0.1116071536704003
5.52788,7.143167286411018,0.1113901513711061
5.530272,7.1579752834267225,0.1111104880721485
5.53266,7.168779078949594,0.1108780546471465
5.535055999999999,7.176929147419991,0.1106640991188316
5.537452,7.187872712569722,0.1104286646950601
5.53984,7.199887212906092,0.1101792999091568
5.542219999999999,7.210970547682684,0.1099377659760575
5.544623999999999,7.223776443951972,0.1096885846072998
5.547011999999999,7.235511405034623,0.1094546921023774
5.549391999999999,7.252601042050466,0.1091498339034177
5.551788,7.2698304486931695,0.1088372616233579
5.554176,7.294648949440959,0.1084577690487943
5.556555999999999,7.319327680561889,0.108088856436722
5.558959999999999,7.340374297242321,0.1077842616589729
5.561347999999999,7.368078842468064,0.107422916480143
5.563727999999999,7.395643618066945,0.1070720619026459
5.566132,7.4207869840388305,0.1067656080535963
5.568515999999999,7.443648710010577,0.1064937569644228
5.570895999999999,7.462086925608908,0.1062841382909376
5.573291999999999,7.485460508259853,0.1060238841391497
5.57568,7.510044795724295,0.1057437234819573
5.578064,7.531044190576484,0.10548902317586
5.580459999999999,7.556978952481286,0.1051863842412992
5.582844,7.588360938117897,0.1048509745623057
5.585227999999999,7.613596851888399,0.1045856361245523
5.587624,7.641626262338234,0.1043033807946178
5.590012,7.670447068720989,0.104020293858803
5.592392,7.696474378424408,0.1037590440901079
5.594787999999999,7.723572623314466,0.1034853818044454
5.597175999999999,7.742522695591994,0.1032989253063789
5.599556,7.763195329362222,0.1031054094752088
5.60196,7.778001430520058,0.1029669076431072
5.604343999999999,7.790945200558338,0.1028426138052065
5.606724,7.807521085037113,0.1026612601835524
5.609124,7.814086465783804,0.1025775167083926
5.611507999999999,7.815716479477884,0.1025394297094727
5.613892,7.814832535746349,0.102508676243899
5.616287999999999,7.81730116720159,0.1024329276351868
5.618675999999999,7.825124474590024,0.1022929282173991
5.621072,7.831504759739481,0.1021480143292041
5.623467999999999,7.83723341858288,0.1019976726881379
5.625852,7.844033012612917,0.1018352687357439
5.628235999999999,7.850041210710038,0.1016746818600758
5.63064,7.84967101951557,0.1015526636727043
5.633028,7.851722237948099,0.1013933222113371
5.635408,7.844973657462043,0.10130866630443
5.637803999999999,7.840786256229844,0.1011809408804215
5.640191999999999,7.842744926863756,0.1009928078651455
5.642572,7.844983136751388,0.1007932453312535
5.644967999999999,7.85564905850527,0.1005037407700537
5.647352,7.865803123579951,0.1002029393956237
5.649732,7.877447432721855,0.0998721940143836
5.652127999999999,7.891373381863892,0.0995133702684798
5.654515999999999,7.905019791752212,0.0991695146842051
5.656908,7.927513222387359,0.0987194282445939
5.659303999999999,7.951496897089727,0.0982365369357969
5.661691999999999,7.979764312538648,0.0977080419885463
5.664076,8.00845103686815,0.0971676875364146
5.666468,8.034484034145176,0.096642797511482
5.668856,8.060517031422203,0.0961195909131197
5.671235999999999,8.085618863139452,0.0956027906019295
5.673639999999999,8.106716493363866,0.0951193107353609
5.676027999999999,8.124089461349168,0.0946590143529367
5.678407999999999,8.137737767095356,0.0942163359082496
5.680804,8.150454907281766,0.0937795834487375
5.683192,8.170528824147784,0.0932677317725223
5.685571999999999,8.186319000267249,0.0928027655680242
5.687968,8.194240543027908,0.0924009003462438
5.690356,8.198437423549453,0.0920200131156184
5.692751999999999,8.196348462578026,0.0917014343348263
5.695148,8.193328336046823,0.0913879306197616
5.697536,8.188166339142342,0.0910959950046014
5.699916,8.17713780962547,0.0908461115689913
5.70232,8.160522286749927,0.090626435254305
5.704708,8.137341383127694,0.0904776894985681
5.707087999999999,8.116022810625017,0.090317912881583
5.709484,8.090420497375787,0.0902008397503179
5.711872,8.058113033753003,0.0901601327541235
5.714252,8.022592764570307,0.0901514247561487
5.716647999999999,7.9881434305742465,0.0901298823533298
5.719035999999999,7.953554326951326,0.0901133362081251
5.721416,7.922038259261461,0.0900698025194125
5.72382,7.8921049834374335,0.0900275755928711
5.726208,7.872554298397828,0.0899246988541205
5.728588,7.85379500929114,0.0898221994706708
5.730983999999999,7.831683144997677,0.0897568279210329
5.733371999999999,7.81036267663713,0.0896925184105976
5.735756,7.788902438649724,0.089634014179272
5.738152,7.772889424394128,0.089551619238462
5.740539999999999,7.758598971631229,0.0894653289177326
5.74292,7.746170849987886,0.0893688723701659
5.745324,7.7342545850237405,0.0892851691671044
5.747712,7.726854378231626,0.0891828795695919
5.750091999999999,7.727183035171459,0.0890301154304852
5.752495999999999,7.732307289537044,0.0888472382415474
5.754883999999999,7.739154105395325,0.088661632308309
5.757263999999999,7.74986535311958,0.0884514808134719
5.75966,7.766722672709944,0.0881885042675359
5.762048,7.787444424166283,0.0879002576936041
5.764427999999999,7.805884535622484,0.0876402597876625
5.766828,7.826186978198243,0.0873716303117791
5.769216,7.848491521520417,0.0870901630342757
5.771595999999999,7.870935834469452,0.0868034648778597
5.773992,7.887653384432956,0.0865525827519902
5.77638,7.906373035142879,0.0862886104555967
5.77876,7.928165721785856,0.0860009677916624
5.78116,7.953171213988749,0.0856839140698993
5.783543999999999,7.983112073244253,0.0853338914913043
5.785924,8.011470140633923,0.0849848766704086
5.788319999999999,8.036383085038198,0.0846398424129584
5.790707999999999,8.060225094255834,0.0843065480839595
5.793104,8.08676805235419,0.0839312499931772
5.795499999999999,8.113590549706265,0.0835466743637296
5.797884,8.13626907593865,0.0831991667997198
5.800264,8.160437846238251,0.082828973857176
5.802667999999999,8.183675450978074,0.0824652777751432
5.805055999999999,8.201186292732366,0.0821304991118147
5.807435999999999,8.218045508180602,0.0817908966809604
5.80984,8.236906824375254,0.0814408487125446
5.812227999999999,8.256978845383403,0.0810761926767954
5.814608,8.276119700831774,0.0807165818236717
5.817003999999999,8.292047750720231,0.0803860588004028
5.819391999999999,8.307044635048907,0.0800594275702204
5.821771999999999,8.324043620124002,0.079720766869263
5.824176,8.33904050445268,0.0793965457660418
5.826559999999999,8.35231482728866,0.0790758783737841
5.828939999999999,8.363866588631947,0.0787585457447457
5.831344,8.373416249228814,0.0784548974502278
5.833732,8.380032643519487,0.0781671968846996
5.836115999999999,8.396519771915385,0.0778262581490142
5.838507999999999,8.413938065871061,0.0774831159803595
5.840895999999999,8.431728446879074,0.0771603729524535
5.84328,8.448447892700448,0.0768473773534925
5.845675999999999,8.463444777029126,0.0765350921120322
5.84806,8.473366524678331,0.0762557612421067
5.850439999999999,8.48235710676776,0.0759802994695041
5.852843999999999,8.499356091842854,0.0756598694420629
5.855227999999999,8.514213206544673,0.0753569649236597
5.857607999999999,8.525205889380516,0.075072687062811
5.860011999999999,8.534987867402862,0.0748019526277283
5.862399999999999,8.546632176544765,0.0745264505934467
5.864775999999999,8.558276485686665,0.0742505004832039
5.867172,8.570851960388348,0.0739717720754456
5.86956,8.580214629530111,0.0737174228325054
5.871936,8.588366593858376,0.0734763067367546
5.874343999999999,8.594097148559646,0.0732616483854057
5.876728,8.597546063260777,0.0730682489705077
5.879107999999999,8.600994977961907,0.0728750617321973
5.881511999999999,8.606678310834933,0.07269424928185
5.883899999999999,8.603002766281934,0.0725757551729746
5.886279999999999,8.596393955422737,0.0724705977099518
5.888684,8.586200251951288,0.0723710968652012
5.891071999999999,8.5749356132932,0.0722793071489727
5.893452,8.568326802434004,0.072173919285609
5.895847999999999,8.562229848254006,0.0720811493629146
5.898235999999999,8.555993124447147,0.0719935167798299
5.900615999999999,8.544261955080236,0.0719502990181516
5.90302,8.53318241201938,0.0719146699379954
5.905403999999999,8.519821228958389,0.071899881434339
5.907784,8.508322377016956,0.0718796518802567
5.910183999999999,8.494821424329105,0.0718696027967462
5.912568,8.483182802760812,0.0718541941437901
5.914947999999999,8.474058138618132,0.0718412015354617
5.917351999999999,8.468937675968284,0.071807561202606
5.919739999999999,8.466890249251493,0.0717559797993672
5.92212,8.470849124773954,0.0716740290749768
5.924524,8.479463828095305,0.0715797718765343
5.926912,8.489661323282494,0.0714911609457649
5.929292,8.498136256976984,0.0714023293082987
5.931695999999999,8.511826096977808,0.0712806949681478
5.934083999999999,8.527378268098188,0.0711539700389766
5.936463999999999,8.545584166271045,0.0710251307873211
5.938863999999999,8.565931934817176,0.0708816950254092
5.941251999999999,8.580413170750917,0.0707633422115748
5.943631999999999,8.596244881125017,0.0706271558136517
5.946028,8.613427065939478,0.070474044548152
5.948416,8.632099494821155,0.0702981699753504
5.950795999999999,8.652122398143193,0.0701053051506008
5.953192,8.676568811838646,0.0698774022972777
5.955579999999999,8.703296865534234,0.0696317961158948
5.95796,8.731515163297045,0.0693651895255514
5.960364,8.758290438820875,0.0690889770866249
5.962752,8.782039900239898,0.0687981996350867
5.965131999999999,8.80527750497972,0.0684969669434481
5.967528,8.825721613040209,0.0682032232581605
5.969916,8.839368022928527,0.0679351267757387
5.972296,8.847846748338757,0.0676651339873396
5.974691999999999,8.854370594830813,0.0673723825892192
5.977079999999999,8.863735159830446,0.0670416804446293
5.97946,8.87230832889716,0.0667098430219146
5.981855999999999,8.885444777964151,0.0663434837017665
5.984243999999999,8.898209139978803,0.0659607081300166
5.98664,8.9103218756874,0.0655715020788978
5.989035999999999,8.92713766102313,0.0651413127358749
5.99142,8.94465229449316,0.0646883842114598
5.9938,8.957231560910579,0.0642531396782094
5.9962,8.96915920102194,0.0638105094721843
5.998583999999999,8.980574984454107,0.063356739035803
6.000968,8.993201472699766,0.0628946398228296
6.003364,9.001451672400258,0.0624323751525761
6.005751999999999,9.005697670607914,0.0619853865505583
6.008132,9.011805999935127,0.0615363064458456
6.010536,9.01884549482212,0.0610864046221207
6.012924,9.02080985302964,0.0606567291858582
6.015303999999999,9.02226235455796,0.060213316308375
6.017704,9.025065330526642,0.0597523818883062
6.020087999999999,9.0317327383613,0.0592814773802826
6.022471999999999,9.037701298061652,0.0588341488234742
6.024868,9.044321484068062,0.0583977525108627
6.027251999999999,9.048939569328056,0.057969035521709
6.029636,9.045269712348668,0.05757788365527
6.032031999999999,9.042391251302192,0.0571911680381855
6.034419999999999,9.037231150255575,0.056820022380551
6.036816,9.030301265888026,0.0564784726031837
6.039211999999999,9.023743468572812,0.0561551440371053
6.041599999999999,9.023983369429766,0.0558161780244996
6.043984,9.026876997339198,0.0554801784824684
6.046379999999999,9.028140611554546,0.0551682227988236
6.048767999999999,9.027913981702676,0.0548768120139485
6.051143999999999,9.0287110652092,0.0546112130959968
6.053547999999999,9.03309304132798,0.0543470628485068
6.055935999999999,9.034262211886844,0.0540988129414738
6.058316,9.03300997281871,0.0538700402156597
6.06072,9.038415662295884,0.0536321240470026
6.063103999999999,9.044193438825396,0.0534116595036312
6.065484,9.055418439086717,0.0531932140718036
6.067879999999999,9.06380272084046,0.0530082485606673
6.070264,9.07432887296748,0.0528133218579362
6.072643999999999,9.079360579534448,0.0526486067588429
6.075044,9.083972977220837,0.0524974431281397
6.077427999999999,9.094451907519613,0.0523340035216083
6.079811999999999,9.102649197818252,0.0521856353621948
