Time,Force,Position
6.039388,3.461088942625856,0.1554716591623283
6.041776,3.4952549456524564,0.155378337447586
6.044152,3.522345607111037,0.1553284481280934
6.046556,3.5507414170396028,0.155049215185698
6.048944,3.575646778012401,0.154708966764331
6.051324,3.596457285551619,0.1542272137996569
6.053728,3.607678494097202,0.1538207992008277
6.056116,3.6202973989113874,0.1532743833253154
6.058495999999999,3.6331486211510495,0.1527885183229554
6.0608960000000005,3.6493977445478616,0.1523048889195919
6.063284,3.673795040557201,0.151551740368753
6.06566,3.694235356901951,0.1508393968665607
6.068064000000001,3.7089961320894127,0.1502236209437788
6.070452,3.72464085100841,0.1496759955753952
6.072831999999999,3.747036046271333,0.1490213687131415
6.075228,3.7651475007877018,0.1485168114839089
6.077611999999999,3.7879620049312055,0.1478012145154588
6.079992,3.8068195294101184,0.1471290657339681
6.082396,3.823302866090277,0.1464919974796961
6.084784,3.8369927060911007,0.1459427556852674
6.0871640000000005,3.857480244264093,0.1451888695515938
6.08956,3.8776882431833655,0.1444681840245117
6.091944000000001,3.893240414303745,0.143865294175174
6.09434,3.904276527252095,0.1433793598773928
6.096735999999999,3.915452409827303,0.1428872916931226
6.09912,3.924858509081573,0.1425075878642263
6.101500000000001,3.9429246376275673,0.1418998068388831
6.103908,3.952842593561034,0.1415429184126287
6.106292000000001,3.962108923188444,0.1411869500126298
6.108676,3.971375252815853,0.1408319128411921
6.111071999999999,3.9740762016965694,0.1407078042151368
6.113456,3.9852974102421537,0.1403781744378535
6.115836000000001,4.000103511399989,0.1399766559258652
6.118232,4.010533324012655,0.1396575823414604
6.12062,4.013885899199431,0.1395425055319272
6.123,4.023197554797214,0.139332472659799
6.125395999999999,4.032601758193614,0.1391822553101931
6.12778,4.046522019762046,0.1389390728537313
6.130176,4.060442281330477,0.1386948169582663
6.132572000000001,4.077156039578243,0.1383962320612395
6.13496,4.094241884878349,0.1381376408960829
6.137339999999999,4.110908421297872,0.1379169910439314
6.139736,4.134232886262704,0.1375438691660432
6.142124,4.157277811973816,0.1371947930833844
6.144504,4.178041097684789,0.1369270407011375
6.1469,4.197593678582265,0.1367020486721574
6.149287999999999,4.211651813919688,0.1366591538121954
6.151684,4.233858121869638,0.1363956208743925
6.15408,4.255273033886669,0.1361444423853463
6.156467999999999,4.278690046650119,0.1358464486860664
6.158852,4.300244728294011,0.1355776300515888
6.161248,4.316724273258431,0.1354501896701584
6.163632000000001,4.332691961543653,0.1353091492022402
6.166016,4.348799419455736,0.1351532283780197
6.16842,4.364534790315481,0.1349624213637236
6.170804,4.377104577443554,0.1347997314639237
6.173184,4.390093673452208,0.1346013468307168
6.175588,4.400429042408387,0.1344480772403819
6.189915999999999,4.41602464364127,0.1342733885136588
6.192303999999999,4.415932095842654,0.1342193394272821
6.194688,4.420123288790591,0.1340450401277064
6.204248000000001,4.400527277780611,0.1339321405506821
6.206632,4.396804511399368,0.1338187611737584
6.209027999999999,4.392569888338926,0.1336872972324176
6.211424,4.386333164532068,0.1336030487786616
6.213812,4.380375979978929,0.1334947051596029
6.216192,4.376281126545347,0.133350128048967
6.218596000000001,4.373257208298404,0.1331751949649731
6.2209840000000005,4.368510728558764,0.1330239494417345
6.22336,4.366325428072982,0.1327769675594938
6.225756,4.362557335721364,0.1325413420319241
6.228144,4.366425559303076,0.1320872910659002
6.2305280000000005,4.37085286139223,0.131586073639378
6.232931999999999,4.375280163481383,0.1310884228719704
6.235316,4.381709566316951,0.1305455673181026
6.237696000000001,4.387207803592744,0.1300197610034565
6.240099999999999,4.394987680868672,0.1294324774423257
6.242488000000001,4.401696622957962,0.1288815064880225
6.244867999999999,4.412921623219283,0.1282596595048773
6.247264,4.432015256839412,0.1274747707892435
6.330872,4.270863296782922,0.1270985652620593
6.333268,4.275751442007291,0.1270591134076226
6.335655999999999,4.290929630217464,0.1267676754356764
6.338036,4.306527127308219,0.1264383587089205
6.340432000000001,4.323055789958751,0.126094664897172
6.342820000000001,4.339444682982424,0.1257634713365527
6.345216,4.360768943058709,0.1253292619667219
6.34762,4.38423507350827,0.1248434972308579
6.350008,4.401694901718581,0.124488026438053
6.352388,4.419294499555752,0.124124161105672
6.354784,4.439315507019921,0.1236837126182455
6.357171999999999,4.457334413737672,0.123288071852622
6.359552,4.473490989335867,0.122934930302661
6.361956,4.493931305680616,0.1224776665668658
6.364344,4.513859765346169,0.1220084497352792
6.3667240000000005,4.531134497959244,0.1215807224687792
6.369127999999999,4.548828539452902,0.1211240478550237
6.371516000000001,4.570806321693113,0.1205789193822485
6.373895999999999,4.598790406172575,0.1199205489861547
6.376292,4.628963582853557,0.1191662712979556
6.37868,4.658904442109063,0.1183635340918821
6.381060000000001,4.684748552073118,0.1175911490597047
6.383463999999999,4.708450791663895,0.1168794389486987
6.385848,4.7317337223740905,0.1161964674947623
6.388228000000001,4.751291990845174,0.1155652907784726
6.390624,4.771129798569977,0.114913918161609
6.393012,4.786823635175087,0.1143534302188025
6.395392,4.79464883842139,0.1139271201438694
6.3977960000000005,4.808899652787523,0.1133535590507218
6.400184,4.822359071220739,0.1127857114696093
6.402563999999999,4.835306632974757,0.1122068800644511
6.404967999999999,4.851606769915551,0.1115503009116258
6.407352,4.86390270536351,0.1109674816084271
6.409736,4.870052568945359,0.1105044534847203
6.412132000000001,4.876062662900348,0.1100553583273189
6.41452,4.881793217601617,0.1096281586746763
6.416899999999999,4.887244233049165,0.1092246034259857
6.419296,4.88841150775016,0.1089159116944669
6.421684,4.8859938898389,0.1086463155187363
6.424064,4.879664618233424,0.1084916525656856
6.426468000000001,4.879062109613479,0.1082605303008831
6.428852,4.882044493605788,0.1079956236248211
6.4312320000000005,4.8842354816651765,0.1077327323685674
6.433628,4.89098974972484,0.1073699995832048
6.436012000000001,4.902539615210255,0.1069438337689006
6.438392,4.914741107001729,0.1065282155993964
6.440796,4.9289446995396204,0.1060819657180246
6.443184,4.951808321369236,0.1055156682669298
6.44556,4.972110763944994,0.1050243375851441
6.447964,4.991062732080393,0.1045721419213497
6.450352,5.009176082454632,0.1041825562901355
6.452732,5.02579918876165,0.1038467460024948
6.455127999999999,5.04842859730792,0.1034244859676052
6.457512,5.076133142533662,0.1029217609141716
6.459908,5.100485112572628,0.1024867347052695
6.4623040000000005,5.123486608171234,0.1020890020620109
6.464692,5.146627873396701,0.1016857065220474
6.467071999999999,5.164694001942696,0.1013584200336467
6.469468,5.181130116794611,0.101089042938755
6.471851999999999,5.19570390052697,0.1008379354952322
6.512479999999999,5.233645579336666,0.1006998343798704
6.514867999999999,5.2347165145233046,0.1006814438622557
6.517248,5.237137924150301,0.1006261296753595
6.519652,5.241561434523716,0.1005425158154496
6.52204,5.247055880083768,0.1004407071830169
6.52442,5.249896598591347,0.1003573498972253
6.526824,5.246079388553616,0.1003488673222646
6.529212,5.245614753702662,0.1002747220511516
6.531592000000001,5.25036502515804,0.1001178500553835
6.533988,5.252182030307223,0.0999979411231175
6.536376,5.254138805083266,0.0998690152149003
6.538756,5.257585823926528,0.0996947823333744
6.541151999999999,5.259310281277092,0.0995299219241589
6.543539999999999,5.259172407508103,0.0993839253432429
6.54592,5.256380806686637,0.0992551619042259
6.548316000000001,5.256941781051947,0.0990624513659147
6.5507040000000005,5.252567388364645,0.0989327610119857
6.553083999999999,5.248472534931064,0.0987848958547731
6.555488,5.247590487057398,0.0985844864111795
6.557875999999999,5.24763960474351,0.0983759262628498
6.560256,5.251181067243258,0.0980973586260952
6.56266,5.259937436049338,0.0977432805831023
6.565043999999999,5.272046380042196,0.0973328542269571
6.567424,5.286716503288909,0.0968656447293267
6.569819999999999,5.29859312985629,0.0964224240761211
6.572208000000001,5.314753497170223,0.0959132344538911
6.574587999999999,5.335197605230709,0.0953324627522077
6.576992,5.355781482918058,0.0947443269373778
6.57938,5.366354856873321,0.094281852583459
6.58176,5.38028080601536,0.0937605343899338
6.584155999999999,5.394066985530539,0.0932490868073241
6.586548,5.407573625791998,0.092759369722892
6.588928,5.422942597173014,0.0922556413127363
6.591323999999999,5.435238532620974,0.0917900980426006
6.593711999999999,5.451398899934907,0.0912838310845928
6.596096,5.462344360942509,0.090849152949952
6.598491999999999,5.480227289749138,0.0903328215972378
6.600879999999999,5.494757643368993,0.0898749076584687
6.60326,5.505004256242294,0.0894877713318768
6.605656000000001,5.514459473182675,0.089101554447242
6.6080440000000005,5.520422345309419,0.0887823866483337
6.65584,5.4182850481347415,0.0886395975328961
6.658224,5.426246229292165,0.0886034657199137
6.660607999999999,5.439142777502202,0.0885157496720556
6.663011999999999,5.455903757578211,0.0883931015084464
6.665396,5.471593802467583,0.0882876907316355
6.66778,5.491707357730369,0.0881154024222156
6.6701760000000005,5.52104002079232,0.0878406346743079
6.672564,5.550512453481132,0.0875612930800811
6.674943999999999,5.585339562103137,0.0872136942966226
6.67734,5.620306440352001,0.0868604445142523
6.679723999999999,5.655692627481446,0.0864865670120344
6.682104,5.692708828304971,0.0860711452998848
6.684508,5.729864798755357,0.0856483027403649
6.686896,5.761573545473932,0.0852541160833908
6.689276,5.792630665886449,0.0848519144508197
6.691672,5.821173828873352,0.0844609145316227
6.694056000000001,5.850276070367696,0.0840394046902356
6.696452,5.879657851115759,0.0836061015004434
6.698856,5.909598710371264,0.0831414884352427
6.701244,5.945453324067403,0.0825836799056482
6.7036240000000005,5.990294728137231,0.0819065355348041
6.706027999999999,6.032202865900864,0.0812611031518947
6.708416000000001,6.074250773291355,0.0806155703857938
6.710795999999999,6.110711687323178,0.0800023807642176
6.7132,6.146381205422083,0.0793897718458111
6.715588,6.175904651654877,0.0788398384714403
6.717968,6.190901535983555,0.0783971715641074
6.720372,6.200590966207282,0.0779680181835875
6.722756,6.205345029378398,0.0775807114251548
6.725140000000001,6.205583034377483,0.0772079327387545
6.727536,6.201816837883734,0.0768679333301212
6.729924,6.19483783583007,0.0765646385976667
6.732304,6.188138373030125,0.0762464288345999
6.734699999999999,6.186653816536516,0.0758757178387002
6.737084,6.187450900043041,0.0754757585029538
6.739463999999999,6.183964242803013,0.075122867551308
6.741867999999999,6.1806173551898445,0.0747629161883472
6.744255999999999,6.17526836683026,0.0744188081136378
6.746636,6.171502170336511,0.074081208196574
6.749032000000001,6.159308261976514,0.0738269046119276
6.75142,6.13733616730991,0.0736800401505632
6.753799999999999,6.115503842270167,0.0735248493147038
6.756196,6.09008662461817,0.0733764592616908
6.758584,6.067742442899229,0.0732011008886596
6.760964,6.045258491553428,0.0730322814050786
6.763364,6.025847576140682,0.0728369894498036
6.765752,6.014956920392801,0.0725991718062205
6.7681320000000005,6.011515589123147,0.0723313942949212
6.770535999999999,6.008865653786411,0.072066878506615
6.772924000000001,6.013804812554762,0.0717663489278372
6.775303999999999,6.023539568748864,0.0714404660608703
6.7777,6.032343159383187,0.0711169067015878
6.780084,6.043940246696847,0.0707855184529614
6.782464,6.051905219570008,0.0705090775180614
6.784864,6.056238078002675,0.0702868973405572
6.787252,6.064435368301315,0.0700441535659511
6.789632,6.069931709719237,0.069850722422775
6.792036,6.077010843002995,0.0696651644501562
6.794424,6.082879271473255,0.0694978042169643
6.796803999999999,6.092472362182628,0.069315561800817
6.7992,6.107000819944613,0.0691015592984742
6.801583999999999,6.1209701991991565,0.0689168800966924
6.803964,6.137313766252456,0.0687440861521611
6.806363999999999,6.155100355544729,0.0685876755270645
6.8087480000000005,6.1719557792772255,0.0684347017695315
6.811132,6.189602598942638,0.0682866882540202
6.813524,6.206038713794555,0.0681575470588721
6.815912,6.218470627153638,0.0680569039561194
6.818304,6.2299713749529415,0.0679594544778011
6.8207,6.2383990868191885,0.067886583279302
6.823087999999999,6.244824697939021,0.0678271759719373
6.825468,6.253904036111325,0.0677659264069458
6.827863999999999,6.259630799096855,0.06774171025184
6.830252000000001,6.270572468388719,0.0676760338384479
6.832631999999999,6.284447403986777,0.067594953416207
6.835028,6.296739547718997,0.067506743387091
6.837412,6.314386367384412,0.067370785495616
6.8398080000000006,6.333523431117046,0.0672065786853845
6.842211999999999,6.352800264476539,0.0670358041236129
6.844596,6.375709212276528,0.0668184697544594
6.846976000000001,6.395033267464266,0.0666056707300501
6.849379999999999,6.414776631532583,0.0663728603387058
6.851767999999999,6.430935102988646,0.0661430979929269
6.854148,6.444439847392236,0.0659149299110552
6.856544,6.461017627728881,0.0656668562290103
6.858932,6.47573307694597,0.0654242563375433
6.861311999999999,6.489936669483861,0.0651650275783616
6.863708,6.506282132395029,0.0648892724093228
6.866096,6.52663179679903,0.064592560291096
6.868476,6.544187964523696,0.0643029672145229
6.870876,6.562815067435001,0.064005622478234
6.873259999999999,6.582932414413525,0.0636821142468307
6.875644,6.601746508779934,0.0633361774703998
6.878048000000001,6.6168359409072295,0.0630027113640082
6.880432,6.631553285982186,0.0626477605639914
6.882812,6.645199695870505,0.0623019350702336
6.88522,6.654190277959931,0.0619678796433765
6.8876040000000005,6.657034788183248,0.0616711752683951
6.889983999999999,6.659087902473647,0.0613697714631388
6.892383999999999,6.658067980830989,0.0610887069425135
6.894768,6.664125296614221,0.0607713904218642
6.897151999999999,6.673395417957369,0.0604322405749712
6.899548,6.688532071912908,0.0600711348656585
6.901936,6.707952466614999,0.0596807977797972
6.904316000000001,6.725230990943814,0.0593083259381561
6.906712,6.744651385645906,0.0589212328522713
6.9091,6.761790140347862,0.0585555867602392
6.91148,6.77678702467654,0.0582073425797494
6.91388,6.784846441206189,0.0578879088239221
6.916268,6.796910059228671,0.0575510292603841
6.918648,6.807111346131597,0.0572175758956261
6.921043999999999,6.8133084315416905,0.0569026813511381
6.923431999999999,6.821228078444481,0.0565911972714117
6.925828,6.824863984600714,0.0563081629028738
6.928223999999999,6.825287085197034,0.0560475024230461
6.930611999999999,6.825430646539633,0.0557987212415482
6.932992,6.828879561240765,0.0555641307088476
6.935396,6.837124073367646,0.055316501633978
6.937784,6.84536858549453,0.05506867084754
6.940164,6.850260522434637,0.0548485859300544
6.942559999999999,6.845514042694997,0.0546954284510343
6.944947999999999,6.834341951835526,0.0545861436846751
6.947332,6.8193054291100825,0.0544869865098809
6.949728,6.799845396011224,0.0544223178295493
6.952115999999999,6.780525132539226,0.054350957670468
6.954496,6.759202768320811,0.0542867496900469
6.9569,6.744957641528284,0.0541914859236023
6.959283999999999,6.726708313242924,0.0541115557987601
6.961664,6.7183297190627895,0.0539984163854934
6.964059999999999,6.706878088949599,0.0538998224236637
6.966448000000001,6.697149020329104,0.0538055908294831
6.968827999999999,6.689933909134225,0.0537211314483738
6.971232,6.68444135943204,0.053641419870212
6.973616000000001,6.688959313461942,0.0535245573319103
6.975995999999999,6.696270764171178,0.0534056351792444
6.978392,6.705724085253689,0.0532734167877975
6.98078,6.71187205297767,0.0531258564507816
6.983160000000001,6.717228624768731,0.0529733076975121
6.985556,6.726309858798908,0.0528192089268706
6.987944,6.740466229508555,0.0526440598796454
6.990327999999999,6.757835405778117,0.0524470937328132
6.992719999999999,6.778277617980735,0.052235200669019
6.995107999999999,6.796438190183215,0.052041957967597
6.997504,6.812596661639281,0.0518548022472541
6.9999080000000005,6.826892801975789,0.0516690328159403
7.002296,6.843982438991631,0.0514825464990523
7.004675999999999,6.8542743778353055,0.051313772778876
7.007079999999999,6.867779122238894,0.0511239358155418
