Time,Force,Position
7.389168,2.8163685642955656,0.1730428753773591
7.393963999999999,2.820093226534679,0.1728871336205573
7.396348,2.824142753997886,0.1728786757160443
7.398728,2.8334525137378,0.1727872542645276
7.401131999999999,2.8496997412767437,0.1723659139640847
7.4035199999999985,2.865063025084151,0.1718632388934116
7.405899999999999,2.8812177048244765,0.1713455702462825
7.408299999999999,2.9011423727742898,0.1708678387807038
7.410684,2.9268391296800065,0.1703587968133451
7.4130639999999985,2.9629184773701454,0.1694599283488989
7.415467999999999,3.0055632058069754,0.1682033177591469
7.417855999999999,3.050676565699046,0.1667119474946425
7.420235999999999,3.0905750192847843,0.1654969759556822
7.422628,3.130286481415419,0.1644388232132867
7.425015999999999,3.177587037651141,0.1630637826197397
7.427396,3.2246552764613856,0.1616442134908712
7.4298,3.263110707808148,0.160473336885149
7.432183999999999,3.2936049579974864,0.1595929440270497
7.434567999999999,3.328847583784333,0.1586476993829698
7.436968,3.370840685915106,0.15758425503352
7.439356,3.410040291366543,0.1566134014520777
7.441735999999999,3.446493621966888,0.1556491371433689
7.444139999999999,3.4768481025293663,0.1548631528690437
7.446524,3.5062714175320657,0.1541146352708627
7.448903999999999,3.535135654027324,0.1534357439492186
7.451307999999999,3.5700061927618334,0.1525366780036202
7.453695999999999,3.602689535152692,0.151584415987517
7.456075999999999,3.632254515640122,0.150623032388464
7.45848,3.655580876462822,0.1498527714051721
7.460868,3.670619295046136,0.1494103817555612
7.465639999999999,3.6778344062410153,0.149372866277614
7.468024,3.681279529226408,0.1492953292927225
7.470407999999999,3.684352565159464,0.1491850423268238
7.472804,3.687006292211939,0.1491225060132977
7.475187999999999,3.688868623331496,0.1490711779637311
7.477584,3.697156565570884,0.1487736807530145
7.479979999999999,3.7041412551981554,0.1484640061780388
7.482367999999999,3.7085194396011953,0.1481457083464583
7.484743999999999,3.7026548028466735,0.148104225760528
7.487152,3.701585763517905,0.147924153716327
7.489535999999999,3.6986543930695785,0.1477926114636008
7.491916,3.697213266688472,0.1475763404530086
7.49432,3.698333319561223,0.1472393499966318
7.496708,3.701455473180391,0.1468406234644463
7.499087999999999,3.700014346799283,0.1466279298899712
7.501491999999999,3.697594833030156,0.1465161778111284
7.503876,3.69317321851461,0.1464668237622247
7.506255999999999,3.6893106825065054,0.1463592374251938
7.508652,3.686658851311901,0.1461980674727821
7.511039999999999,3.69280681903588,0.1457694331588887
7.51342,3.706683650491808,0.1451143681732757
7.5158239999999985,3.718698150828178,0.1445148470469103
7.518212,3.7277793848583536,0.1440055355403911
7.520591999999999,3.737931554075168,0.1434679818905604
7.522988,3.75297186851635,0.1428726084575947
7.525376,3.767592874076952,0.142332168089455
7.527756,3.7842159803839706,0.1417306108377726
7.530159999999999,3.796834885198156,0.1412494694152098
7.532548,3.815180552997871,0.1406161718589537
7.534927999999999,3.83017364561081,0.1401128512574173
7.537324,3.850753731582419,0.1394782902851747
7.539712,3.871333817554029,0.1388475964172065
7.542092,3.8869785364730256,0.1383593694740714
7.544487999999999,3.901831859459105,0.1378855575893591
7.546875999999999,3.918827052818461,0.1373402975312548
7.549256,3.939966217297512,0.1366727734085545
7.55166,3.96203654733634,0.1359831172484061
7.554043999999999,3.981545698121311,0.1354002841750949
7.556424,4.003289267078176,0.1348085112411133
7.558819999999999,4.027546793460656,0.134204327692684
7.561207999999999,4.047660348723441,0.1337317289623386
7.563587999999999,4.068053443239947,0.1332361441392051
7.5659839999999985,4.088306768129592,0.1327486041253409
7.568372,4.105347287459322,0.1323656671147746
7.570767999999999,4.116521274176662,0.1321306333435802
7.580323999999999,4.134908476231013,0.1320921573304555
7.582711999999999,4.143753601119972,0.1320069247435266
7.587499999999999,4.154785922352582,0.1319882471034369
7.589884,4.163863364667019,0.1319503848019735
7.592264,4.17531499478021,0.131896334701812
7.594664,4.189699891199597,0.1317784844913745
7.597052,4.199568729446952,0.1317410146353478
7.599432,4.209437567694308,0.131704142950908
7.601827999999999,4.2222396722478575,0.1315988535796927
7.604215999999999,4.23345898493557,0.1315051366285747
7.6065999999999985,4.241233174637892,0.1314627573310782
7.608995999999999,4.2503578387805705,0.1313673985894906
7.611379999999999,4.2587836547889495,0.131332574171838
7.613764,4.273215773036579,0.13116127247605
7.616159999999999,4.290720927217265,0.1309172208489159
7.618547999999999,4.311066799905527,0.130556766444604
7.620932,4.335696413340344,0.1300767831857954
7.623324,4.36153673158866,0.1295578129327647
7.625712,4.394733826516585,0.128847269387517
7.628107999999999,4.42956093513859,0.1280675306854926
7.630504,4.456379640774927,0.1274823886498078
7.632892,4.485712303836879,0.1268796303558736
7.635271999999999,4.517047067645247,0.126231428079919
7.637672,4.544796938841363,0.1256391388659318
7.64006,4.567518895186249,0.1251024776123319
7.642439999999999,4.583722692612688,0.1246812450672838
7.644843999999999,4.601229742651241,0.1242708165188226
7.647228,4.620599123809352,0.1238325784009266
7.649607999999999,4.6414587490346815,0.1233392905278987
7.652011999999999,4.661806517580814,0.1228266701889651
7.654399999999999,4.676707062395136,0.122395763257475
7.656779999999999,4.689465736836181,0.12201990096928
7.659184,4.701852324224888,0.1216130841446758
7.661572,4.705439112695012,0.1213824427203275
7.663952,4.704370073366242,0.1212300027155261
7.666347999999999,4.702741955530032,0.1211230206067976
7.668735999999999,4.700974068066961,0.121027475127038
7.671116,4.697204079857474,0.1209731424310035
7.680688,4.6630361809730045,0.1209631405201525
7.683071999999999,4.653074794927034,0.1209238036758547
7.6854559999999985,4.64474342257514,0.1208157370163908
7.687856,4.639205546902583,0.1206647154547355
7.690239999999999,4.639394434215556,0.1204183943804628
7.69262,4.64028216966283,0.12011816396201
7.695024,4.63758501249785,0.119863248110152
7.697407999999999,4.6296729490265385,0.1197208008461005
7.699788,4.6256253174212,0.1195122352206285
7.702183999999999,4.624883039174394,0.119279266822222
7.704568,4.623209595367809,0.1190590383125027
7.706947999999999,4.622048008240423,0.1188570465966843
7.709351999999999,4.626752953725429,0.1185470881240649
7.711736,4.633459999956849,0.11819614727567
7.714115999999999,4.638584254322433,0.1178523004417678
7.716512,4.642777343128239,0.117523907731917
7.718895999999999,4.6503230071208215,0.1171114953637209
7.721287999999999,4.650651664060653,0.1168500001102373
7.723683999999999,4.648698681000349,0.1166482715039779
7.7260719999999985,4.651541295365796,0.1163649663944595
7.728448,4.656106471223939,0.1160633834582523
7.730843999999999,4.656387906335529,0.1158640267401052
7.733231999999999,4.658112363686096,0.1156709562704239
7.735624,4.656763785103606,0.1155407321450078
7.738028,4.652481940214922,0.1154625535565132
7.740416,4.649782887192073,0.1153789681507931
7.742796,4.649597791594838,0.1152767515007931
7.745196,4.6567694726772135,0.1150185285544661
7.747584,4.662870218572951,0.114788334624916
7.7499639999999985,4.666317237416212,0.1145843639558007
7.752367999999999,4.675910328125587,0.1142631102398891
7.754752,4.689135533275456,0.1138453498688083
7.757131999999999,4.699707011372849,0.1134568863926627
7.759535999999999,4.710418259097104,0.1130590615252262
7.76192,4.722852068314055,0.1126480620536986
7.764299999999999,4.73342354641145,0.1122602871773589
7.766696,4.742644550068485,0.1119202497694483
7.769079999999999,4.759082560778269,0.1114404986921696
7.771471999999999,4.7795247729808885,0.110887768035403
7.773868,4.79237789107842,0.110442977972453
7.776256,4.804439613243034,0.1100000716223655
7.778635999999999,4.816780874661367,0.1095346048218548
7.781039999999999,4.8223244379075325,0.109173890099231
7.783424,4.831872202646531,0.1087428476106926
7.785803999999999,4.840488801825751,0.1083238171050972
7.7882,4.846591443579357,0.1079229208763934
7.826428,4.636690217474563,0.1078467337141191
7.828807999999999,4.639438388183525,0.1077025734175664
7.831204,4.640975854078986,0.1075910064384829
7.833587999999999,4.643164946280507,0.1074883955445581
7.835984,4.647448687027061,0.107403618032299
7.838379999999999,4.656108716318787,0.1072846605914631
7.840764,4.670775047849762,0.10706905766869
7.843143999999999,4.688654184940654,0.1067866502758154
7.84554,4.706765639457022,0.1065497906521918
7.847928,4.730883396212642,0.1062141341510413
7.850308,4.757794649647595,0.1058465885815439
7.852711999999999,4.792714306068216,0.1053585352091851
7.855096,4.833500495101228,0.1047946506865744
7.857476,4.878290885627075,0.1041741124758008
7.859879999999999,4.923872672085838,0.1035603144719903
7.862264,4.968243753731102,0.102968528913975
7.864644,5.012335296122648,0.1024006618647135
7.867047999999999,5.056147299260472,0.1018585245967084
7.869432,5.098748597584797,0.1013646537552217
7.8718119999999985,5.13734569441629,0.1009363530456699
7.874215999999999,5.1780846616210585,0.1004674410172703
7.876603999999999,5.21081522584016,0.1001222476675338
7.878983999999999,5.24489626449962,0.099745207881197
7.88138,5.283121274278775,0.0993086405767496
7.883768,5.320974197005592,0.098848816107
7.886147999999999,5.354962687866436,0.0984373458664352
7.888551999999999,5.3850867468613055,0.0980748713805111
7.890939999999999,5.41814407216237,0.0976816797738217
7.893319999999999,5.450689540784238,0.0972771875230711
7.895716,5.484166174965883,0.0968714542984465
7.898099999999999,5.516060017281692,0.0964688662178506
7.900495999999999,5.540224995865555,0.0961574674520345
7.902896,5.55680088034433,0.0959233086955835
7.905284,5.568301628143634,0.0957565812709441
7.90766,5.577288418517323,0.0955976325693266
7.910055999999999,5.591490115197344,0.0953646074882203
7.91244,5.6090443870641415,0.0950774448078247
7.914819999999999,5.624736327811382,0.0948060169720116
7.917223999999999,5.6340498792670335,0.0945817696491077
7.919608,5.6437827396032665,0.0943322712422441
7.921987999999999,5.655005844006718,0.0940439163586181
7.924384,5.67344595546292,0.0936635067157283
7.926772,5.689604426918984,0.0933258150509246
7.929167999999999,5.698173804269962,0.0930565493773869
7.931564,5.703809915314745,0.0928176879823535
7.933947999999999,5.712798601546303,0.092524530904036
7.936328,5.7228582229645,0.0922153667439171
7.938732,5.729984578076501,0.091938597894847
7.94112,5.734317436509167,0.0916843776273034
7.943496,5.736927733449138,0.0914381887686915
7.945891999999999,5.73846709520247,0.0912069382928701
7.948279999999999,5.742799953635136,0.0909546310220853
7.950671999999999,5.750717704680055,0.0906817864250844
7.953075999999999,5.762779426844669,0.0903567441847267
7.955463999999999,5.779496976808174,0.0900004178831068
7.957844,5.79635429639854,0.0896422363903787
7.960248,5.806134378563016,0.0893635667115769
7.962631999999999,5.8179165614739095,0.0890639668854771
7.965012,5.832492241064137,0.0887431396566346
7.967416,5.844926050281088,0.0884508395167066
7.969804,5.852796579497765,0.0882335283434082
7.972183999999999,5.852518936101913,0.0881094333602419
7.97458,5.850239191959645,0.0880060271786243
7.976967999999999,5.8494024700563525,0.0879127006284086
7.979348,5.851359244832395,0.0877992022308176
7.981743999999999,5.85210531479494,0.0877091946389038
7.984128,5.85378255031726,0.0876128922651678
7.986507999999999,5.855459785839584,0.0875166826529891
7.988904,5.855646777294687,0.0874587404200258
7.991292,5.8518295672569565,0.0874430364936315
8.012796,5.782184829302295,0.0874302371266312
8.015175999999999,5.772967617360997,0.0873922519686701
8.017579999999999,5.767382519860197,0.0872884753301314
8.019964,5.764870458292452,0.087150164357822
8.022343999999999,5.76678190709812,0.08694790086281
8.024735999999999,5.774187801463843,0.0866685029451129
8.02712,5.781453926202705,0.0863982034198916
8.029516,5.784855619075593,0.0861589448758577
8.031912,5.786255211202064,0.0859396484451912
8.034296,5.785652702582119,0.0857396180493923
8.036676,5.789333934708728,0.0854838656551349
8.039067999999999,5.799952634634366,0.0851635338613071
8.041456,5.803633866760974,0.0849082277154175
8.043852,5.800377631088552,0.0847179849997933
8.046247999999999,5.797121395416134,0.0845277478206187
8.048632,5.79572749086327,0.0843251774446522
8.051012,5.804483859669351,0.0840163536252132
8.053408,5.814962789968128,0.0837014538185049
8.055791999999999,5.82823521694624,0.0833690708974488
8.058188,5.832008996871465,0.0831535271723926
8.060583999999999,5.83699348161019,0.0829161978803448
8.062971999999998,5.840627491908554,0.0827102788163391
8.065351999999999,5.845704524445897,0.0825186833774143
8.067756,5.852783657729654,0.0823093133269415
8.070139999999999,5.857720920640135,0.0821278936175346
8.072519999999999,5.861587248363979,0.0819617388525085
8.074924,5.863079388289068,0.0817881106779061
8.077312,5.8696466648936285,0.0815655511645928
8.079692,5.877704185565408,0.0813073224337904
8.082087999999999,5.889254051050823,0.0809958453047591
8.084475999999999,5.9001522902301815,0.0806771986970212
8.086856,5.904392600864231,0.0804019243119543
8.089252,5.9127768826179725,0.080082340562333
8.09164,5.92544490511827,0.0797102651517693
8.094019999999999,5.940115028364985,0.0793234302423549
8.096416,5.955064690865419,0.078922481924606
8.098804,5.962145720007047,0.0785849819044986
8.101199999999999,5.968714892469477,0.0782281781941765
8.103591999999999,5.971419633065934,0.0778971015825245
8.105979999999999,5.98162091996886,0.0774777655784969
8.10836,5.991542667618065,0.0770746204756804
8.110764,6.000673019334353,0.0766698966722972
8.113147999999999,6.003424981759052,0.0762897961176557
8.115528,6.001521116384859,0.0759323990725597
8.117923999999999,5.9976151502642505,0.0755907972050349
8.120312,5.991567313770365,0.075274418104061
8.122688,5.987102269142315,0.0749634212956417
8.125084,5.980495354140989,0.0746772215406899
8.127472,5.973608899885942,0.0744059802577963
8.129864,5.96215916563062,0.0741961637516056
8.132259999999999,5.947496625815384,0.0740208459448514
8.134647999999999,5.9364189786124,0.0738355233845828
8.137027999999999,5.926412266596054,0.0736382897465821
8.139424,5.917057180885767,0.0734519095630385
8.141812,5.9055602248022,0.0732885590383205
8.144207999999999,5.892992333531997,0.0731358815027189
8.146604,5.885220039687545,0.0729557125732724
8.148992,5.882894969574904,0.0727602192609393
8.151371999999999,5.885505266514874,0.0725307526892445
8.153775999999999,5.886765089014485,0.0723285813881563
8.15616,5.890027012260513,0.0721126491614826
8.158539999999999,5.889936360319766,0.0719360755993846
8.160943999999999,5.895292932110827,0.0717445228391157
8.163331999999999,5.903163461327504,0.0715559976658996
8.165712,5.913827487223514,0.0713564415607516
8.168108,5.923420577932889,0.0711677625142273
8.170492,5.934084603828898,0.0709689225999027
8.172875999999999,5.943957233791991,0.0707664308733235
8.175272,5.9563438211807,0.0705695242393808
8.177655999999999,5.975667876368436,0.0703265894003638
8.18004,5.9948521619293125,0.0700893664400254
8.182431999999999,6.015107382676827,0.0698436330439761
8.184816,6.0360142297304,0.0696117826367359
8.187211999999999,6.057992011970613,0.0693716759219978
8.189611999999999,6.077967693464408,0.0691448623277496
8.192,6.101668037197315,0.0689070192159444
8.194379999999999,6.122295344997168,0.0686944965695161
8.196784,6.142131256864102,0.0684824080934379
8.199167999999998,6.162758564663955,0.0682778003706198
8.201547999999999,6.182594476530889,0.0680703803364713
8.203952,6.200428287651407,0.0678773862663749
8.206335999999999,6.22268560914534,0.0676371593191284
8.208715999999999,6.242149433959936,0.0674066854828705
8.21112,6.26510560358817,0.0671356725695969
8.213508,6.287130607656623,0.0668685802625679
8.215883999999999,6.308364215792161,0.0665961505608091
8.218288,6.32773549280814,0.066330418972789
8.220676,6.350040036130315,0.0660515259636141
8.223052,6.371972492400151,0.0657515706354223
8.225448,6.38817818568446,0.0654757860007443
8.227836,6.409598785275099,0.0651616366345868
8.230215999999999,6.428225888186404,0.064856622812241
8.232619999999999,6.443128328858596,0.0645619077076566
8.235007999999999,6.453374941731895,0.0642796009853628
8.237388,6.469627856844446,0.0639643497611703
8.239783999999998,6.482807736023942,0.0636714742801877
8.242168,6.499340190390213,0.063346342317558
8.244551999999999,6.509726572890373,0.0630618745995958
8.246951999999999,6.5161087538977,0.0628007484225133
8.24934,6.520488834158609,0.0625502178138336
8.251724,6.524868914419518,0.0622998855226769
8.254116,6.527898520240068,0.062072231452491
8.256504,6.53600326274009,0.0618159167673994
8.258884,6.542617761172895,0.0615904046732863
8.26128,6.550303194792339,0.0613571283858903
8.263668,6.562784225837533,0.0611085358715383
8.266064,6.579921084681619,0.0608524735663155
8.26846,6.595707469085346,0.0606193395436304
8.270847999999999,6.607349882369379,0.0604134777322328
8.273228,6.623927662706023,0.0601871534251575
8.275623999999999,6.636081932669253,0.0600006701536216
8.278011999999999,6.648887828938541,0.0598252359800234
8.280391999999999,6.664487221887164,0.0596448558558126
8.282796,6.68367150744804,0.0594642375232459
8.285179999999999,6.694707620396389,0.0593287403275174
8.28756,6.707885603718015,0.0591780508801827
8.289956,6.718642177412644,0.0590568223481975
8.292344,6.735684592600243,0.0588952547313581
8.294723999999999,6.755939813347759,0.0587111346252522
8.29712,6.781921797080804,0.0585131568563684
8.299508,6.805901680067432,0.0583240432836301
8.301903999999999,6.8333739078676965,0.0581016631836262
8.304307999999999,6.853768898242071,0.0579154151369291
8.306692,6.867366190444278,0.0577504672401017
8.309071999999999,6.879892547459846,0.0575938290847497
8.311475999999999,6.8885544726094405,0.0574495712830302
8.313863999999999,6.8933519658930615,0.0573177336151177
8.316244,6.895355962497348,0.0571895292412193
8.318639999999998,6.898151355034552,0.0570657468330803
8.321028,6.898944646825339,0.0569514862829752
8.323407999999999,6.9050926145493206,0.0568013201214018
8.325807999999999,6.91259105671366,0.0566321814000416
8.328192,6.921300203691498,0.0564509245250172
8.330575999999999,6.930288889923055,0.0562585611582487
8.332972,6.943701086528026,0.0560305626329406
8.33536,6.955250952013442,0.0558059598685951
8.33774,6.964286860073244,0.0555716835199377
8.340136,6.966245530707156,0.0553688156454884
8.342524,6.963268834288456,0.0551828372900045
8.344899999999999,6.955636310070864,0.0550022463487959
8.347304,6.952427296226689,0.0547879570965762
8.349692,6.947076412009235,0.0545884355612276
8.352072,6.948802765217669,0.0543599848930487
8.354472,6.958537521411771,0.0541010949338862
8.35686,6.968691586486455,0.0538250573369064
8.35924,6.981127291561274,0.053530548177765
8.361644,6.99090926958362,0.0532314055063355
8.364032,7.00525452760624,0.0528950050929298
8.366408,7.021090029696079,0.0525345657193632
8.368812,7.035063200666361,0.0521760985486833
8.3712,7.042098903837615,0.0518404497957109
8.373579999999999,7.0441992399562565,0.051518230334478
8.375983999999999,7.040293273835648,0.0512159311716879
8.378371999999999,7.0353163725284,0.050920485862215
8.380752,7.031410406407791,0.0506193122254973
8.383156,7.0256421091676255,0.050318113616882
