Time,Force,Position
5.897055999999999,3.478893385974057,0.1575177072668354
5.89946,3.4891815331019926,0.1573710206536082
5.901847999999999,3.50426527765568,0.1570807636195081
5.904228,3.5266585770607333,0.1566088690181507
5.906632,3.555150726503655,0.1560086814278745
5.90902,3.588857782252908,0.1552114731199758
5.9114,3.6199111109496873,0.1544491706790418
5.913796,3.645889302966994,0.1538699367255357
5.916180000000001,3.672007264611161,0.1532825790666314
5.918564,3.7078089689054488,0.1524545304902066
5.920968,3.7471955658119898,0.1515333876634745
5.923352,3.7867219323453902,0.1506093777603222
5.925732,3.820428988094644,0.1497922538376769
5.928132,3.8493404464181458,0.1491297247446474
5.930515999999999,3.875598177689173,0.1485443419365231
5.932896,3.899574268960063,0.1480597634715641
5.9353,3.927462013925169,0.147378241165864
5.937683999999999,3.9513927792256847,0.1467480234419213
5.940064,3.9780244934069184,0.1459876875426901
5.9424600000000005,4.002374567588015,0.1453525129825676
5.944844,4.021137648410442,0.1448631544436846
5.947227999999999,4.036315836620616,0.1444609264503091
5.949624,4.044464009233143,0.1442052492954024
5.952007999999999,4.045582166248024,0.144095943075494
5.954404,4.043255200277513,0.1440497027825824
5.956799999999999,4.04185939986678,0.143981416090886
5.959187999999999,4.047960145762517,0.1436683661667427
5.961568,4.056901610165832,0.143218218591443
5.963972,4.066541922703449,0.1427085419887679
5.966355999999999,4.072597342628811,0.1422755922449691
5.968736,4.076231352927177,0.1419366025052134
5.97114,4.080936298412181,0.1415677042462041
5.973528,4.087643344643602,0.141140059513981
5.975908,4.095049239009323,0.1406445908138344
5.978312000000001,4.104037925240881,0.1401374301510613
5.980700000000001,4.114469633711416,0.139627295029403
5.983079999999999,4.123411098114731,0.1391932527183308
5.985484,4.138778173637878,0.1385662664724556
5.987871999999999,4.1507001261756304,0.1380003645923529
5.990252,4.158478107593689,0.1375544407866458
6.088208,3.977269293392004,0.1369829448240463
6.090591999999999,3.980574646750537,0.1369455129945967
6.092995999999999,3.9857423312286255,0.136872319416614
6.095383999999999,3.999197957946104,0.1365717122052776
6.097759999999999,4.015586850969775,0.1362010513156817
6.100164,4.032347831045785,0.1358593547212385
6.102551999999999,4.055906509293964,0.1353625481743659
6.104932,4.084028467542416,0.134700114692797
6.107336,4.113500900231229,0.13398136968679
6.109724,4.137758426613709,0.1334201844318909
6.112104,4.160945017809549,0.1328893705086081
6.114508000000001,4.190277680871501,0.132200823634312
6.116892,4.218027552067616,0.1315357333318186
6.1192720000000005,4.246708588823511,0.1308602868799132
6.121675999999999,4.282187323751573,0.1300275245300285
6.124064000000001,4.318876763493133,0.1291616402905858
6.126443999999999,4.351841540995582,0.1283753622391013
6.128848,4.383363296259053,0.1275955778737899
6.131236,4.414745281895666,0.1268408763298752
6.133616,4.4438456275321405,0.1261710105473691
6.136011999999999,4.468662232422061,0.1256172076131975
6.138400000000001,4.490405801378926,0.1251438397789716
6.14078,4.510147269589374,0.1247230186442186
6.143176,4.532310147426819,0.1242413849668543
6.14556,4.55153975895807,0.1238175039220315
6.14794,4.572259614556539,0.1233325199363488
6.1503440000000005,4.5900462038488135,0.1229153315945639
6.152728,4.6066220883275895,0.1225356896501615
6.155108,4.624548447246724,0.1221141283811739
6.1575120000000005,4.645687611725774,0.1216163067476117
6.159896,4.671762143257435,0.12102881785481
6.162276,4.694903408482904,0.1205090852398967
6.164672,4.7191156088950095,0.1199716628914427
6.167059999999999,4.73974291669486,0.1194805085149388
6.16944,4.756505792628739,0.1190594293855578
6.171844,4.770335402256423,0.1186922186939202
6.174232,4.784956407817026,0.1183202757763164
6.176612,4.800508578937405,0.1179374966440961
6.179016000000001,4.811404922258895,0.1176223590015652
6.181404000000001,4.821370100020605,0.1173218475586532
6.183783999999999,4.83426854408851,0.1169673611010865
6.186188,4.849448628156552,0.1165561023603142
6.188575999999999,4.862906150731899,0.1161620806750013
6.190956,4.871800393306971,0.115892151847634
6.19336,4.884559067748017,0.1155591156557191
6.195748,4.897597281442783,0.1152087924440353
6.1981280000000005,4.908493624764271,0.1149052836684683
6.200524,4.9212522992053165,0.114575682733567
6.202912,4.932380959952283,0.1143142412681173
6.205292,4.940296815139333,0.1141228316888409
6.207687999999999,4.942346137713994,0.1140288540927507
6.210072,4.944255690661794,0.1139456509693945
6.212452000000001,4.943231977303398,0.1139098196591102
6.214848,4.946072695810976,0.113814954602826
6.217236,4.953057385438247,0.1136425033572283
6.219616,4.961113010252159,0.1134476195628793
6.2220200000000006,4.96972771357351,0.113213149365314
6.224408,4.979925208760697,0.1129778073139086
6.226787999999999,4.996129006187135,0.1126427279353702
6.229188000000001,5.015685378800349,0.1122381166794567
6.231576,5.035800829921004,0.1117977692477713
6.23396,5.052051849175685,0.1114144361694151
6.236356000000001,5.070025429923063,0.11101844678242
6.23874,5.087347384364382,0.1106155038285673
6.24112,5.105600504365481,0.1102078331090796
6.24352,5.1222236106725,0.1098607140135897
6.245904,5.141128356979656,0.1094631812449428
6.248284,5.1591019377270335,0.1090777721959197
6.250688,5.175492726608576,0.1086952478613087
6.253076,5.192954450676756,0.1082906345487073
6.255459999999999,5.213069901797411,0.1078606973890691
6.257864,5.231043482544788,0.1074722469399405
6.260248000000001,5.2496686895982245,0.1070908002974144
6.262627999999999,5.266291795905243,0.106744484978679
6.265032,5.280773031838985,0.1064440961340341
6.26742,5.297535907772863,0.1060976708316629
6.2698,5.312948309266384,0.105790273925732
6.272195999999999,5.323704882961013,0.1055363561825383
6.274583999999999,5.331388420722585,0.105335023896153
6.276964,5.33679031848402,0.1051843750443737
6.2793600000000005,5.3391191803124,0.105082381194692
6.281744,5.34731457475317,0.1049034772554786
6.284127999999999,5.352996011768327,0.1047358511934986
6.286524,5.355883952104149,0.104597166425888
6.288907999999999,5.352905359827579,0.1045365589173141
6.291288,5.35169655087195,0.1044110557522984
6.293692,5.349696345983404,0.1042864329441505
6.29608,5.353190586654909,0.1040613044180494
6.29846,5.35961809363261,0.1037998168011734
6.300851999999999,5.367396075050669,0.1035032630979954
6.303240000000001,5.376943839789667,0.1031470333336122
6.305636,5.386771143782386,0.1027714368584832
6.308032000000001,5.396226360722769,0.1023690858930429
6.310420000000001,5.404750412103372,0.1019756167478911
6.312799999999999,5.410341197177781,0.1016181735373554
6.315204,5.413650342252052,0.1013078224443877
6.317588000000001,5.420963688819156,0.1009453606902415
6.319967999999999,5.429208200946038,0.1005716012929278
6.322372,5.434239907513005,0.1002496277161749
6.324756000000001,5.437269513333557,0.0999550628079204
6.327135999999999,5.443092615833443,0.0996327474878489
6.329544,5.4437008120269965,0.0993933633242826
6.331928,5.443749929713108,0.0991881057441676
6.334308,5.448454875198112,0.09893692993384
6.336712,5.456372626243032,0.0986296366566457
6.3391,5.464662464340289,0.0983519069274325
6.341480000000001,5.471322288743467,0.0981276227291537
6.343876,5.47434999870615,0.0979868297943986
6.346264,5.472442341616219,0.0979071977561187
6.348648000000001,5.471186310832346,0.0978367519883686
6.351044,5.467229331167756,0.0978355385422162
6.353427999999999,5.464203517062944,0.0978258161497313
6.355812,5.463551890756885,0.0978168427502283
6.358207999999999,5.466624926689939,0.0977747643207118
6.3605920000000005,5.474912868929327,0.0976577352581969
6.362976,5.483061041541855,0.0975494550531878
6.365372000000001,5.4872050126615495,0.0974915019111057
6.3677600000000005,5.494701558968019,0.0973759872723029
6.370139999999999,5.505550680461265,0.0972010743007031
6.372544,5.514537470834953,0.0970407183516204
6.374931999999999,5.525526361955059,0.0968578832811911
6.377312,5.534932461209329,0.0966722120544206
6.379712,5.549833006023651,0.0963953637192537
6.382099999999999,5.560729349345141,0.096168067995503
6.38448,5.572556858226407,0.0959342214898786
6.386875999999999,5.580799474495421,0.0957239477243624
6.389264000000001,5.590532334831655,0.0954709140120749
6.391648,5.596540532928774,0.0952498634582317
6.394052,5.606552932518728,0.0949789300748104
6.39644,5.612840669869568,0.0947403851881102
6.398823999999999,5.617405845727712,0.0945081692746447
6.401228,5.621971021585855,0.0942762137039343
6.403612000000001,5.6258845711379415,0.0940366701534372
6.405992,5.627284163264412,0.0938052561050312
6.4084,5.62440001464433,0.0936392658393852
6.410784,5.621515866024247,0.0934732755737392
6.413168000000001,5.618911256657883,0.09328988043844
6.415564,5.613885237664524,0.0931557829686
6.417952,5.615796686470192,0.0929468304874097
6.420332,5.622783271955335,0.0926766775780649
6.422727999999999,5.6289784615075575,0.0924088543958678
6.425115999999999,5.639177852552614,0.0920960319235839
6.427496,5.646304207664615,0.0918233585715215
6.4299,5.655712202776755,0.0915114814517607
6.432283999999999,5.664189032329116,0.0912078963333332
6.434664,5.677880768187808,0.0908400064610146
6.437060000000001,5.691572504046501,0.0904732385986838
6.4394480000000005,5.707266340651611,0.0900837066131775
6.441827999999999,5.721889242070082,0.0897106601876665
6.444232,5.739445409794748,0.0893097416438996
6.446616000000001,5.763287419012386,0.088832774389011
6.449,5.7892712986033,0.0883307105182388
6.451395999999999,5.814463782261296,0.0878305117778519
6.453784000000001,5.835372525172738,0.0873846475294647
6.456163999999999,5.857212433643959,0.0869314109962724
6.45856,5.878540485435981,0.0864607471788184
6.460948,5.901591098720701,0.0859866050491626
6.463328000000001,5.925992186445778,0.0854844684726478
6.465731999999999,5.938520439319216,0.0851005328616235
6.468119999999999,5.947835886632737,0.0847601039434841
6.4705,5.953286902080285,0.0844526162300299
6.472892,5.957527212714335,0.0841678944870356
6.47528,5.961627753721524,0.0838913909485667
6.47766,5.966938999542213,0.0835946867829806
6.4800640000000005,5.9722502453629005,0.0832985451720271
6.482452,5.972067045623536,0.0830783221824688
6.484831999999999,5.973885946630588,0.0828402253671659
6.487235999999999,5.974122055771803,0.0825972547253696
6.489623999999999,5.976639804913157,0.0823214389605624
6.492004,5.9783661581215926,0.0820442494887008
6.494408,5.975017374650556,0.0818177664298571
6.496796,5.970737425619739,0.0815973790717207
6.499176,5.966177937335203,0.0813920162874173
6.501572,5.967624751289918,0.0811332275351724
6.503959999999999,5.968559708565435,0.0808566558480338
6.50634,5.970286061773869,0.0805825933862943
6.508744,5.972152184609165,0.0803021570567052
6.511127999999999,5.969082940391848,0.0800602537728485
6.513508,5.971880228786921,0.0797722553361622
6.515908,5.978821488301687,0.0794434154017094
6.518295999999999,5.989487410055568,0.0790959191592431
6.520676,6.000293101436309,0.0787415506644641
6.523071999999999,6.0121697280036885,0.0783762301411189
6.525460000000001,6.024697980877126,0.0780244896905764
6.527839999999999,6.036295068190785,0.0776776415590685
6.530236,6.052036126624138,0.0772903991658048
6.532624,6.064564379497575,0.0769405290666172
6.535004000000001,6.078675424236848,0.076596157949242
6.5374,6.088223188975847,0.0763146553551976
6.539792,6.096700018528207,0.0760453818482037
6.542171999999999,6.102103812147514,0.0758023446256637
6.544568,6.104155030580042,0.0756023164298374
6.546956,6.104343917893014,0.0754106665663993
6.549352000000001,6.104952114086567,0.0751983140183638
6.551748,6.109145202892374,0.0749774073708812
6.554136,6.116131788377515,0.0747456058979064
6.556516,6.121256042743099,0.0745225186778526
6.558911999999999,6.1328984560271325,0.0742707506167178
6.561299999999999,6.145472034870944,0.074017142866243
6.56368,6.153250016289003,0.0737918700629694
6.566076000000001,6.1560926306544514,0.07360047593413
6.5684640000000005,6.158795475393038,0.073416535951761
6.570843999999999,6.15842528419857,0.073258457017564
6.573243999999999,6.15311972595149,0.0731338506935183
6.575632000000001,6.1504678947568845,0.0730051444128082
6.578011999999999,6.144882797256084,0.0728950271687293
6.580408,6.140368634941921,0.0727737971121709
6.582796,6.133852371881343,0.0726669521941156
6.585179999999999,6.129897288074622,0.0725160872267595
6.587579999999999,6.128316392066655,0.07237586536265
6.589968000000001,6.133393424603995,0.0722020153669364
6.592352,6.141823032328112,0.0719878994861863
6.594747999999999,6.155048237477982,0.0717489022390303
6.597135999999999,6.164781097814216,0.0715582344323873
6.599516,6.166645324791641,0.0714176890298548
6.601912,6.164645119903094,0.0712991924258574
6.6043,6.1655781813207415,0.071163241965145
6.606679999999999,6.160644710125999,0.0710625658506665
6.609083999999999,6.15398867743856,0.0709616921942698
6.611471999999999,6.149055206243817,0.0708607427766556
6.613852,6.14705500135527,0.070741961248661
6.616251999999999,6.147988062772916,0.0706065081309169
6.618636,6.154275800123757,0.070419582086845
6.621015999999999,6.16470750859429,0.0701979306869185
6.623416000000001,6.175698295572265,0.0699506908026027
6.6258,6.186828852177101,0.069696091081209
6.628195999999999,6.197307782475878,0.0694308310977537
6.630592,6.214072554267626,0.0691138998667257
6.63298,6.230557786805654,0.0688120031019489
6.63536,6.244948370798648,0.0684854522094532
6.637764000000001,6.258827098112444,0.0681449582783696
6.6401520000000005,6.270703724679823,0.0678181487955621
6.642531999999999,6.279647084941008,0.0675086860347481
6.644928,6.28966138038883,0.0671892756254054
6.647311999999999,6.309825949195597,0.0668021580803368
6.649692,6.330130287629225,0.0664077751175055
6.652092,6.347501359756658,0.0660304192533144
6.65448,6.372788287071141,0.0655696999516881
6.656855999999999,6.3988666103185405,0.0651158507094611
6.65926,6.4261556383794405,0.0646482429921129
6.661648,6.454515601626977,0.0641733823294848
6.664028,6.479150902635404,0.0637112932646092
6.666423999999999,6.500573398083913,0.0632807985772916
6.668811999999999,6.521716354278702,0.0628661780743909
6.671208,6.539366965659855,0.0624932500103096
6.673603999999999,6.5611615481607,0.062095244605964
6.675988,6.586541023273801,0.0616983748919949
6.678372,6.608847462453845,0.0613260523740937
6.680764,6.630502275327831,0.0609433124280754
6.683152,6.652948484134734,0.0605666211633769
6.685532,6.667106750702251,0.0602416598261225
6.687927999999999,6.682196182829546,0.0599152413512706
6.690315999999999,6.697565154210561,0.059576769255215
6.692712,6.715075995964854,0.0592239305619124
6.6951160000000005,6.724578434733479,0.0589123154784059
6.6975,6.737014139808298,0.0585908196069632
6.699883999999999,6.74837890969648,0.0582764055614128
6.70228,6.75247945070367,0.0580492133403851
6.704668,6.754438121337581,0.0578378372286124
6.707051999999999,6.757188187904413,0.057632557377772
6.709448,6.757004988165047,0.0574376749767355
6.711831999999999,6.754819687679266,0.0572509142223926
6.714216,6.753425783126402,0.0570694367389239
6.716612,6.752311417827259,0.0568759765108727
6.718996000000001,6.750265886968338,0.0566830273822048
6.721375999999999,6.741934514616444,0.0565292990982676
6.723775999999999,6.727736609652162,0.056395548355417
6.72616,6.711257064687742,0.0562827942814582
6.728540000000001,6.695289376402519,0.0561872078793417
6.730943999999999,6.676900278490299,0.0561187511202059
6.733331999999999,6.6674507491235255,0.0560140135809457
6.735716,6.658792615689669,0.0559143528870226
6.738111999999999,6.64599051113612,0.0558376442055789
6.740499999999999,6.628113269903099,0.0557852055545522
6.742884,6.613029525349411,0.0557289588866437
6.745279999999999,6.59380180967603,0.0556957638133893
6.747664,6.577367590681984,0.0556589668635495
6.750048,6.565356882061352,0.0555861430644939
6.752452,6.5545568782542185,0.0554992251655644
6.75484,6.542965478514168,0.0554068811070846
6.75722,6.533236409893672,0.0553121269017145
6.7596240000000005,6.526300837952514,0.0552138918718397
6.762012,6.518573870078436,0.0551102626121614
6.764391999999999,6.507913635898163,0.0550153313748586
6.766788,6.500466207277805,0.0548983251685838
6.769176,6.497814376083199,0.0547703305112204
6.771556,6.500377451194927,0.054612495536145
6.773952,6.504011461493292,0.0544472861591627
6.776339999999999,6.510858277351573,0.0542615859668414
6.778724,6.520126502836851,0.0540486047372898
6.78112,6.528603332389211,0.0538323149638449
6.783507999999999,6.5372199315684325,0.0536107751210195
6.785888,6.551842832986902,0.0533659803887845
6.788292,6.570609705525068,0.0530994693138794
6.790676,6.589516347690093,0.0528273917220586
6.7930600000000005,6.611635795415033,0.0525348882956311
6.795456,6.6311015160875,0.052238348346886
6.797839999999999,6.645771639334214,0.0519513220847475
6.80022,6.66030199295407,0.0516711536535463
6.802624,6.668406735454092,0.0514304636917693
6.805012,6.676791017207837,0.0511777240789401
6.807396000000001,6.686106464521359,0.0509251140386655
6.809792,6.691417710342046,0.0506858660866774
6.81218,6.698451517655431,0.050451625072182
6.81456,6.702272519408901,0.0502376205193915
6.8169640000000005,6.700366758176839,0.0500319342386171
6.819352,6.694317025825083,0.0498467877250864
6.821731999999999,6.68733612791355,0.0496616957196473
