Time,Force,Position
6.692992,1.6537257625127002,0.1962304194839905
6.69538,1.735090294687059,0.1938748306801699
6.697759999999999,1.8216697331677505,0.191195172104039
6.700156,1.914255473887693,0.1882943808331302
6.702544,2.008563776100331,0.1858446775411426
6.704927999999999,2.1064569709252225,0.1833692522761386
6.707324,2.208214597616087,0.1808022754515789
6.709712,2.3149075913595643,0.1780177517767828
6.712092,2.4105191461843183,0.1763919718529335
6.714487999999999,2.5099951328750456,0.174556654956931
6.716875999999999,2.608400184379135,0.1730207649962457
6.71926,2.700938703270834,0.1720135779174976
6.721655999999999,2.798180271789668,0.1706516965103365
6.724043999999999,2.894398126950106,0.1693440670341998
6.726424,2.988149246513172,0.168042855623638
6.728828,3.0806443352923667,0.1666720876336766
6.731216,3.174304802914685,0.1650471390388724
6.733596,3.2724832245669053,0.1629641299201013
6.735992,3.359302563904551,0.1612328479727428
6.738379999999999,3.439278879099654,0.159670596788708
6.74076,3.511341234965576,0.1583397993174079
6.74316,3.580424998554929,0.1570248690087119
6.745547999999999,3.642665738001739,0.1558983526878673
6.74794,3.6940592518131727,0.1550809000169986
6.750335999999999,3.735816244802729,0.1544749861833272
6.752723999999999,3.770450674396023,0.1540046304464987
6.755108,3.7978227709661927,0.1536788890399611
6.757503999999999,3.819934635259657,0.1534261299334048
6.759888,3.8420011735827466,0.1530189820426642
6.762271999999999,3.85880747962913,0.1526736765830737
6.764676,3.8692826182121687,0.1524266747512503
6.767059999999999,3.876080316384338,0.1522079055493489
6.781395999999999,3.836980842162995,0.1521962665521334
6.783776,3.8269269083184057,0.1521666523840241
6.786171999999999,3.819573923354535,0.1520001796018998
6.78856,3.814782117644522,0.1517124734431919
6.790939999999999,3.810549390441949,0.151369630478339
6.793336,3.8055252673064586,0.1510368399320607
6.795724,3.803853719357744,0.1505767601211364
6.867407999999999,3.48035426129422,0.150193787448157
6.869788,3.486685428757565,0.1501148980710835
6.872192,3.4988831288333,0.1498564116935023
6.874575999999999,3.512523851148011,0.1495967044863214
6.876959999999999,3.5308204012616136,0.1492185340628288
6.879356,3.55284161361433,0.1487404752953478
6.881743999999999,3.574723056340186,0.1482813451086051
6.884124,3.598187290931878,0.1478006183756371
6.886519999999999,3.632173885934852,0.1470202894614479
6.888907999999999,3.668534668736581,0.1462037140319683
6.891287999999999,3.706618013031006,0.145346366942415
6.893684,3.748565789191404,0.1443813525232339
6.896072,3.787720068672468,0.1435023743519079
6.898456,3.8285969096462273,0.1426195925623327
6.900851999999999,3.866772801739269,0.1418714712543661
6.90324,3.901735888272396,0.1412403094725515
6.905619999999999,3.932694773312688,0.1407448486061494
6.908023999999999,3.966075067979978,0.1401571965309478
6.910411999999999,4.005741204140239,0.1393649132956148
6.912792,4.038749411755192,0.1387711582955196
6.915196,4.071757619370144,0.138193695439469
6.917584,4.105976531798596,0.1375839668387152
6.919964,4.137541717174572,0.1370335910332408
6.922367999999999,4.170317607364047,0.1364511312133322
6.924756,4.200439770501048,0.1359280648733405
6.927135999999999,4.232983343265047,0.1353338559957287
6.929532,4.262593649722848,0.1348038773586571
6.93192,4.289550229128176,0.1343138565566654
6.934303999999999,4.30784677924178,0.1340263430722535
6.9367,4.330287300475077,0.1336350977487728
6.939083999999999,4.353007360962094,0.1332213660805133
6.941467999999999,4.371071593650219,0.1329019940162996
6.943871999999999,4.386482099285871,0.1326214394906542
6.946256,4.394163741189574,0.1325145760206395
6.948639999999999,4.405058188653195,0.132314235045162
6.951036,4.419305211303589,0.1320094615434168
6.953424,4.438767140260317,0.1315719681643356
6.955803999999999,4.454364637351071,0.1312231356760274
6.9582,4.463164436269656,0.1310256104331675
6.960588,4.471033069628462,0.1308453359334816
6.962968,4.474385644815238,0.130743355328871
6.965363999999999,4.476015658509318,0.1306664163670987
6.967751999999999,4.478716607390036,0.130560675055643
6.970136,4.478624059591419,0.1305075138003601
6.972531999999999,4.479881986233162,0.1304030664744778
6.974919999999999,4.478066876941847,0.1303721616529286
6.977316,4.477602242090892,0.1302901181787725
6.979711999999999,4.483283679106049,0.1300640715910793
6.982096,4.493248856867759,0.1297243121227743
6.98448,4.495764710151244,0.1295183852252427
6.986875999999999,4.496837541195752,0.1293111282756997
6.98926,4.5049876096661485,0.12894853016162
6.991643999999999,4.520075145935575,0.1284429703897331
6.99404,4.538235718138056,0.1278567279676386
6.996428,4.559888635154173,0.1271829337317135
6.998808,4.580470616983651,0.1265441405143845
7.001204,4.593044195827463,0.1260768604297356
7.003591999999999,4.60748010579083,0.1255791176298961
7.005988,4.629924418739865,0.1249204881798038
7.008384,4.6574438683683725,0.1241626846112944
7.010771999999999,4.687896584303076,0.1233473838007671
7.013156,4.717278365051141,0.1225632696608812
7.015552,4.74810316803818,0.1217929133482654
7.017935999999999,4.777717266211722,0.1210564196137044
7.02032,4.804630415504545,0.1204182043746251
7.022715999999999,4.829261924797231,0.1198404919967199
7.025103999999999,4.858689031515669,0.119188379535144
7.027483999999999,4.884111936741274,0.1186249898713016
7.029883999999999,4.912328338646213,0.118032506394169
7.032271999999999,4.94692312984274,0.1173580207632769
7.034652,4.985474900703857,0.1166754234155615
7.037056,5.017601060445144,0.1161443673397938
7.039439999999999,5.044372544253238,0.1157348141533079
7.04182,5.075008459927305,0.1152675062722254
7.044212,5.096145728548486,0.11499762399182
7.0466,5.118214162729446,0.1147193037510737
7.048995999999999,5.143076093589739,0.1143987922477832
7.051399999999999,5.168077794076894,0.114071307905752
7.053784,5.18600225713816,0.1138745770393644
7.056163999999999,5.197780648333316,0.1137925630421781
7.05856,5.210490205088248,0.1137003150298165
7.060948,5.221989057029683,0.1136391567354338
7.063328,5.232044886732141,0.1135744167348693
7.065724,5.243451190874958,0.1134686199298763
7.089616,5.240332828971528,0.1134098557262915
7.091999999999999,5.2372144670681,0.1133627685248635
7.094396,5.233304709231752,0.1133175359697668
7.096779999999999,5.229814260275986,0.1132438188376778
7.099164,5.224601249827522,0.1131831953942559
7.101559999999999,5.221530109752337,0.1130807388699987
7.103944,5.216596638557593,0.1130010675485247
7.106339999999999,5.206867569937098,0.1129896089304074
7.108736,5.198488975756963,0.1129374233994129
7.111124,5.188108280830409,0.1129178496590427
7.113503999999999,5.178798521090496,0.1128759895730701
7.1159,5.1674866606041645,0.112866271775885
7.118283999999999,5.157665044185053,0.112805450088828
7.120668,5.155060434818691,0.1126169826320826
7.123063999999999,5.153946069519548,0.1123785839368025
7.125447999999999,5.157674523474399,0.1120188151965769
7.127832,5.158889020003637,0.1116709664879408
7.130227999999999,5.161174451719513,0.1113020814301294
7.132612,5.159083594890217,0.1109702263899947
7.135012,5.155689485448805,0.1106214208565447
7.137407999999999,5.151224440820756,0.1102930749601888
7.139795999999999,5.147038935446427,0.1099465771766909
7.142175999999999,5.139920163765903,0.1096422711709513
7.144572,5.132009996152459,0.1093387007063474
7.14696,5.126241698912294,0.1089939495773111
7.149339999999999,5.120613171298989,0.1086396225033038
7.151736,5.119268384432237,0.108201131484089
7.154124,5.12220733831204,0.1076793059039648
7.156504,5.125146292191843,0.1071582706918316
7.158899999999999,5.129295950885145,0.1066069960411238
7.161287999999999,5.1291618688318925,0.1061358778599525
7.163684,5.130750348271336,0.1056513920984497
7.166079999999999,5.127775547710506,0.1052671582578705
7.168467999999999,5.118934214537285,0.1049667361843648
7.170848,5.1091617158042855,0.1046760531773113
7.173243999999999,5.092684066697735,0.1045252681650907
7.175632,5.077509670203299,0.1043918507704651
7.178011999999999,5.059262237775809,0.1043098539348329
7.180408,5.0415266620275165,0.1042468291721895
7.182796,5.029238310011033,0.1041261641991387
7.185179999999999,5.017601584300608,0.1040140395755549
7.187576,5.0018208874704895,0.1039741249179526
7.189959999999999,4.986971356200149,0.1039235485991263
7.192344,4.97542717828834,0.1038583954579772
7.194747999999999,4.965326022615507,0.1038000532521429
7.197135999999999,4.957226967689093,0.1037104113636124
7.199515999999999,4.949779539068735,0.1036293724590755
7.201912,4.943775132687354,0.103556534597799
7.206679999999999,4.927854666230376,0.1035162556925687
7.209083999999999,4.9262265483941645,0.1034128214330458
7.211468,4.923247956117596,0.1033477098958421
7.213847999999999,4.922131694960584,0.1032623203729038
7.216244,4.928324988654937,0.1031073955560867
7.218631999999999,4.937404326827243,0.1029710620854108
7.221027999999999,4.953700672052298,0.1027175104559125
7.223424,4.9770742547032425,0.1023606286376789
7.225811999999999,5.004963895526219,0.101963574720382
7.228192,5.039651234521362,0.1014845551152141
7.230596,5.070194602396813,0.1010801262137686
7.232984,5.101669135832042,0.1006675079243418
7.235363999999999,5.139010201879661,0.1001807358429395
7.23776,5.177142663860199,0.0996930798398092
7.240143999999999,5.210619298041845,0.0992542944287909
7.242523999999999,5.23794986035738,0.0989081719375241
7.244932,5.261927847486138,0.0986295854704357
7.247316,5.288839100921091,0.0983205374741798
7.249696,5.309744052116795,0.0980932770208815
7.252091999999999,5.334653204805332,0.0978140285282076
7.254479999999999,5.361564458240286,0.0975070071472077
7.256864,5.384191970928686,0.0972768671726556
7.259259999999999,5.411242993990501,0.096968377851638
7.261647999999999,5.442437988172011,0.0966003976953425
7.264028,5.468697615300908,0.0962989167797945
7.266423999999999,5.49314213313849,0.0959642611048065
7.268808,5.5143738454161575,0.0956851990120653
7.271191999999999,5.530390651387493,0.0954862545918582
7.273588,5.545755831052769,0.0952804069887834
7.275976,5.553112607732377,0.0951735069024904
7.278371999999999,5.562611254785264,0.095034699730693
7.280768,5.572529210718731,0.0948717071976963
7.283156,5.576440864412948,0.0947807245210359
7.285535999999999,5.58342555404022,0.0946508157779238
7.287932,5.593483279600548,0.0944811552455521
7.290319999999999,5.609035450720929,0.0942221011597218
7.2927,5.625798326654808,0.0939377700795285
7.295095999999999,5.639627936282491,0.0936888019253233
7.297483999999999,5.657881056283589,0.0933666642616209
7.299863999999999,5.671338578858935,0.0930921468740124
7.302268,5.682002604754947,0.0928394839639264
7.304651999999999,5.691223608411982,0.0925757275628919
7.307036,5.698582280949461,0.0923300592033403
7.309431999999999,5.707151658300439,0.0920653665094421
7.311816,5.7144177830393,0.0917812883129239
7.3142,5.723126930017139,0.0915097346780458
7.316595999999999,5.733977947368253,0.0912095907947592
7.31898,5.747250374346365,0.0908650795706738
7.321375999999999,5.761453966884255,0.0905170396749251
7.323772,5.781152004982199,0.0900869616717293
7.32616,5.79577490640067,0.0897141529891442
7.32854,5.810258038192281,0.0893523306324008
7.330943999999999,5.832097946663502,0.0888987332252106
7.333331999999999,5.850073423268748,0.0884820619228443
7.335711999999999,5.868840295806913,0.0880705063239719
7.338108,5.886676002785299,0.0876697625499373
7.340496,5.908655680883381,0.0872263387870761
7.342879999999999,5.930775128608322,0.0867781732319956
7.345276,5.951544101892903,0.0863611039517054
7.347664,5.975897967789738,0.0859283797845441
7.350043999999999,6.005606509619766,0.0854309638320343
7.35244,6.039970879248685,0.0849074897175041
7.354827999999999,6.071122443317687,0.0844248922165802
7.357208,6.0941258347741645,0.0840277892698088
7.359603999999999,6.118432478842756,0.083648933244325
7.361991999999999,6.138734921418515,0.0833082144039068
7.364388,6.155033162501439,0.083006121011054
7.366783999999999,6.168118598024449,0.0827450972640535
7.369171999999999,6.175989127241126,0.0825420656932604
7.371551999999999,6.183580117204081,0.0823565082712211
7.373951999999999,6.195315078286732,0.082125753795251
7.376339999999999,6.204768399369244,0.081928824015913
7.378724,6.210729375638121,0.0817879628505024
7.381119999999999,6.217621517466776,0.0816417343568517
7.383507999999999,6.2240018026162325,0.0814798504146775
7.385888,6.226098347019136,0.0813681950221692
7.388283999999999,6.222979985115708,0.0813124007822187
7.390672,6.216928356906084,0.0812791200667122
7.393051999999999,6.211156267950179,0.0812309313652798
7.400219999999999,6.176008085819819,0.0811851194332895
7.402616,6.1666511042516605,0.0811480890968026
7.405004,6.165442295296032,0.0810367984389664
7.407383999999999,6.167725831154039,0.0808761188893718
7.40978,6.173501711825681,0.0806655214324985
7.412167999999999,6.181279693243741,0.0804378130283924
7.414564,6.189337213915519,0.0801951327927435
7.416959999999999,6.202889180147351,0.0798856370462501
7.419347999999999,6.210295074513073,0.0796321418125394
7.421728,6.216630033692158,0.0793913687421265
7.424128,6.225386402498238,0.0791127218583879
7.426511999999999,6.231489044251846,0.0788403327629843
7.428896,6.234658419699256,0.0785878759807387
7.431291999999999,6.234614989586751,0.0783710212420924
7.433679999999999,6.238855300220801,0.078106145603204
7.436064,6.241373049362154,0.0778415831361943
7.438459999999999,6.2438907985035055,0.0775755174603855
7.440847999999999,6.247339713204637,0.0773056390321779
7.443232,6.251719793465547,0.077031171989284
7.445627999999999,6.256099873726457,0.0767571638410251
7.448015999999999,6.262621824360644,0.0764600386718435
7.450396,6.262346076822663,0.0762094033792098
7.452791999999999,6.254993091858791,0.0760187660136664
7.45518,6.244567070961864,0.0758556667430693
7.457559999999999,6.23293034525144,0.0757107387923069
7.459956,6.222644093981373,0.0755399185117309
7.462344,6.216222274577279,0.0753460118913787
7.464727999999999,6.205796253680353,0.075181796783965
7.467124,6.201935613530117,0.0749437746768593
7.469512,6.198214743006743,0.0746986835415621
7.471907999999999,6.190629440617396,0.0744754412907395
7.474304,6.189981606027076,0.0742054448451854
7.476692,6.197481944049285,0.0738719387414374
7.479075999999999,6.205913447631272,0.0735334347639276
7.481472,6.214065411959538,0.0732107245611529
7.48386,6.2260818081537765,0.0728659188762293
7.486239999999999,6.239029369907794,0.0725161520749508
7.488636,6.249043665355617,0.0721843689888749
7.491028,6.263062162296274,0.0718278508458207
7.493407999999999,6.276801119983211,0.0714857772614794
7.495804,6.290260538416426,0.0711596686473682
7.498191999999999,6.309866028715751,0.0707869263573355
7.500572,6.331613389388355,0.0703914162787886
7.502972,6.351218879687682,0.0700159388861594
7.50536,6.371895305173647,0.0696323206744458
7.50774,6.388287989913057,0.0692897009081998
7.510135999999999,6.404820444279329,0.0689454646132485
7.512523999999999,6.422144294578518,0.0686039916640257
7.514908,6.436115569690931,0.068301432223992
7.517303999999999,6.454882442229096,0.0679807554187519
7.519691999999999,6.478305142566153,0.0676458241019559
7.522076,6.494510835850461,0.0673677572982219
7.524471999999999,6.503639291708878,0.067138911108042
7.526859999999999,6.514769848313713,0.0668982670836708
7.52924,6.526040174545409,0.0666522202317983
7.531635999999999,6.535308400030687,0.0664187167936197
7.534023999999999,6.546718495889243,0.0661671832094344
7.536403999999999,6.561061858053994,0.0659012188389092
7.538803999999999,6.571261249099052,0.0656680010761632
7.541191999999999,6.58066924421119,0.0654304866914791
7.543588,6.58928584339041,0.0651896827512702
7.545987999999999,6.591057522569219,0.0650232603557468
7.548371999999999,6.592549662494307,0.0648696703786682
7.550747999999999,6.596975068725592,0.0647018706005729
7.553144,6.598979065329877,0.0645655697876608
7.555527999999999,6.605918428986775,0.0644037335231847
7.557924,6.6044300807774245,0.0643074464868655
7.560324,6.606666394807188,0.0642017971759041
7.562707999999999,6.612906910329785,0.0640740649114363
7.565087999999999,6.611278792493574,0.0639851552185997
7.567484,6.609510905030504,0.0639032274087708
7.569868,6.609233261634654,0.0637926309141138
7.572248,6.610678179731499,0.0636837584408064
7.574648,6.613985428947901,0.0635712666066637
7.577036,6.615430347044746,0.0634633201619341
7.579416,6.620879466634425,0.0633344897693514
7.581816,6.6280511477168,0.0632091470359505
7.584204,6.634431432866258,0.0630800867366393
7.586584,6.638018221336379,0.0629565731243112
7.588975999999999,6.64267594499314,0.0628246936601864
7.591363999999999,6.645331567903485,0.062702941340313
7.59376,6.652038614134904,0.0625169287908377
7.596155999999999,6.6628896314860215,0.0623048690987531
7.598543999999999,6.6730890225310775,0.0620828300299596
7.600923999999999,6.68664098876291,0.0618303295831064
7.603327999999999,6.700332724621604,0.0615739410641307
7.605711999999999,6.719518906040349,0.0612682009545611
7.608091999999999,6.7380534611530365,0.0609549282109018
7.610491999999999,6.752723584399751,0.0606569351045253
7.612876,6.768604412459963,0.0603427244886805
7.615255999999999,6.779829412721285,0.060036974754478
7.617659999999999,6.7907748737288856,0.0597436706504301
7.620044,6.804001974736624,0.0594295186952922
7.622427999999999,6.814575348691888,0.0591161554713215
7.624827999999999,6.825148722647152,0.0588025319054421
7.627215999999999,6.832928599923081,0.0584956792375361
7.629595999999999,6.836844045333036,0.0582020730109423
7.632,6.845555088168743,0.0578981988004076
7.634383999999999,6.857199397310644,0.057583230308253
7.636763999999999,6.868052310519628,0.05726380748539
7.639168,6.879976158915253,0.0569360242936753
7.641556,6.892411863990073,0.0566271603466818
7.643936,6.902054072385558,0.0563241761686754
7.646331999999999,6.913698381527459,0.0560147685368431
7.648719999999999,6.922549193990027,0.055709942568754
7.6511,6.930608610519674,0.0554023128392892
7.653504,6.938807796676184,0.0550896024555568
7.655887999999999,6.945144651713137,0.0547802848263311
7.658268,6.952412672309868,0.0544701687204771
7.660672,6.96461605995921,0.0541453477378812
7.663055999999999,6.983896685034444,0.0537929971441876
7.66544,7.006669654923311,0.0534111149481196
7.667843999999999,7.027440524065762,0.0530388109782363
7.670231999999999,7.047140458021575,0.0526737238016894
7.672611999999999,7.066980161604247,0.0523029445434216
7.675015999999999,7.084677994813644,0.0519449870512709
7.677399999999999,7.104517698396316,0.0515751062072177
7.679779999999999,7.116348998993321,0.0512344541561587
7.682176,7.1271093644036885,0.0509001431143106
7.684564,7.14052345686653,0.0505716171247283
7.686943999999999,7.156870815635568,0.0502374441267675
7.68934,7.170145138471549,0.0499159487887178
7.691727999999999,7.181277590934254,0.0496065862662154
