Time,Force,Position
5.600451999999999,3.32749228470464,0.1621529621843832
5.602831999999999,3.337174131496892,0.1621283046244599
5.605236,3.3518385671699984,0.1618298202997373
5.607624,3.3626857928053746,0.1615818190090401
5.610003999999998,3.370320212880835,0.1614810304850091
5.612411999999999,3.3861953533674405,0.1611389387959503
5.614795999999998,3.407937026466436,0.1605903444665659
5.617179999999999,3.4313087132595115,0.1599110591437825
5.619587999999999,3.4503513333356586,0.1592808410673998
5.621975999999998,3.466879995986191,0.1586950302064301
5.624355999999999,3.4862021553160583,0.158036730063977
5.626747999999999,3.503102905018928,0.1575026990370464
5.629135999999999,3.526149726587909,0.1567252694499692
5.631516,3.5469621299849954,0.1559723732081814
5.633911999999999,3.568473381516383,0.1551586704297425
5.636299999999999,3.586259970808657,0.1544630416012813
5.638679999999999,3.5981328056602986,0.1540571266042774
5.641091999999999,3.616663569057248,0.1534225823925204
5.643476,3.639757612454472,0.1525670563062786
5.645859999999999,3.656193727306387,0.1519388477229436
5.648255999999998,3.6676019273070737,0.1514330232722855
5.650639999999999,3.680872458427317,0.1508850223444461
5.653023999999999,3.6929322847340615,0.1504004653635962
5.655435999999998,3.705923276600584,0.1498828534523664
5.657831999999999,3.718542181414769,0.1493363565646205
5.660207999999999,3.7283675895496193,0.1488866277784597
5.662623999999999,3.735492048803752,0.1485783810202559
5.665011999999999,3.748203501416554,0.1481281859483696
5.667392,3.756770982909662,0.1478146593535746
5.669787999999999,3.770693140335963,0.1473061886721397
5.672175999999999,3.7798197003365113,0.1469393671196613
5.674555999999999,3.792159065896976,0.1464589973284036
5.676951999999998,3.8003544603377466,0.1461195358673453
5.67934,3.808549854778518,0.145778239767816
5.681719999999999,3.8110184862337584,0.1455960277626183
5.684135999999999,3.8184224847416113,0.1452686492121485
5.686523999999999,3.824243691383628,0.1449543000692373
5.688903999999999,3.83178745951834,0.1446088081387323
5.691315999999999,3.837049587652916,0.1443548678464186
5.693707999999999,3.8452449820936874,0.1440126965402309
5.696083999999999,3.8538124635867943,0.1437061994765792
5.698487999999999,3.859027369893128,0.1435313137575859
5.700875999999999,3.865825068065296,0.1433400426682926
5.703259999999998,3.878489298849855,0.1429881365158113
5.705655999999999,3.890222364074636,0.142661601741939
5.708043999999999,3.895017961500388,0.1425340908014291
5.710424,3.902095198926277,0.1423208764184735
5.712819999999999,3.904097299672693,0.1422628032472584
5.715207999999999,3.910755228218002,0.1420914231429483
5.717604,3.9132691856436166,0.1420521566047441
5.722387999999999,3.918808957174043,0.1419921143530532
5.724767999999999,3.924348728704469,0.141932803425068
5.727172,3.9337529321008704,0.1417740378961542
5.729559999999999,3.946881797736383,0.1415251432652713
5.73194,3.9521420300130896,0.1414935985511622
5.734343999999998,3.965410665275464,0.1412342744683243
5.736731999999998,3.976816969418281,0.1410208957671264
5.739107999999998,3.990225374307515,0.1407501696746261
5.741511999999998,4.002842383263831,0.1404894269095396
5.743899999999998,4.0166700970336455,0.1401845364782482
5.746279999999999,4.03077735005718,0.1398517598154463
5.748676,4.042602963080578,0.1396027403982222
5.751064,4.049353439424504,0.1395029083441138
5.753443999999998,4.057826477261126,0.1393765640335539
5.755847999999999,4.07123488215036,0.1391168976946176
5.758235999999998,4.084503517412733,0.138875809141749
5.760615999999999,4.0967012174884685,0.1386635188671855
5.763012,4.109830083123982,0.1384339658478693
5.765395999999999,4.125100819132772,0.138137190481223
5.767779999999998,4.139859698462366,0.1378209602471276
5.770179999999998,4.152756246672403,0.137544966014104
5.772568,4.167143038949658,0.1372033782403569
5.774947999999998,4.175243989733943,0.1370472888122668
5.777343999999999,4.182553544585309,0.1368994822681574
5.779731999999999,4.198151041676063,0.1365146643531997
5.782112,4.209604567647123,0.1362567611563148
5.784507999999999,4.224922525484157,0.135914872643665
5.786895999999999,4.240659792201772,0.135540323781864
5.789275999999999,4.254394958172967,0.1352136661081457
5.791671999999998,4.262263591531775,0.1350238287422077
5.794059999999998,4.268130124144165,0.1348832298015033
5.796439999999999,4.277489001570192,0.1346245909502578
5.798836,4.28754672713052,0.1343047220058081
5.801224,4.292948624891955,0.1340788600026858
5.803619999999999,4.29956122746689,0.1338121974392748
5.806011999999999,4.304311498922269,0.1335843552588588
5.808399999999999,4.312414345564423,0.1332505560328412
5.810779999999999,4.321867666646935,0.1328684419463207
5.813175999999999,4.332671462169806,0.1324379960600092
5.815563999999998,4.342124783252318,0.1320582048507875
5.817943999999999,4.351717873961691,0.131663413797267
5.820347999999999,4.3562358279915925,0.131396835514264
5.822735999999999,4.367319162768184,0.1309375038639266
5.825116,4.380125059037472,0.1304578737357199
5.827511999999999,4.390649315306624,0.130059883523202
5.829896,4.3993112404562185,0.1296963464831668
5.832279999999999,4.40410873373984,0.1294167947588966
5.834675999999998,4.405693421463545,0.1292228301533669
5.837059999999999,4.410863001799504,0.128972936081785
5.83944,4.423901215494269,0.1285530039804208
5.841835999999999,4.443085501055146,0.1279896113679208
5.844223999999999,4.455192549190133,0.1275887751447758
5.846603999999999,4.467811454004318,0.1272097130777696
5.849003999999999,4.484434560311337,0.1267390579863584
5.851387999999998,4.497844861058439,0.126355160628419
5.853767999999999,4.5104637658726245,0.1259753708266117
5.856183999999999,4.525084771433228,0.1255589155956481
5.858571999999999,4.536632741060774,0.1252188781855733
5.860951999999999,4.545619531434462,0.1249699274708967
5.863356,4.557539588114347,0.1246613933940788
5.865743999999999,4.573603615913924,0.1242601983876557
5.868123999999998,4.593020218900278,0.1237668176128307
5.870519999999999,4.60736168520716,0.1233886989809519
5.872907999999999,4.622262230021482,0.1229730037901531
5.875287999999999,4.635020904462528,0.1226117085131359
5.877683999999999,4.6505730755829084,0.1222071308377532
5.880071999999998,4.667475721143648,0.1217577445671618
5.882456,4.688242798570361,0.1212392016421804
5.884851999999999,4.708637788944736,0.1206979110255072
5.887239999999999,4.721955541893221,0.1203023629753951
5.889624,4.731408862975735,0.1199802454203231
5.892019999999999,4.74607709036458,0.119541480449567
5.894407999999999,4.760745317753425,0.1191062263767006
5.896804,4.7752737755154095,0.1186855356097724
5.899199999999999,4.795017139583726,0.118158933073096
5.901584,4.815551899584962,0.1176282229802876
5.903963999999998,4.832873854026281,0.1171759766783534
5.906367999999999,4.848053938094324,0.1167691576700468
5.908755999999999,4.863653331042948,0.1163312028867461
5.911131999999999,4.881674133618569,0.1158320880237713
5.913528,4.8967616698879946,0.1153890538582005
5.915911999999999,4.912500832463477,0.1149592006441679
5.918296,4.931964657278074,0.1144795671558246
5.920699999999998,4.945282410226561,0.1141161681278894
5.923083999999999,4.957157140936072,0.1137457225198354
5.925467999999999,4.965586748660188,0.1134061159784308
5.927871999999999,4.971874486011028,0.1131131386169305
5.930255999999998,4.977650366682671,0.1128052843549966
5.932639999999999,4.97942204586148,0.1125662305310479
5.935044,4.986827940227203,0.1121946228249874
5.937427999999999,4.995025230525842,0.1118226138103951
5.939811999999998,5.00429345601112,0.1114327041970121
5.942207999999999,5.01249074630976,0.1110658856536662
5.944591999999998,5.0208278062352605,0.1106916876282087
5.946971999999999,5.020365067242175,0.1104521754131918
5.949375999999999,5.020461406756531,0.1101732787336046
5.951763999999999,5.022839386271023,0.1098432831689162
5.954143999999999,5.028569940972291,0.1094391843089454
5.956539999999999,5.029085589367227,0.1091287019052795
5.9589279999999984,5.024526101082693,0.1089064144879679
5.961307999999999,5.018755907984658,0.1087150796598238
5.963711999999999,5.008329887087731,0.108580753007193
5.966099999999999,4.996041535071249,0.1084688020136951
5.968483999999998,4.989479946040296,0.1082784230593656
5.970879999999999,4.983569983315402,0.1080957247060126
6.006723999999998,4.800249457847857,0.1080687602595737
6.009108,4.790380619600503,0.1080546392379066
6.011491999999999,4.785307378778899,0.1079727902414931
6.013888,4.780234137957297,0.1078907744948378
6.016276,4.774369501202777,0.1078097153527101
6.018655999999998,4.770506965194672,0.1076961577032872
6.021051999999999,4.763571393253512,0.1076362905828386
6.023439999999999,4.760500253178326,0.1075214840993996
6.02582,4.757848421983721,0.1073759428451369
6.028219999999999,4.755336360415975,0.1072211839395704
6.030603999999999,4.757200587393401,0.1070308716944061
6.032988,4.763301333289137,0.1068145402123441
6.035383999999999,4.768331143998235,0.1066191469054252
6.037771999999999,4.776806077692727,0.1063984728223373
6.040151999999999,4.787794968812833,0.1061656914677237
6.042547999999998,4.8035794573586905,0.1058683052724299
6.044935999999998,4.817641384411852,0.1055826601281299
6.047315999999999,4.836498908890764,0.1052305865828411
6.049715999999998,4.856287598929457,0.104866175645269
6.052103999999998,4.8808718863939005,0.1044481264665105
6.054495999999999,4.903454073111927,0.104064758694338
6.056899999999999,4.927339512442068,0.1037067303078252
6.059287999999999,4.949083081398933,0.1033924154129635
6.061667999999999,4.971757815915576,0.1030698868777971
6.064063999999998,4.994153011178498,0.1027698884140142
6.066447999999999,5.0166879760682805,0.1024638057312673
6.068827999999998,5.042575516144839,0.1020891284077984
6.071231999999998,5.069673761034897,0.1016939405454376
6.073616,5.097563401857872,0.1012978578578585
6.075995999999998,5.124382107494209,0.1009264958535586
6.078399999999999,5.14961802126471,0.1005577561830392
6.080787999999998,5.174621617609734,0.1001556372558871
6.083167999999999,5.200696149141397,0.0997340805400744
6.085571999999999,5.226770680673059,0.0993149904398455
6.087955999999998,5.249911945898528,0.0989339377617048
6.090335999999999,5.271330649631298,0.0985678778556845
6.092739999999999,5.2959621589239845,0.0981494941842275
6.095127999999999,5.317520632283615,0.0977777334769846
6.097508,5.338427479337187,0.0973965822999117
6.099903999999999,5.3534677937783695,0.0970939411061314
6.102291999999999,5.3686478778464135,0.0967826124792603
6.104671999999999,5.380103299675342,0.096507466669777
6.107075999999999,5.393700591877549,0.0961991972234089
6.109463999999999,5.4043646177735605,0.0959251182659724
6.111844,5.412374916617097,0.0956673750461922
6.114247999999998,5.419314280273994,0.0954282189759243
6.116636,5.423972003930755,0.0952331749533714
6.119015999999999,5.423414821281184,0.095116075903716
6.121411999999999,5.425139278631749,0.0949564524805244
6.123799999999999,5.424070239302981,0.09482135427789
6.12618,5.427936567026824,0.094629819652684
6.128583999999998,5.430592189937168,0.0944644514309524
6.130971999999998,5.4341789784072905,0.0942917060910022
6.133351999999999,5.43869693243719,0.0941122062303608
6.135755999999999,5.442423490534173,0.0939306764472561
6.138143999999999,5.447081214190933,0.0937429113398691
6.140523999999999,5.449597067474417,0.0935887615779967
6.142919999999998,5.454534330384898,0.0933853684744536
6.145307999999998,5.461054385161216,0.0931842114028458
6.147691999999999,5.468645375124172,0.0929679301445778
6.1500879999999984,5.479309401020183,0.0927147517454888
6.152472,5.489973426916195,0.0924604386641912
6.154855999999999,5.49849558243893,0.0922392492197783
6.157259999999999,5.510882169827637,0.0919805722114704
6.159643999999998,5.528995520201875,0.0916720809927543
6.162023999999999,5.548971201695669,0.0913514580838757
6.16442,5.573882250242075,0.0909819407615199
6.166808,5.6007953995349,0.0905874475631467
6.169187999999998,5.625426908827586,0.0902354787383096
6.171583999999999,5.652572375545886,0.0898780624301103
6.173971999999999,5.671569669651659,0.0896204272490435
6.176352,5.691358359690351,0.0893651141336312
6.178751999999999,5.709144948982625,0.0891322639552062
6.181139999999999,5.724417580849285,0.0889047677477323
6.18352,5.743834183835639,0.0886261331286533
6.185915999999999,5.760969146821855,0.0883873277069212
6.188303999999999,5.779826671300768,0.0881447519169323
6.190683999999999,5.797054182085602,0.0879504726675922
6.193079999999998,5.813350527310657,0.0877633478561469
6.195467999999998,5.827365232535575,0.0876140860900362
6.197847999999999,5.838167132200577,0.0875104088978373
6.200244,5.851902298171774,0.0873797480131276
6.202632,5.866848168956471,0.0872274330697137
6.205015999999999,5.88100264380825,0.0870754192959429
6.207412,5.889150816420777,0.086985772176808
6.2098,5.892503391607553,0.0869352606340051
6.212195999999999,5.8930624701149945,0.0869038604371244
6.214592,5.89683435418235,0.0868312615413945
6.216975999999999,5.901956712690066,0.086729745680945
6.219359999999998,5.9056360489588045,0.086616877484431
6.221755999999999,5.915740996347374,0.0864221114275694
6.224139999999999,5.923983612616388,0.0862391740006364
6.226524,5.933297164072042,0.0860423246194594
6.228928,5.941120471460475,0.0858815009474465
6.231311999999999,5.947733074035409,0.085743608101333
6.233692,5.953833819931145,0.0855881107510427
6.236095999999998,5.95634967321463,0.0854483631032234
6.238484,5.958493439445777,0.0852831267403591
6.240863999999998,5.964920946423477,0.0850654625174723
6.243259999999999,5.9708365967219805,0.0848292671000296
6.245647999999999,5.976892016647343,0.0845854606436391
6.248031999999999,5.980433479147091,0.0843443042309857
6.250427999999999,5.981041675340643,0.0841277806523359
6.252811999999999,5.982720806720835,0.0838993641926362
6.255196,5.986681578101164,0.0836360795319218
6.257591999999999,5.995717486160966,0.0833218209123911
6.259975999999998,6.001820127914572,0.0830318695949781
6.262359999999999,6.004989503361983,0.0827680473268219
6.264755999999998,6.005877238809256,0.0825381343891003
6.26714,6.007835909443169,0.0822952425654814
6.269535999999999,6.004998982651331,0.0820869625419556
6.271939999999999,6.002860903993792,0.0818402306565492
6.274327999999999,6.002073299776613,0.081566253710619
6.276711999999998,6.007339219626927,0.0811927389758755
6.279107999999999,6.013024448357823,0.0807987755284347
6.281495999999999,6.018569907461857,0.0804114853956565
6.283879999999998,6.02518630175253,0.0800102903819053
6.28628,6.035015501603118,0.0795740398586759
6.288668,6.039909334401094,0.0791797487219711
6.291047999999998,6.046665498318628,0.0787754074698817
6.293448,6.048765834437268,0.0783916733093712
6.295831999999999,6.049655465742411,0.0780263137724085
6.298215999999998,6.052547197793972,0.077643149386145
6.300611999999999,6.051294958725837,0.0773015872516515
6.302999999999999,6.049251323724785,0.0769569204789615
6.305383999999998,6.044274422417536,0.0766341241209167
6.307779999999999,6.041299621856706,0.0762938984097853
6.310172,6.03525178536282,0.0759809037314739
6.312551999999998,6.029623257749514,0.0756443751001577
6.314947999999999,6.023715190882489,0.0753229407708941
6.317335999999999,6.020181311814217,0.0750103011420834
6.319716,6.017810915731202,0.0747266088763766
6.322119999999998,6.0171630811408825,0.0744438055176677
6.324508,6.009810096177012,0.0742456598729585
6.326887999999999,6.002177571959421,0.0740624987213007
6.329284,5.996547148488245,0.0738638079535374
6.331671999999999,5.990916725017071,0.0736644881422649
6.334052,5.982864891918899,0.0735026493082041
6.336455999999998,5.974673289193867,0.0733475745516669
6.338843999999998,5.96955472240189,0.0731668113081555
6.341223999999999,5.971094084155222,0.0729515525476058
6.343627999999999,5.976358108147666,0.0727214244960832
6.346015999999999,5.98241352807303,0.0724956043002424
6.348395999999999,5.990610818371668,0.0722472517676628
6.350791999999998,6.001322066095923,0.0720035464003073
6.353179999999998,6.0137558753128735,0.071760422247454
6.355559999999999,6.0260499149029645,0.0715251677169
6.357959999999999,6.044350256732306,0.0712474428109784
6.360347999999998,6.066095721547041,0.0709723508522708
6.362727999999999,6.089843287108192,0.0706852197635483
6.365124,6.1120080608035074,0.0703912578860051
6.367512,6.135523308939181,0.0700751979285828
6.369891999999998,6.1547548163283,0.069802684986398
6.372287999999999,6.177571216329673,0.0695226314838487
6.374671999999999,6.19703504114427,0.0692806420845114
6.377051999999999,6.216498865958865,0.0690407036373338
6.379455999999999,6.239547583385715,0.068796682665212
6.381843999999999,6.262316761558845,0.0685668106872173
6.384224,6.288019206038171,0.0683217129396097
6.386619999999999,6.306225104211026,0.0681481424627763
6.389007999999999,6.32443100238388,0.0679769413649177
6.391387999999999,6.340914339064039,0.067806252037305
6.393783999999998,6.35660627981128,0.0676326013805529
6.396167999999999,6.372949846864577,0.0674705983406988
6.398559999999998,6.386499917238543,0.0673181294737618
6.400967999999999,6.401260692426003,0.0671506451585736
6.403351999999998,6.416021467613465,0.0669835532311627
6.405731999999999,6.425846875748317,0.0668451569949607
6.408135999999999,6.431156225711135,0.0667143075284176
6.410519999999998,6.434603244554396,0.0665895866997546
6.412899999999999,6.437910493770798,0.066471457723691
6.415303999999999,6.439215642240785,0.0663659529747631
6.417687999999998,6.442942200337765,0.06622836472656
6.420067999999999,6.4493697073154665,0.0660466919290132
6.422471999999999,6.457287458360386,0.0658347011188781
6.424855999999998,6.463482647912611,0.065621602719658
6.427235999999999,6.46609294485258,0.0654125504753679
6.429635999999999,6.4694020899268505,0.0651703313283394
6.43202,6.472851004627983,0.0649233509670104
6.434403999999999,6.484727631195361,0.0646115252147283
6.436799999999998,6.495812861829823,0.0642977655506707
6.439183999999999,6.505966926904506,0.0639864613776483
6.441564,6.516260761606049,0.063669434585445
6.443963999999999,6.524040638881976,0.06334561655778
6.446351999999999,6.532891451344544,0.0630130481210852
6.448732,6.538669227874056,0.0627009839788739
6.451123999999998,6.546868414030566,0.062360495800332
6.453511999999998,6.561213672053185,0.0619842616390385
6.455907999999999,6.578492196382001,0.0615962989333317
6.458311999999999,6.595910490337676,0.0612031270560959
6.460695999999999,6.616262050599548,0.0607993088922166
6.46308,6.63568244530164,0.0603978215775903
6.465483999999998,6.652960969630454,0.0600138570477197
6.467867999999999,6.664884818026078,0.0596723582218004
6.470248,6.678810767168117,0.0593220568971819
6.472648,6.692317407429575,0.0589905416450565
6.475031999999999,6.708897083624088,0.0586431750994706
6.477411999999999,6.721193019072048,0.0583265493191304
6.479816,6.729484753027173,0.0580295660715975
6.482203999999999,6.732980889556548,0.057748443032394
6.484583999999998,6.7372684220188415,0.0574738886222754
6.486987999999998,6.74434945116047,0.0571960691336946
6.489372,6.752082106608155,0.0569303630320474
6.491755999999999,6.760745927615619,0.056662731063905
6.494152,6.768338813436445,0.056402667388311
6.496535999999999,6.773789828883992,0.0561562802531923
6.498919999999998,6.775608729891045,0.0559521409002675
6.501315999999999,6.76913968865871,0.0557954811693104
6.503703999999999,6.761320172986015,0.0556589118531834
6.506084,6.755083449179158,0.0555327697699857
6.508479999999999,6.744982293506324,0.0554171227686341
6.510864,6.73553276413955,0.055312596015235
6.513247999999999,6.727293939586274,0.0551941602719976
6.515651999999999,6.720917446152555,0.0550733255798288
6.518035999999999,6.714261413465114,0.0549651220014024
6.520415999999999,6.712820287084008,0.0548275990409361
6.522819999999999,6.708026585516125,0.0547177895775256
6.525207999999999,6.71124128693391,0.0545760982187796
6.527588,6.718460189844528,0.0544188836260232
6.529983999999999,6.724188848687927,0.0542867315538555
6.532371999999999,6.724050974918937,0.0541717606801341
