Time,Force,Position
8.881696,2.180314298761238,0.1725550433903303
8.88408,2.295799507991823,0.1710397197089086
8.88646,2.405420080467888,0.169611979297225
8.888856,2.513599526562845,0.1679688768346049
8.891244,2.6181959759034195,0.1661750110303878
8.893624,2.7153922184518797,0.1644089730983114
8.89602,2.804117319021586,0.1627760378761176
8.898408,2.883532659851379,0.1613314588073719
8.900792,2.9548017239265136,0.1600708167611682
8.903188,3.0234189568070424,0.1586763667174193
8.905572,3.085287609201516,0.1572336014273032
8.907956,3.137753954057457,0.1558606279320237
8.910352,3.176766568053791,0.1548587303877217
8.912736,3.211217797907719,0.1538861506885777
8.915132,3.2306778310065773,0.1533984241866094
8.917528,3.247159271828867,0.1528671089573851
8.919916,3.2583804803744503,0.1523993679016276
8.9223,3.2707198459349147,0.1517990256293513
8.9247,3.2771926788829893,0.1514100070850676
8.927084,3.288553657055433,0.1509187623862883
8.929464,3.297865312653216,0.1506089814547424
8.93186,3.3059662634375004,0.1503705428272345
8.934248,3.316907932729363,0.1499619477682038
8.936628,3.3202605079161387,0.1498078062753115
8.9438,3.319608881610081,0.1498036939301319
8.946204,3.321890521610218,0.14969729597811
8.948588,3.327012880117933,0.1494202217150607
8.950968,3.32668801489384,0.1492959317353129
8.960536,3.318588959967424,0.1492717034672918
8.962924,3.315330828437134,0.149248655614647
8.965304,3.312864092839763,0.1492129080133683
8.9677,3.315053185041283,0.1490354869756404
8.970084,3.3153799461232465,0.1489156050789879
8.97248,3.3212011527652634,0.148551060638456
8.974876,3.324927710862246,0.1481929974189561
8.977264,3.3239984411603367,0.1479730657809157
8.982052,3.317716391383104,0.1477308691005606
8.984436,3.3140861728004776,0.1476680900479502
8.986816,3.3138085294046267,0.1474539822240047
8.98922,3.3131115771281947,0.1472904149148894
8.991608,3.3158597478371554,0.1470458176360205
8.998772,3.309203715149716,0.1470094973659737
9.001152,3.307388605858402,0.1469773775791154
9.003548,3.3054337269402287,0.1469617532463241
9.005936,3.309205611007586,0.1467636343953791
9.008316,3.313349582127279,0.1466011535958176
9.010712,3.3164226180603347,0.1464814407821536
9.0131,3.3176333228738333,0.1464197019981494
9.017876,3.3192161147396693,0.1463975773163336
9.020264,3.324104259964038,0.1463189996585638
9.022644,3.331366592987161,0.1462127975010398
9.025044,3.3492910560484264,0.1457805642954928
9.027428,3.363071547989998,0.1454970767041409
9.029824,3.3796455366109046,0.1451263005727073
9.03222,3.4000839570977845,0.1446467706539317
9.034608,3.417821428703946,0.1443173235539359
9.036988,3.4329051732576343,0.1440442885347735
9.039384,3.451201723371237,0.1436580435147692
9.041768,3.470289669417758,0.1432566823983744
9.044152,3.488818536956838,0.142919991637822
9.046548,3.511583923414229,0.1425080615408762
9.048936,3.533790231364179,0.1421553463787174
9.051316,3.5587900359934643,0.141733293697874
9.05372,3.5827189054361104,0.1413633170842874
9.056104,3.609441271558092,0.1409182319774787
9.058488,3.642961335852242,0.1402831186821401
9.060884,3.675270695332893,0.1396953698200669
9.063272,3.7014339829474334,0.1393085616273919
9.065652,3.729739140935252,0.1388463049829945
9.068056,3.751898227056959,0.1385956121708182
9.07282,3.7834123988889545,0.1384854289460889
9.075216,3.801846822771548,0.1383462135377658
9.077604,3.8236338218409176,0.1380886256441359
9.079984,3.844349885723649,0.1378799224904293
9.082384,3.8725624959128497,0.1374440317180615
9.084768,3.90771257390108,0.1368330615756842
9.087164,3.9400691552099754,0.1363007091269392
9.089568,3.976849246892284,0.1356369717182732
9.091952,4.014467956335754,0.1349015745570799
9.094332,4.047850146860914,0.1342299265477372
9.096732,4.081931185520374,0.1334922972437254
9.099116,4.112567101194442,0.1328119631032042
9.101496,4.141620225002673,0.132149765882595
9.103904,4.167367995452372,0.1315237333409892
9.106288,4.187528772543399,0.1310203584791648
9.108672,4.212764686313901,0.1303937144938125
9.111068,4.242703649711537,0.1295989386885052
9.113456,4.270780281989616,0.1288470604953437
9.115836,4.299276223148276,0.1280481740557532
9.118232,4.325770063560519,0.1272902197191648
9.12062,4.350820881733786,0.1265251215383049
9.149284,4.308370728183535,0.1261248968902605
9.151668,4.305624453332444,0.1261075636646947
9.158848,4.296082376167052,0.1260374482805922
9.161244,4.293755410196542,0.1259843012498113
9.163628,4.295712184972584,0.1258246992307054
9.166012,4.299950599748764,0.1255991035569802
9.168408,4.305259949711584,0.1253451959123015
9.170796,4.313921874861179,0.1249956180059058
9.173176,4.319138677025379,0.1246837873637908
9.175576,4.322493148070024,0.1244038961460548
9.177964,4.3347871876601145,0.1239312070443416
9.18034,4.347360766503926,0.1234329283477651
9.182744,4.362076215721015,0.122875366937307
9.185132,4.381215175311517,0.1221881435417777
9.187512,4.403427170835076,0.121429974793552
9.189916,4.420564029679161,0.1207896738548781
9.24726,4.218767546074389,0.1207544336117766
9.252028,4.207595455214919,0.1207525587381606
9.254424,4.2031266188711305,0.1207522079496217
9.256812,4.201451279206677,0.1207034656389332
9.259192,4.203780141035058,0.1205650987398982
9.261588,4.203687593236441,0.1205084742195756
9.263976,4.204665980624462,0.120423990558185
9.266356,4.202571332079428,0.1204113753591552
9.26876,4.202618553907671,0.1203432749602424
9.271148,4.20452810685547,0.1202431552036693
9.273528,4.20615812054955,0.120166651557983
9.275924,4.20806767349735,0.1200659450078542
9.278312,4.208766521631651,0.1200056794939292
9.280692,4.209325600139092,0.1199578148489336
9.283096,4.213609340885646,0.1198477315834972
9.28548,4.221897283125034,0.1196534607573056
9.28786,4.231116390924201,0.1194452274996353
9.29026,4.240615037977086,0.1192133239944903
9.292644,4.251184620216612,0.1189582123740791
9.295028,4.265898173575831,0.1186084036263653
9.297424,4.281682662121687,0.1182375365164142
9.299812,4.301331582533519,0.1177967515787575
9.302208,4.322330977385708,0.1173122946872934
9.304604,4.343470141864759,0.1168170200181216
9.306992,4.361676040037613,0.1163788824452848
9.309372,4.381884038956885,0.1159044810704905
9.311772,4.40130064194324,0.1154364711811341
9.314156,4.420345157877256,0.1149333935202105
9.316536,4.435804781199019,0.1144773654891079
9.31894,4.451543943774503,0.1139996423631378
9.321328,4.468633580790345,0.1134726198552301
9.323708,4.487865088179465,0.1129008756702048
9.326104,4.507096595568584,0.1123291314851796
9.328492,4.526328102957705,0.1117623132325657
9.330876,4.54290588329435,0.1112287503240289
9.333272,4.557621332511438,0.1107303081454311
9.335656,4.572476551355385,0.1102253120356361
9.33804,4.589333870945751,0.109688153326374
9.340444,4.607262125722755,0.1091383123507038
9.342828,4.623188279753342,0.1086286632963993
9.345208,4.63911443378393,0.1081267966801576
9.347604,4.647963350388628,0.1077472803616597
9.349992,4.651597360686993,0.1074702319934631
9.352372,4.657093702104915,0.1071707947622381
9.354776,4.665663079455893,0.1068156366650656
9.357164,4.670368024940897,0.106518919612426
9.35954,4.67465366154532,0.1062540324048692
9.36194,4.682104881881416,0.1059843620586909
9.364324,4.693932390762683,0.1056782390479456
9.419288,4.784104305287103,0.1056229822431444
9.421676,4.790063385698111,0.1055888099688978
9.424056,4.799095502042174,0.105502664814038
9.426456,4.811619963199873,0.1053350662170725
9.42884,4.825494898797931,0.1051259212647619
9.431224,4.844864279956041,0.1048043455152171
9.433624,4.868936710741287,0.1043746048481551
9.436012,4.892217745593615,0.1039462186359398
9.438392,4.914567614886163,0.1035307745391412
9.440796,4.942272160111904,0.1030112154963431
9.443184,4.970907870897424,0.1024841490894246
9.445564,4.988881451644803,0.1021093598486508
9.44796,5.006343175712982,0.1017148504110823
9.450344,5.024875834967801,0.101302094073827
9.452724,5.040475227916425,0.1009306611863965
9.455124,5.053932750491772,0.1006010483712289
9.457508,5.0751191367990645,0.1001764964122656
9.459892,5.095094818292858,0.0997830160375314
9.462296,5.110414671987761,0.0994404870874537
9.46468,5.127085000123023,0.0990592496319547
9.46706,5.1435230108328085,0.0986414701817273
9.469464,5.1550256544899815,0.0982900995918241
9.471852,5.165597132587376,0.0979496469957686
9.474232,5.17030207807238,0.0976838396892297
9.476628,5.175146793184245,0.0974090358945029
9.479016,5.175056141243496,0.097200680068468
9.4814,5.169331274115836,0.0971045023580206
9.483796,5.160952679935701,0.097026299812035
9.48618,5.150571985009147,0.0969760625046503
9.488564,5.137397793403259,0.0969525546532357
9.49096,5.125434306610869,0.0968997668107713
9.493348,5.115333150938037,0.0968288414751803
9.495744,5.10802549194454,0.0967302546522922
9.49814,5.100066206644985,0.0966214379502104
9.500524,5.095459496532206,0.0964486727913971
9.502904,5.09020116011337,0.0962656910994015
9.5053,5.079076291082142,0.0961535776015466
9.507688,5.067160026117997,0.0960406160037596
9.510068,5.055755617833049,0.0959467152831826
9.512464,5.047144706227436,0.0958265257068447
9.514852,5.038533794621824,0.0957056070501322
9.517248,5.0339270845090445,0.0955321906349246
9.51964,5.031462244769542,0.0953242213187085
9.522024,5.039007908762124,0.094990109607017
9.524404,5.046413803127846,0.0946657627511877
9.526808,5.057544359732681,0.094309614225786
9.529196,5.072027491524292,0.0938918933864874
9.531576,5.090235285555015,0.0934403794536161
9.533972,5.113378446638351,0.0929320979487409
9.536356,5.138383938841245,0.0924098993818626
9.538752,5.163249661417277,0.0919048282114652
9.541156,5.188115383993309,0.0913983350223281
9.54354,5.212841336942483,0.0909075463732163
9.54592,5.236077045824437,0.0904601590629605
9.548316,5.254749474706115,0.0900979621706516
9.5507,5.275004695453631,0.0897393108274481
9.55308,5.295539455454866,0.0893617593506588
9.555484,5.31714515064274,0.088968056078114
9.557868,5.339170154711194,0.088545797433893
9.560248,5.357470496540535,0.0881575715615243
9.562644,5.375351529489296,0.0877973585189687
9.565028,5.3963055983711135,0.0874047288601227
9.567412,5.412975926506375,0.0870767928079288
9.569812,5.421637851655969,0.0868443213953041
9.5722,5.431230942365342,0.0866059136435965
9.57458,5.438170306022242,0.0863803926068288
9.576976,5.440965698559445,0.086207260511854
9.579364,5.443900860723509,0.0860264580045874
9.58176,5.4429715910216,0.0858816051098446
9.584156,5.440831616506191,0.0857606552517997
9.58654,5.435758375684587,0.0856678051459232
9.58892,5.43347863154232,0.0855556896041383
9.591324,5.427613994787799,0.0854605603918916
9.593712,5.424962163593193,0.0853211168860797
9.596092,5.425802677212225,0.0851201389208584
9.598488,5.426782960458115,0.0849115047362695
9.600876,5.431767445196839,0.0846626836725078
9.603256,5.438754030681981,0.0843951209247528
9.605652,5.447463177659819,0.0841244017088282
9.608036,5.456032555010796,0.0838615031122592
9.61042,5.468885673108328,0.0835451186649344
9.612816,5.474382014526251,0.0833198505998748
9.615204,5.485093262250505,0.0830337785476399
9.6176,5.499529172213873,0.082725266890034
9.619996,5.514104851804101,0.0824107840613004
9.622384,5.531474028073664,0.0820814078444357
9.624764,5.558062312142392,0.0816577165646437
9.62716,5.583719430651343,0.081242336219391
9.629544,5.613240981026268,0.0808007796328901
9.631928,5.645044171401328,0.0803282709763131
9.634324,5.680060167336306,0.0798201139235686
9.636708,5.712562205845669,0.0793151314003764
9.639092,5.745715870661089,0.0788186925118311
9.641492,5.777146973983814,0.0783295600570192
9.64388,5.805365271746623,0.0778797757233818
9.64626,5.832000777643595,0.0774261198701738
9.648656,5.854352542794014,0.0770270102727571
9.65104,5.873491502384517,0.076667662678443
9.65344,5.893841166788517,0.0762917174926938
9.655836,5.914982227125435,0.0759184456356152
9.658224,5.927835345222967,0.0756294726574467
9.660604,5.944320577760995,0.0752786903829331
9.663008,5.956941378433049,0.0749567517797978
9.665392,5.968770783172185,0.0746341636013777
9.667772,5.9778066912319865,0.0743251585570416
9.670176,5.984840498545371,0.0740341708007108
9.672564,5.984797068432869,0.0738061989296869
9.674944,5.984613868693502,0.0735859188077748
9.67734,5.981497402647943,0.073386507991574
9.679728,5.977030462162024,0.0732142841783713
9.682108,5.966929306489192,0.0731138702486652
9.684512,5.963066770481088,0.073001066798616
9.686896,5.964139601525595,0.0728549015572204
9.68928,5.962791022943105,0.0727453809672443
9.691676,5.964375710666811,0.0726168880774371
9.69406,5.96940552137591,0.0724886187880398
9.69644,5.977368598391202,0.0723421708662284
9.698844,5.986402610593133,0.0721845357076843
9.701228,5.993154982794929,0.0720570983317032
9.703608,6.000047124623584,0.0719225006554565
9.706016,6.017089539811183,0.0717089409028198
9.7084,6.035295437984038,0.0715259000810221
9.71078,6.053873423209231,0.0713677929943044
9.713184,6.068167667687869,0.0712523709274857
9.715572,6.083765164778623,0.0711582687918139
9.717952,6.098151957055879,0.0710821192534931
9.720356,6.111467814146495,0.0710165096897104
9.722744,6.125435297543171,0.0709620482185523
9.725124,6.138471615380067,0.0709114028976916
9.727528,6.148854206164489,0.0708643145213194
9.729916,6.165662408068742,0.0707515993651556
9.732296,6.175021285494768,0.0706688670311529
9.734692,6.177722234375486,0.070618461217593
9.73708,6.185638089562537,0.0705220268020804
9.73946,6.193693714376448,0.0704191353743922
9.741856,6.198955842511023,0.0703271560898407
9.744244,6.199282603592986,0.0702661506349334
9.746628,6.201611465421367,0.0701916423904793
9.749024,6.201146830570414,0.0701267829354739
9.751408,6.203755231652512,0.070038235427419
9.753792,6.199286395308726,0.0700009656757971
9.756188,6.193514306352822,0.0699419016875801
9.758576,6.186019655904221,0.0698821970255791
9.760956,6.182668976575314,0.0697884160877348
9.763352,6.182810642060043,0.0696503231015023
9.76574,6.184163012358272,0.0694947584126457
9.76812,6.1924528504555285,0.0692971828423336
9.770524,6.202512471873724,0.0690563604104199
9.772908,6.215505359598117,0.0688004312371975
9.775292,6.234364779934899,0.0685145474021925
9.777688,6.249080229151987,0.0682627860285048
9.780076,6.262724743182437,0.0680189134594351
9.782456,6.279162753892222,0.0677653148228923
9.784852,6.289454692735895,0.0675575356003447
9.78724,6.300677797139347,0.0673485958214028
9.78962,6.311249275236742,0.0671290007731288
9.79202,6.328106594827108,0.0668586946991857
9.794408,6.3438929792308345,0.0666001136755627
9.796788,6.36675660106045,0.0662966864496691
9.799184,6.383613920650815,0.0660306550789199
9.801572,6.399819613935123,0.065752695585237
9.803956,6.414814602405932,0.0654915143479475
9.806352,6.433441705317237,0.0651819336527441
9.808736,6.451556951549343,0.0648563097265494
9.811136,6.467809866661893,0.0645393319775059
9.813532,6.484482090655026,0.0642033310821925
9.81592,6.495567321289485,0.0638847896512934
9.818304,6.499295775244338,0.0636215397274216
9.820708,6.501301667706493,0.0633572881957509
9.823092,6.49664963162334,0.0631154023821377
9.825472,6.492277134793907,0.0628595614461983
9.827872,6.492188378711029,0.0625680235980802
9.830256,6.493450097068509,0.0622552693678784
9.83264,6.502068592105599,0.0618895534873132
9.835036,6.506822655276715,0.0615388691588758
9.83742,6.510226244007472,0.061208839172824
9.839804,6.511627731991813,0.0608917828697932
9.8422,6.51037549292368,0.0605734763804072
9.844588,6.503116951616294,0.060286613236583
9.846968,6.499071215868825,0.0599735975720404
9.849368,6.494885710494497,0.0596654867928674
9.851756,6.491771140306805,0.0593486996578262
9.854136,6.489447966052033,0.0590384804609451
9.85654,6.485774317356901,0.0587492030488013
9.858924,6.47623413604938,0.0584808667826201
9.861304,6.468276746607693,0.0582230779499826
9.863704,6.455895846792592,0.058002035321551
9.866088,6.452594285149799,0.0577342357696136
9.868468,6.44607991794709,0.057489562259611
9.870872,6.444081608916412,0.057243875792458
9.87326,6.442083299885733,0.0569976150552582
9.87564,6.437663581228058,0.056780612964723
9.878044,6.432824553689802,0.056583909635304
9.880428,6.422910389472071,0.0564137015933328
9.882812,6.414067160440983,0.0562348722645066
9.885216,6.408436736969808,0.0560324713670855
9.8876,6.400664443125356,0.0558453691923651
9.88998,6.393823314840682,0.0556562153846327
9.892376,6.390055222489065,0.0554503373798278
9.894764,6.389080626816781,0.0552422926979235
9.897144,6.389037196704276,0.0550324013058187
9.89954,6.390995867338188,0.0548149289176477
9.901928,6.388810566852405,0.0546208581063347
9.904308,6.389558532672819,0.0544180197498039
9.906712,6.39789559259832,0.0542013557455224
9.909096,6.403578925471344,0.0539816829250868
9.911476,6.417550200583758,0.0537163794815089
9.91388,6.424444238270283,0.0534833810314877
9.916268,6.433480146330084,0.0532348002862569
9.918648,6.436789291404355,0.0529965991536601
9.921044,6.445033803531237,0.0527436495897133
9.923432,6.454628790098481,0.0524707643178431
9.925812,6.461290510359527,0.0522060393482131
9.928216,6.4688833961803525,0.0519408031558113
9.930604,6.4792697786805125,0.0516747456327856
9.932984,6.488585225994036,0.0514168131107853
9.93538,6.4948276373745015,0.0511714762240795
9.937768,6.501861444687886,0.050932061072874
9.940148,6.507824316814632,0.0507004912433777
9.942544,6.508712052261906,0.0504909369093075
