Time,Force,Position
8.364215999999999,2.813868734983572,0.1680219390385308
8.378547999999999,2.85562004039952,0.1679969334067665
8.380928,2.8680481620428635,0.1679364047585054
8.383332,2.879964427007009,0.1678536611147162
8.385715999999999,2.893231166411514,0.1676897631818381
8.388096,2.908220467308715,0.1674844478987903
8.3905,2.933592358990338,0.1668757378098562
8.392888,2.9644114744037697,0.1660646611897948
8.395264000000001,2.9954175812723056,0.1651435914597348
8.397672,3.0246558006777717,0.1641338580093661
8.400056,3.049005874858868,0.1632390206337743
8.402435999999998,3.074706423480323,0.1622546387157531
8.40484,3.1038520950871717,0.1611826670928937
8.407228,3.1405868607991065,0.1598370433783281
8.409603999999998,3.17429581240623,0.1585482267780081
8.412008,3.203488705841321,0.1574376129459142
8.414396,3.2278860018506608,0.156509029101841
8.416775999999999,3.252655384912338,0.155623918431051
8.419172,3.2777968550263523,0.1547556089275032
8.421555999999999,3.3061511307002824,0.1537592437573297
8.423936000000001,3.338556829695289,0.1524981850181836
8.426344,3.364631361226952,0.1513737551498953
8.428728,3.384187733840166,0.1504827016079901
8.431107999999998,3.4058859768266565,0.1495083850465503
8.433512,3.4230681616411163,0.1486838584783738
8.435896,3.4348031227237663,0.1480200191267556
8.438279999999999,3.443744587127081,0.1474617257827391
8.44068,3.452546281903536,0.1469278446539799
8.443068,3.46651566115808,0.146298693980382
8.445443999999998,3.4797861922783238,0.1457586820330336
8.44784,3.4931964930254265,0.1451940089079334
8.450228,3.5060949370933314,0.1446133871330797
8.452604000000001,3.514756862242926,0.1441179672439884
8.454999999999998,3.5147587581007955,0.1438848995200273
8.457387999999998,3.51769392026486,0.1435623052670934
8.459768,3.519977456122866,0.1432335012078456
8.462171999999999,3.525334027913928,0.1427969811634905
8.526699999999998,3.431775587379573,0.1423774571325643
8.529084000000001,3.435453027790443,0.1423620299176003
8.531464,3.441644425626927,0.1423019770903758
8.53386,3.4502100112621665,0.1422148584770126
8.536244,3.458076748763104,0.1422046566576666
8.538623999999999,3.47246164518249,0.1420117212266066
8.541028,3.4900593471617927,0.1416902713839052
8.543412,3.5036528476482607,0.1415066550549054
8.545796,3.5138937729479527,0.1414645411896132
8.548196,3.525345403061144,0.141368582822845
8.550584,3.537076572428055,0.1412465350956078
8.552964,3.5537431088475797,0.1409765146368879
8.555368000000001,3.5682677748938256,0.1407875564725033
8.557756000000001,3.582373132059492,0.1406452887686561
8.560136,3.592986144411521,0.1406443929050883
8.562532000000001,3.6063926534428856,0.140569037347166
8.56492,3.622313119899865,0.1404522914004344
8.5673,3.6362314856104265,0.1403983409073258
8.569696,3.649358455388071,0.1403540013523221
8.579248,3.683711449869776,0.1403042003276589
8.581627999999998,3.688692142892761,0.1403016127360966
8.584032,3.694231914423188,0.1402401941894119
8.586416,3.7044747355807504,0.1399909541260354
8.588799999999999,3.7159282615518094,0.1396955866511561
8.591196,3.733527859388981,0.1392197169610475
8.593584,3.7526177012933712,0.1386680241103536
8.595963999999999,3.768122650585508,0.1381900293641668
8.59836,3.7809738728251694,0.1377666419753437
8.600743999999999,3.789448806519661,0.1374270660355926
8.60314,3.8012763154009286,0.1369757002053485
8.605532,3.810729636483441,0.1365431789992746
8.607916,3.827819273499284,0.1358578430952029
8.610299999999999,3.845467989022567,0.1351248913038665
8.612704,3.8646069486130696,0.1343333321771632
8.615088,3.890031749696544,0.1333721857855119
8.617467999999999,3.914525385220239,0.1324272502076634
8.619872,3.941021121490351,0.131440479654231
8.62226,3.971521059253297,0.130354774924358
8.62464,4.005233802576158,0.1291712308547485
8.627040000000001,4.0397379418319375,0.1279992353619626
8.629428,4.07196044108758,0.1269032449433003
8.631808,4.105765732209058,0.1258064120635069
8.634208000000001,4.130351915531371,0.1249634273022223
8.636596,4.154006933293904,0.1241516764758654
8.638971999999999,4.169793317697631,0.1235275892999853
8.641368,4.185439932474497,0.1229221790699231
8.643752,4.2057423750502565,0.1222340964015362
8.646148,4.226836213558933,0.1215413875570015
8.703484,4.179261805643098,0.1213944662032643
8.705887999999998,4.185453203479583,0.121378404896102
8.708276000000001,4.193646702062485,0.121318300036256
8.710656,4.203842301391803,0.1212119657768423
8.713052000000001,4.214969066280899,0.1210944911567034
8.715440000000001,4.227026996729774,0.1209615715316226
8.71782,4.242809589417763,0.1207659627335659
8.720223999999998,4.262084526919387,0.1204653368159647
8.722608000000001,4.280008989980652,0.1202174015720906
8.724988,4.299935553788334,0.11992880601985
8.727384,4.3220039879692935,0.1195890494722948
8.729768,4.344351961403973,0.119228972972283
8.732164000000001,4.366467617413176,0.118823374953101
8.734556000000001,4.382204884130791,0.1185104344170272
8.736944000000001,4.400084021221682,0.1181424123206112
8.739324,4.420477115738187,0.1177548100843537
8.741727999999998,4.444083015814609,0.1172926664524449
8.744115999999998,4.466617980704392,0.1168629015380507
8.746496,4.484357348168423,0.116520295021055
8.748899999999999,4.502888111565373,0.116172561578804
8.751287999999999,4.513969550484096,0.1159441927054795
8.753668000000001,4.521745636044287,0.1157427636023691
8.756063999999999,4.532594757537531,0.1154775064340464
8.758448000000001,4.54865878533711,0.1151011291977445
8.760828,4.560578842016994,0.1148164127792559
8.763231999999999,4.571847272390821,0.1145242569595959
8.765616000000001,4.581672680525671,0.1142285329686569
8.767996,4.5905669231007415,0.1139501044553711
8.770399999999999,4.600671870489312,0.113637462327915
8.772787999999998,4.611568213810801,0.1133262807318198
8.775168,4.620881765266453,0.113022613881776
8.777572,4.6274018200427705,0.1127572053003812
8.779955999999999,4.636715371498423,0.1124553619558087
8.782336,4.654968491499521,0.111999971646645
8.784728000000001,4.6736409203812,0.1115173030794223
8.787116000000001,4.69273265814346,0.1110106755385171
8.789496,4.706889028853107,0.1105877653129796
8.791888,4.721464708443334,0.1101374938865874
8.794272,4.741115524713035,0.1095999679312656
8.796668,4.762396354676815,0.1090026492016608
8.799071999999999,4.789683486879845,0.1083063882185022
8.801459999999999,4.813757813522959,0.1076712452270232
8.803836,4.835550500165937,0.1070945493443915
8.806239999999999,4.852407819756302,0.1066025250621693
8.808627999999999,4.869404908973527,0.1060970918353706
8.811008000000001,4.88854386856403,0.1055534956506965
8.813412,4.907403288900813,0.1050312837945549
8.815795999999999,4.924120838864319,0.1045528351418933
8.818179999999998,4.937905122521628,0.1041173540536241
8.82058,4.948616370245881,0.1037366992130726
8.822968,4.9567664387162775,0.103427509767785
8.825347999999998,4.97343676685154,0.1030145189510101
8.827744,4.988616850919583,0.1026556189869833
8.830127999999998,5.00016482054713,0.1023946503445547
8.832512000000001,5.011013942040376,0.1021840937618965
8.834907999999999,5.019301884279764,0.1020439804608371
8.837295999999998,5.033176819877822,0.1018435514316929
8.839676,5.050217339207553,0.1016458748204948
8.842071999999998,5.065767614470063,0.101499696384406
8.844456000000001,5.080479271971413,0.1014113950951508
8.846851999999998,5.090907188726208,0.1013996970016912
8.849256,5.105479076600697,0.1013216024089139
8.851644,5.121541208542407,0.1011977666285158
8.854023999999999,5.1362528660437565,0.101109762806949
8.856428000000001,5.152966624291523,0.1009935228726887
8.858816000000001,5.166327807352514,0.1009443279183213
8.861196,5.182622256719699,0.1008589630595406
8.863599999999998,5.203712303512638,0.1007196545198272
8.865987999999998,5.229597947731327,0.1005259701968082
8.868368,5.260558728629489,0.1002619642611111
8.870764000000001,5.297805351020621,0.0999002921631943
8.873152000000001,5.3262521744931695,0.0996530330220353
8.875532,5.351253874980324,0.0994206838929171
8.877928,5.372019056549168,0.0992049027047553
8.880312,5.391480985505895,0.0989708751962809
8.882696,5.4084289570370085,0.0987429724122063
8.885092,5.419929704836312,0.098561999589484
8.887476,5.420396235545135,0.0984799479166398
8.889859999999999,5.416346708081927,0.0984343387303513
8.892256,5.413787424685939,0.0983433713694989
8.894639999999999,5.415372112409645,0.0981895894506799
8.897020000000001,5.418679361626046,0.0980285395235203
8.899415999999999,5.422498467521645,0.0978867867632023
8.901803999999998,5.433534580469995,0.0976419676987821
8.904184,5.443639527858566,0.0974067291823229
8.906588,5.454024014500857,0.0971526714001438
8.908976,5.458821507784478,0.0969502003477882
8.911356000000001,5.456961072522789,0.0968163248391839
8.913751999999999,5.453378075768406,0.0966911183562841
8.920928,5.410642695390828,0.0966642344261249
8.923312,5.399610374158217,0.0966042016209401
8.925692000000002,5.391651088858663,0.0965015084029445
8.928087999999999,5.386625069865302,0.0963653054228473
8.930471999999998,5.386674187551416,0.0961621837191568
8.932868,5.389796341170584,0.0959173145771571
8.935272000000001,5.400647358521698,0.0955866027037189
8.937660000000001,5.414711181432728,0.0952031165509187
8.94004,5.424119176544868,0.0948611270866088
8.942436,5.429802509417893,0.0945538552100152
8.94482,5.429759079305388,0.0943037946130474
8.947199999999999,5.427201691767269,0.0940606683722137
8.949596,5.41891754124362,0.0938744824289352
8.951984,5.413566657026165,0.0936571027829601
8.954363999999998,5.414222075047961,0.0933704013232695
8.956768,5.417670989749094,0.0930598427571597
8.959156,5.423122005196641,0.0927232670252299
8.961535999999999,5.424988128031935,0.0924078961258504
8.963940000000001,5.425643546053732,0.0921148219034328
8.966324,5.4315138703818615,0.0917465563345034
8.968703999999999,5.436453029150211,0.0913842973656681
8.9711,5.437527756052589,0.0910625329809225
8.973488,5.438322943701245,0.0907587122447025
8.975867999999998,5.434042994670429,0.0905189594807725
8.978264,5.427621175266337,0.0903122821066789
8.980652,5.4201284206756055,0.0901216701017418
8.983044,5.412635666084876,0.0899312289784536
8.985447999999998,5.409798739293036,0.0897063561632846
8.987836000000001,5.4105467051134495,0.0894612349581233
8.990216,5.412365606120502,0.0892005449939119
8.992619999999999,5.417257543060609,0.088900418259313
8.995003999999998,5.420007609627439,0.0886297179552566
8.997384,5.42168674100763,0.0883736224056155
8.999787999999999,5.419501440521847,0.0881553691819066
9.002175999999999,5.4102389026101765,0.0880204847609016
9.004552,5.402047299885144,0.0878700696851542
9.006955999999999,5.397068502720028,0.0876738540433511
9.009344,5.396326224473223,0.0874694515879958
9.011724,5.400798852532749,0.0871975140303143
9.071452,5.256995214309262,0.0870616151126677
9.07384,5.259509171734876,0.0870596701281646
9.07622,5.265375704347267,0.0870049259262887
9.07862,5.273104568079215,0.0869375711127723
9.081004,5.286048338117493,0.086801616890802
9.083384,5.306209115208522,0.0865747655594273
9.08578,5.327860136366771,0.0863073910167524
9.088164,5.351653027898294,0.0860120486192992
9.09056,5.374794293123761,0.0857118018945973
9.092956,5.39849463685667,0.0853775311692085
9.095344,5.422846606895636,0.0850556818967705
9.097724,5.4433341450686274,0.0847664261725492
9.10012,5.467034488801535,0.0844339837836792
9.102508,5.488220875108828,0.0841026216646309
9.104888,5.511549131789399,0.0837425446908834
9.107284,5.5352966973505495,0.0833602450095366
9.109672,5.558672175859362,0.0829522331396919
9.112068,5.581256258435258,0.0825488855198364
9.114463999999998,5.599184513212261,0.0821768574107732
9.116848,5.611525774630596,0.0818439711915042
9.119232,5.62400680567579,0.081505604989646
9.121631999999998,5.63956087265404,0.0811382407553251
9.124019999999998,5.656325644445788,0.0807536048789837
9.1264,5.672578559558339,0.0803520400727575
9.128796,5.691764740977084,0.0799285786549645
9.131184,5.714443267209466,0.0794601335050024
9.133564,5.735399231949152,0.0789958482963924
9.13596,5.753701469636362,0.0785412143062181
9.138348,5.769210210644237,0.0781038134990932
9.140728,5.787931757212029,0.0776341599077199
9.143124,5.8053500511677045,0.07714435159592
9.145512,5.827983251429711,0.0766016611069834
9.147908,5.847171328706327,0.0760640301419411
9.150303999999998,5.8712947730355545,0.0754916874120024
9.152691999999998,5.894487051805003,0.0749265558134223
9.155072,5.914606294641397,0.0743901571152949
9.157468,5.935656703037568,0.0738528724368826
9.159852,5.951631974754267,0.073359250793571
9.162232,5.968817951284466,0.0728449302237841
9.164628,5.986283467068384,0.0723156227088586
9.167016,6.002678047665665,0.0718005963019565
9.169412,6.014137261210332,0.0713230646248882
9.171816,6.022243899568224,0.0708888467742306
9.1742,6.02820866755284,0.0704765662668335
9.17658,6.032450874044758,0.0700664700720176
9.178984,6.029056764603348,0.0697435142115233
9.181372,6.025243346281355,0.0694419148900045
9.183751999999998,6.022081554265421,0.0691512503299456
9.186148,6.018360683742047,0.0688894692313533
9.188536,6.011427007658757,0.0686612483041042
9.190919999999998,6.004865418627803,0.0684586709116807
9.193316,5.994159858477156,0.0682911611917482
9.1957,5.9896929179912375,0.0681159034071738
9.198084,5.982432480825983,0.0679506010404035
9.20048,5.976103209220507,0.067782281897384
9.202868,5.9725674342943655,0.0676045797375984
9.205248,5.966610249741228,0.0674617070446005
9.207652,5.966659367427341,0.0672793104540961
9.21004,5.971084773658625,0.0670977112904378
9.212419999999998,5.977744598061801,0.066936733222465
9.214816,5.982122782464844,0.0668024559253313
9.217204,5.990877255413055,0.0666687058643254
9.219584,6.002425225040601,0.0665267480334823
9.22198,6.0186290224670405,0.0663714427422358
9.224367999999998,6.034413511012897,0.0662380833073869
9.226748,6.051408704372253,0.0660868613554368
9.229148,6.069195293664526,0.0659394340642871
9.231532,6.088983983703218,0.0657807214671946
9.233916,6.109843608928548,0.0656115049204315
9.236311999999998,6.1302839252732975,0.0654639428117054
9.238703999999998,6.149653306431407,0.065325709973018
9.241084,6.17339897613469,0.0651881521964315
9.243484,6.189136242852305,0.0651016790023567
9.245872,6.202312330316062,0.0650560985860545
9.248252,6.216279813712737,0.0650157717670332
9.250656,6.229316131549633,0.0649785665974255
9.26738,6.24537826349134,0.064965347348028
9.269759999999998,6.238348247893695,0.0649645531860967
9.272156,6.232389167482688,0.0649542197092169
9.274544,6.228152648564377,0.0649458018413956
9.276924,6.2255461433401456,0.0649002097692467
9.279319999999998,6.219075206249939,0.0648710981685642
9.281707999999998,6.215025678786732,0.0648095632374462
9.284088,6.212466395390743,0.0647182874835807
9.286488,6.21433062236817,0.0645839941554446
9.288872,6.213029265613924,0.0644319712257482
9.291268,6.215360023300174,0.0642316426636273
9.293672,6.220391729867141,0.0639853134214337
9.29606,6.222769709381633,0.0637394660545863
9.29844,6.228500264082903,0.0634617601838795
9.300836,6.238654329157585,0.0631439342639589
9.30322,6.252580278299623,0.0627733687565909
9.305599999999998,6.272792068934634,0.062358562660351
9.308004,6.291281298076949,0.0619404960281373
9.310392,6.3115403105402015,0.0614841409656088
9.312772,6.335663754869428,0.0610131187321777
9.315168,6.364070939945209,0.0605102205631011
9.317556,6.387682527595239,0.0600240774878221
9.319935999999998,6.411061797819789,0.0595096018330813
9.32234,6.435000146551783,0.0589716722286531
9.324724,6.458658956030055,0.0584507523100231
9.327108,6.48832406774758,0.057904410511756
9.329504,6.516918244278464,0.0573714760026097
9.331888,6.54351032006293,0.0568498207915613
9.334272,6.5671691295412025,0.0563435366966474
9.336676,6.592690270139032,0.0558367862617022
9.33906,6.617931871483141,0.0553449912853221
9.34144,6.641822998386891,0.0548745625033854
9.343844,6.666785060477279,0.0543975876293168
9.346232,6.686252677007614,0.0539662420500006
9.348612,6.701157013537675,0.0535797882979646
9.351016,6.712149696373519,0.0532471280081051
9.353404,6.716856537716393,0.0529522228913104
9.355784,6.724217106111741,0.0526609616296534
9.35818,6.72901649525323,0.0524044186162334
9.360568,6.733955654021581,0.0521428521897258
9.362948,6.7336799064836,0.0519098953987047
9.365348,6.73712882118473,0.0516738672637574
9.367732,6.7397391181247,0.0514757110232204
9.370116,6.741138710251172,0.0512911827996882
9.372508,6.741886676071586,0.0510953484013954
9.374896,6.733555303719694,0.0509344396829865
9.377275999999998,6.721219729874968,0.0507869959182911
9.379676,6.708744386403381,0.0506451033413284
9.382064,6.693987402931658,0.0505219484344593
9.384443999999998,6.678019714646435,0.0504112339273468
9.386844,6.660841321547714,0.0503128359994945
9.389228,6.647667129941826,0.0502006587186137
9.391612,6.634213399082218,0.050100401782116
9.394016,6.620247811543412,0.0499810200086171
9.396404,6.605351058444829,0.0498613988454643
9.398784,6.593806880533021,0.0497159369447796
9.40118,6.586127134487186,0.0495627727324772
9.403568,6.578726927695072,0.0493974398841011
9.405948,6.572397656089597,0.0492258518198739
9.408344,6.566580241163319,0.049073256539935
9.410732,6.565418654035931,0.0489197074715093
9.745248,1.2940564693077024,0.0488269887716611
