Time,Force,Position
9.725944,1.9606848144508304,0.1862271139800044
9.728324,2.0557769291649097,0.1858007857094042
9.730724,2.1492881478710224,0.1848384521819128
9.733111999999998,2.2376335779569145,0.1836824716856888
9.735492,2.3208132194225874,0.1825747401197401
9.737896,2.397663589282784,0.181419915131354
9.740284,2.4701395664556784,0.1801261221455707
9.742668,2.541314186874327,0.1783623985927984
9.745064,2.610488602404428,0.1764408626953256
9.747452,2.6796649137923976,0.1742675339757327
9.749832,2.7443270628662053,0.1722019729737884
9.752228,2.7964666466401837,0.1706221221072714
9.754616,2.84232228477906,0.1691845236022173
9.756996,2.8845477043353096,0.1677407641474806
9.759396,2.9176484597488788,0.166670226127696
9.761784,2.9507038891920745,0.1654428806979077
9.764164,2.9800818782244,0.1643109552454628
9.76656,3.007365218711692,0.1632350711421635
9.768948,3.0329259977062875,0.1622188499287856
9.771328,3.0579749200216853,0.1612018486994866
9.773727999999998,3.080370115284608,0.160264471587196
9.776112,3.102905080174392,0.1593063785012464
9.778512,3.126650749877673,0.1583077837101493
9.780907999999998,3.1516071243944537,0.157247656186182
9.783296,3.175492563724595,0.1562622813703197
9.785676,3.198307067868099,0.1553420201370045
9.788072,3.220330176078684,0.1544429889298505
9.790456,3.2406307227965727,0.1535921934666037
9.79284,3.257206607275349,0.1528749369329468
9.795244,3.2694062032089537,0.1522954855903774
9.797628,3.2737371657837517,0.1520130381990065
9.800008,3.2832830346648803,0.1515115230149524
9.802408,3.292037507613093,0.1510247634847305
9.804796,3.2998608150015256,0.1505703662979643
9.807176,3.3076841223899587,0.150115969111198
9.809576,3.312154854591616,0.1498223829429874
9.811964,3.313832090113939,0.149617757186087
9.81434,3.3108534978373703,0.1495620479860858
9.81674,3.308294214441382,0.1494549959327988
9.819128,3.303593060672116,0.1494412022895402
9.821508,3.302896108395684,0.1492746984660544
9.833472,3.279622656974833,0.1492434742206656
9.835852,3.276224755817683,0.1492342538558931
9.838248,3.2756203513398683,0.1491422606525256
9.840636,3.2782287524219687,0.1489201769693978
9.843016,3.2789748223845137,0.1487516450498525
9.845412,3.286006733840029,0.1483340536337702
9.8478,3.290896774922267,0.1480114014946901
9.85018,3.2997910174973395,0.1475580386341658
9.85258,3.3094766560053293,0.1470957653863368
9.854968,3.321164395259736,0.1465707353040245
9.857348,3.335645631193477,0.1459690861613449
9.859748,3.3525010549259737,0.1453331447550048
9.862136,3.372661832017002,0.1446321909562177
9.864516,3.395196796906785,0.1439120821211508
9.936208,3.598285157976457,0.1437634509601179
9.938608,3.604756095066663,0.1436774354233622
9.940995999999998,3.609784009917892,0.143593873478059
9.943376,3.620166600702313,0.143317646963617
9.94578,3.634553392979569,0.1429151342269147
9.948163999999998,3.6538755523094366,0.1423656765392991
9.950544,3.6744084164528026,0.1417733363222299
9.952948,3.6946617413424487,0.1412047372842213
9.955332,3.714775296605234,0.1406624160558897
9.957712,3.7388930533608526,0.140021212447701
9.96012,3.7634301189970527,0.1393322598540579
9.962504,3.7853134575807776,0.1387008163567326
9.964884,3.7998872413131375,0.1382387919403937
9.96728,3.817673830605412,0.1376733206737592
9.969668,3.830664822471935,0.1372382568869916
9.972048,3.848079324711871,0.1366492568321613
9.974452,3.866704531765307,0.1360085645808402
9.97684,3.8866802132591016,0.1353139903276257
9.97922,3.9038623980735614,0.1346821336255953
9.981616,3.926399258821213,0.133881644531782
9.984004,3.9509382203152823,0.1330443876706056
9.986384,3.9717525195702383,0.1322966387423366
9.988779999999998,3.9957796243851096,0.1314545981556069
10.0748,3.674310530317553,0.1313399549557493
10.077188,3.676592170317691,0.1312576005529008
10.079568,3.683250098862999,0.1310983949972644
10.081964,3.694284315953479,0.1308646472716753
10.084352,3.712488318268466,0.1304876383325668
10.086732,3.7249183357696776,0.1303330502456534
10.089128,3.740933245883143,0.1301093947436256
10.091516,3.753875120063553,0.1299766544344772
10.0939,3.763324649430328,0.1299759359466074
10.096296,3.778128854730295,0.1298021500261496
10.098684,3.794376082269237,0.1296298037274125
10.103464,3.8168600336150384,0.1295625196630838
10.105848,3.829614916340345,0.1295275053439171
10.108232,3.847305166118265,0.1293701238189584
10.110636,3.864343789590125,0.1292138703608257
10.113024,3.886225232315981,0.1288678560802019
10.115404,3.905732487243083,0.1285418974569296
10.1178,3.926590216610544,0.1281685990511433
10.120188,3.9489381900452223,0.1277359789130206
10.122572,3.9729161771739823,0.1272279337342735
10.124968,3.9982446387431,0.1266715248434664
10.127356,4.026134279566076,0.1260276700551378
10.12974,4.051789502217157,0.1253947688908519
10.132136,4.075210306696344,0.1247698967666341
10.134524,4.099190189682973,0.1240884819992283
10.136904,4.1237291511770415,0.1233695403960118
10.139304,4.148407882297971,0.1226319885455015
10.141692,4.177510123792315,0.1217721535997653
10.144072,4.203818868607324,0.1209694735954017
10.146472,4.228544821556496,0.1201751351415518
10.148856,4.252479378572751,0.1193777584554364
10.15124,4.276693474842725,0.1185499734017067
10.153632,4.29518080812717,0.1178358436804442
10.15602,4.308500456933526,0.1171913076593738
10.1584,4.321680336113021,0.1165696213346169
10.1608,4.333929049732737,0.1159677506644227
10.163188,4.34776055521829,0.1153599060815464
10.165584,4.354375053651094,0.1149199682262988
10.16798,4.354843480217786,0.1146214561784707
10.170368,4.354240971597842,0.1143524649168335
10.172748,4.352707297418119,0.1141002059441336
10.175144,4.347960817678478,0.1139278848101912
10.177532,4.340792928311842,0.1138308146356725
10.179912,4.335487370064762,0.1137044417944991
10.182315999999998,4.334186013310514,0.1134986160552747
10.184704,4.329671850996353,0.1133693836631836
10.187084,4.327159789428607,0.1132008603567936
10.189488,4.318501655994752,0.1131610124974672
10.191876,4.313288645546288,0.113088472230336
10.194256,4.309937966217382,0.112988515481516
10.196656,4.313384985060645,0.1127729828817056
10.199044,4.319485730956382,0.1125296294524616
10.201424,4.331313239837649,0.1121958957591925
10.20382,4.347097728383506,0.1118546005254029
10.206207999999998,4.3584587065559495,0.1116212082537417
10.208588,4.37047131103445,0.1113985702924038
10.210984,4.381552749953173,0.1111897080273514
10.213372,4.398640491111146,0.1108668042120741
10.215756,4.423317326374207,0.1104298773692855
10.218152,4.447574852756685,0.1100301900273735
10.22054,4.471692609512305,0.1096466951723435
10.222924,4.495670596641064,0.1092735040725059
10.22532,4.527517217128629,0.1087730651459913
10.227708,4.558153132802698,0.108314233053717
10.230088,4.584365538103351,0.107962701333457
10.232484,4.61216073526984,0.1076066504195739
10.234872,4.640887097996107,0.1072443345583328
10.237256,4.674548827774988,0.1067980869254305
10.239652,4.705277291247673,0.1064031820970253
10.24204,4.738799251399692,0.1059823304846849
10.244424,4.765243974125822,0.1056909632100847
10.24682,4.788895200172618,0.1054352823154039
10.249208,4.810684095099857,0.1052075142978036
10.251588,4.828608558161123,0.1050351335041218
10.253988,4.851747927528719,0.104765645835217
10.256372,4.875678692829236,0.1044977970365057
10.258756,4.900680393316391,0.1042103789251682
10.261152,4.927544424923101,0.1039092162575481
10.263535999999998,4.949892398357781,0.1036573047494397
10.265936,4.971588745486403,0.103397136698097
10.268332,4.991003452614887,0.1031870503248656
10.270715999999998,5.010697698997091,0.1029572595113622
10.2731,5.0254565783266845,0.1028044788099366
10.275496,5.037142421723223,0.1027006159157909
10.277883999999998,5.051109905119896,0.102546812100537
10.280264,5.065776236650872,0.1023460906553436
10.28266,5.076438366689015,0.1022053991460728
10.285048,5.086169331167378,0.1020766185790275
10.287432,5.097250770086101,0.1019098197923173
10.289828,5.104607546765712,0.1017846692062665
10.292216,5.115037359378376,0.1016107436653214
10.294596,5.129471373483876,0.1013806145689533
10.296992,5.142974222029596,0.1011614664754334
10.29938,5.156896379455897,0.1009122919239036
10.301764,5.166162709083306,0.1007127010508106
10.30416,5.172403224605903,0.1005049972379149
10.306548,5.17892327938222,0.1002802434980639
10.308932,5.179996110426727,0.1001035325947167
10.311331999999998,5.17841521441876,0.0999446554403398
10.31372,5.180186893597569,0.0997222731315572
10.3161,5.185730456843734,0.0994089418779356
10.318496,5.191553559343619,0.0990779330440217
10.320884,5.196073409231389,0.0987287320841061
10.32328,5.203294207999878,0.0983053637512348
10.325676,5.205998948596334,0.0979155839908779
10.32806,5.206701588446374,0.0975534969673009
10.33044,5.209965407550271,0.0971264484077676
10.332844,5.208433629228416,0.0967510405344665
10.335228,5.203177188667449,0.0964102512535436
10.337612,5.198340056987062,0.0960415696546716
10.340008,5.193782464560394,0.095655639260383
10.342396,5.185779749148336,0.095286706156123
10.344776,5.178056572989996,0.0948993108180297
10.34718,5.172615036831794,0.0944677530285359
10.349568,5.170526075860368,0.0939744576196181
10.351947999999998,5.169880137127918,0.0934908799411306
10.354344,5.164950457648914,0.0930753611583256
10.356728,5.161883109289466,0.0926421674900756
10.359108,5.161609257609353,0.0921823082471022
10.361512,5.156120499622907,0.0918010757474973
10.363896,5.1469996271959655,0.0914991197249042
10.36628,5.134805718835969,0.0912379055188715
10.368676,5.119910861595255,0.0910467439934439
10.37106,5.106878335474096,0.090838373667105
10.373456,5.096219997151692,0.0906326758998477
10.375852,5.083419788456012,0.0904606068927787
10.37824,5.070200270879751,0.0903154356231504
10.38062,5.063918221102519,0.0900861333522325
10.383019999999998,5.059218963191122,0.0898580610991541
10.385404,5.049956425279451,0.0897174624689059
10.387784,5.04055411774092,0.0895857688290567
10.390184,5.030452962068088,0.0895003376994132
10.392572,5.020072267141535,0.089432954136567
10.394952,5.01141413370768,0.0893582093862264
10.397348,5.000986216952884,0.0893456544044049
10.399736,4.991349696131008,0.0893344798114237
10.402116,4.985717376801963,0.0892749878582473
10.40452,4.982878554152254,0.0891931106386425
10.406908,4.976687156315768,0.0891700452010097
10.409288,4.974080651091538,0.0891263073190179
10.411684,4.973616016240583,0.0890493198878167
10.414072,4.980740475494715,0.088904851935049
10.416455999999998,4.99307984105518,0.0886865305385216
10.418852,5.003789192921565,0.0885234525950413
10.42124,5.021575782213839,0.0882775360602975
10.42362,5.04723100486492,0.0879512177958401
10.426016,5.075819493822198,0.0875996508027482
10.428408,5.102266112406197,0.0872854411875698
10.430788,5.131645997296394,0.0869437782577172
10.433184,5.169965450732034,0.0865075873395958
10.435572,5.206003264167538,0.086111937484563
10.437956,5.244182947976318,0.085685292408101
10.440352,5.282083092531378,0.0852762292096457
10.442736,5.314628561153245,0.0849461520148525
10.445136,5.345311698655556,0.0846262415040108
10.447532,5.3772055409713655,0.0842862905946587
10.44992,5.410310088100673,0.0839279262177672
10.4523,5.436477167430952,0.0836404316598201
10.454704,5.471863354560397,0.0832473402024503
10.457092,5.50245394426409,0.0828932344742373
10.459472,5.533044533967783,0.0825422505060814
10.461868,5.559491152551782,0.0822477235955768
10.464256,5.583004504829589,0.0819821718520256
10.466636,5.604935065241556,0.0817118927139826
10.46904,5.620999093041133,0.0814993448259639
10.471424,5.627983782668406,0.0813815429101492
10.485756,5.6018204950538655,0.0813483792413399
10.488136,5.593487226844104,0.0813470768555613
10.49054,5.589577469007756,0.0812825181831372
10.492928,5.589299825611905,0.0811521380693261
10.495308,5.586228685536718,0.0810384470802944
10.497704,5.5808759054613954,0.0809600472628962
10.500092,5.579527326878906,0.0808432497653655
10.502476,5.569518719004692,0.0807909315711555
10.504872,5.559789650384197,0.0807223174185917
10.507256,5.548338020271006,0.0806558897452587
10.50964,5.534651971985921,0.0805725279885886
10.512035999999998,5.526041060380307,0.0804378881436288
10.514424,5.52078272396147,0.0802552546124283
10.516804,5.514872761236576,0.0800611950374663
10.5192,5.515248640004652,0.0797955636998305
10.521588,5.522189899519419,0.0794449235079493
10.523968,5.52889884160871,0.0790607422634453
10.526368,5.541241998884913,0.0785999242294327
10.528752,5.558660292840588,0.0780912419046031
10.531148,5.574356025303567,0.0775813679492508
10.533548,5.5932645633264615,0.077035264236503
10.535936,5.607237734296744,0.0765293048022135
10.538316,5.616275538214414,0.0760629546394771
10.540716,5.6244747243709226,0.0756467750696084
10.543104,5.635327637579908,0.0752263548200668
10.545484,5.644737528549916,0.0747904120875276
10.54788,5.657220455452978,0.0743288592117458
10.550268,5.671146404595017,0.073878974384465
10.552651999999998,5.688797015976171,0.0734101331923538
10.555048,5.707378792917101,0.0729374054802115
10.557436,5.727683131350729,0.0724638749865872
10.559816,5.7389081316120505,0.0720694892864031
10.562212,5.750365449298849,0.0717150746635107
10.5646,5.761263688478208,0.0713912810399935
10.56698,5.770020057284288,0.0710934788101568
10.56938,5.771931506089958,0.0708915134730999
10.571768,5.774866668254023,0.0707290714286259
10.574152,5.772167615231174,0.0706407560619966
10.576548,5.767466461461908,0.070567724760582
10.578936,5.769283466611091,0.0704688836904207
10.581316,5.768027435827219,0.0703963867832143
10.583719999999998,5.7702165280287385,0.0703243378937462
10.586104,5.777852843962068,0.0702381920740215
10.588484,5.785908468775978,0.070129826806095
10.590887999999998,5.791030827283693,0.0700400619231506
10.593272,5.800389704709719,0.0699557494617896
10.595652,5.805604611016053,0.0699085289618935
10.598059999999998,5.817896754748273,0.0698086626985956
10.600443999999998,5.831259833667134,0.0696993139720977
10.602824,5.842201502958996,0.0696257424058534
10.605228,5.853655028930056,0.0695713530226823
10.607611999999998,5.871906253073286,0.0694782840820923
10.609992,5.882288843857708,0.0694335193397688
10.6124,5.896815405761823,0.0693534142668606
10.614783999999998,5.909339866919521,0.0692872901928896
10.617164,5.925496442517717,0.0691660339228283
10.619568,5.938999291063437,0.0690475395402979
10.621956,5.953852614049517,0.0689031905998698
10.624332,5.969357563341654,0.0687711418440099
10.626732,5.981789476700737,0.06866558665623
10.629115999999998,5.999016987485571,0.068537893370748
10.631496,6.019597073457179,0.0683736284588459
10.6339,6.039665302749591,0.0681934606283651
10.636288,6.06173563278842,0.0680030937289134
10.638668,6.085156437267606,0.0677888644996449
10.641059999999998,6.105271888388261,0.0675667286275721
10.643447999999998,6.127529209882192,0.0673252132526407
10.645828,6.1421974372710375,0.0671163615718644
10.648231999999998,6.157005434286743,0.0669031029870845
10.650619999999998,6.176516480929584,0.0666311015721692
10.653,6.1997994116397805,0.066306878863539
10.655404,6.221499550484139,0.0659764106118738
10.657787999999998,6.25083600526183,0.0655719234076006
10.660168,6.276587567427266,0.0651739354467916
10.662572,6.306622870339258,0.0647402797939241
10.66496,6.334516302877971,0.0643267801949169
10.667339999999998,6.364039749110765,0.0638779991456559
10.669744,6.394634130530197,0.0634229653090203
10.672128,6.421503849710517,0.0629755820620865
10.674507999999998,6.444928445905443,0.0625229233580491
10.676904,6.460763947995283,0.0620960897712703
10.679291999999998,6.469010355980035,0.0616947546286515
10.681672,6.474603036912312,0.0612947444984381
10.684076,6.474189415605339,0.0609277046481374
10.68646,6.472565089484867,0.0605759486562992
10.68884,6.469590288924037,0.0602451566545148
10.691244,6.462611286870372,0.0599349566256057
10.693628,6.453490414443431,0.0596397624701712
10.696011999999998,6.441436275710295,0.0593573927393794
10.698416,6.42817143216366,0.0590909894822288
10.7008,6.406618646377636,0.0588786315292508
10.703183999999998,6.3838551557781145,0.0586805104637509
10.705576,6.358670255551595,0.0585118264055965
10.707964,6.334276751257994,0.0583469256535996
10.710344,6.308672542150894,0.0581961075793546
10.712748,6.28628113860371,0.0580199422312291
10.715132,6.263330656549084,0.0578691113387251
10.717515999999998,6.239309239307821,0.0577253872027958
10.71992,6.223575764305945,0.057530997725647
10.722304,6.213569052289599,0.057322008869096
10.724683999999998,6.209428872885645,0.0570918232398071
10.727088,6.206871485347524,0.056870446515383
10.729476,6.204034558555684,0.0566617776745439
10.731856,6.203199732510261,0.0564429231274442
10.734252,6.203575611278337,0.0562094812199045
10.73664,6.205953590792831,0.0559664677120318
10.739019999999998,6.210333671053741,0.0557130856547228
10.741416,6.219649118367263,0.0554396134050005
10.743804,6.228685026427064,0.0551790934879997
10.746183999999998,6.235299524859867,0.0549480277785822
10.74858,6.246849390345283,0.0546971427267512
10.750968,6.261192752510034,0.0544437898645936
10.753351999999998,6.275675884301645,0.0541843378921508
10.755748,6.290019246466395,0.0539322585958799
10.758131999999998,6.304083069377425,0.0536948003964592
10.760516,6.31479431710168,0.0534880644123708
10.76292,6.325365795199073,0.0532881619712028
10.765304,6.333655633296332,0.0531097029599838
10.767687999999998,6.333517759527341,0.0529858903273277
10.770084,6.330167080198434,0.0528849995941921
10.772467999999998,6.323743364936473,0.0527997123835152
10.774848,6.3256075919139,0.0526697278919434
10.777252,6.3281234451973845,0.0525520302328602
10.77964,6.333712334413923,0.0524197147411156
10.782019999999996,6.339021684376743,0.0523007577545865
10.784424,6.347543839899477,0.0521616456100923
10.786812,6.35727670023571,0.0520093322825805
10.789191999999998,6.367940726131722,0.0518577362133027
10.791588,6.381817557587648,0.0516861764952538
10.793976,6.398115798670572,0.0514884583933208
10.796355999999998,6.411201234193581,0.051311193352199
10.798752,6.4216329426641146,0.0511295228585971
10.801139999999998,6.431924881507788,0.0509546614542026
10.803536,6.440354489231905,0.0507802817204167
10.805932,6.44440780841085,0.0505942484514803
10.80832,6.447669731656879,0.0504013698491035
