Time,Force,Position
9.161376000000004,2.3065978374592677,0.162221450065488
9.163755999999992,2.4275321662795317,0.1606485071804627
9.166156,2.5425093105466576,0.1589911383289755
9.168539999999991,2.6470604339168577,0.1574503949774581
9.170924,2.735271781949498,0.1563934112254592
9.173320000000004,2.8122638172944243,0.1557194903423558
9.175708,2.8781290877502537,0.1554835592197931
9.178088000000002,2.947720916303066,0.1547436488860864
9.180492,3.016710236235933,0.1535768955729143
9.182879999999995,3.0757853919510705,0.1523496274303899
9.18526,3.1298345286728484,0.1509278983248806
9.187656000000004,3.1777394893863846,0.1495461652260305
9.237824000000003,3.2287061108857618,0.1494394642249064
9.240212,3.2380630924539187,0.1493189236680704
9.242592000000002,3.2505856577537484,0.1491556067813701
9.244991999999996,3.2646910149194137,0.1489663289739443
9.247379999999993,3.281357551338937,0.1486274568057847
9.249759999999997,3.29993364070626,0.148138945968218
9.252156,3.312782967088053,0.1478465456757343
9.254543999999996,3.331870913134574,0.1473886588905805
9.256928000000002,3.35347281660671,0.1468881943723597
9.273659999999992,3.4150562421738546,0.1467291863901668
9.276044,3.423714375607711,0.1466905083224183
9.278424,3.43786695460162,0.1464245267997251
9.280819999999991,3.447875562475835,0.1463205340536061
9.283208000000002,3.457092774417132,0.1462274092731512
9.285588000000004,3.470501179306366,0.1458993085133217
9.287992000000004,3.476088172665036,0.1457432502279652
9.29038,3.4782300430383124,0.1456603252192742
9.292763999999991,3.479580517478672,0.1455872141440403
9.295168000000004,3.4825137837848663,0.1454937882715413
9.297556,3.484515884531284,0.1454268457424596
9.304720000000003,3.477720082216984,0.1454013341607656
9.307103999999995,3.4776747562466093,0.1452499644239104
9.309504000000004,3.4791196743434543,0.145008608657063
9.311892,3.4809839013208803,0.1447202731425826
9.314272000000004,3.4828953501265496,0.1443413221487979
9.428956,3.26868401588352,0.1442230669032654
9.431352000000004,3.276038896705259,0.1441965870951629
9.43374,3.294335446818862,0.143816874373869
9.436123999999992,3.313982471372824,0.1433614361995166
9.438519999999995,3.335212287792622,0.1428928712049545
9.440907999999991,3.360166766451533,0.1423217936218944
9.443287999999995,3.391779173655753,0.1415610749529673
9.445688000000004,3.421109940859836,0.1408963620827514
9.448076,3.454305139929892,0.140103717339143
9.450456000000004,3.4876401086268083,0.1393026334036692
9.452855999999995,3.5292630195631123,0.1382129106800678
9.455243999999992,3.5671612682603038,0.1372508807566055
9.457623999999996,3.610414192890686,0.1361469029072755
9.46002,3.650361764162537,0.1351113300163399
9.462407999999996,3.685933046889216,0.1342055686121182
9.464792000000005,3.7260676096161705,0.1331592667949142
9.467187999999991,3.765550546037067,0.1321239168137772
9.469576000000004,3.80717535283124,0.1310422586614044
9.471959999999996,3.845727123692358,0.1300659871390768
9.474360000000004,3.884837973060916,0.1290440058353512
9.476748,3.924507900936916,0.1279803052812957
9.479128000000005,3.9632466632531367,0.126943923300124
9.481527999999996,3.9990521592631625,0.126003248987751
9.483915999999994,4.035928590459828,0.1250393800201778
9.4863,4.071501769044377,0.1240708438773492
9.48869599999999,4.105771695016809,0.1230972136815119
9.49108799999999,4.138738368377127,0.122135347318302
9.493467999999991,4.174266220991301,0.1210769470455211
9.495868000000002,4.211004778418976,0.1199908915587101
9.560388000000003,3.9860273911919695,0.1196438796293349
9.562780000000004,3.985375764885912,0.1196349428343583
9.572328,3.993197176416477,0.1195439662448317
9.574727999999991,3.997293925707927,0.1195162671786088
9.577116000000004,4.0041841716787125,0.1194419434675756
9.579495999999992,4.014147453582554,0.1192977565467644
9.581896,4.030256807352506,0.1190176597931552
9.584288,4.051441297801929,0.1186298655343472
9.586671999999991,4.0815653567968,0.1180541041337521
9.589067999999996,4.114622682097865,0.1174166151642123
9.591455999999994,4.154617475197959,0.1166452025829157
9.59384,4.196614369044469,0.1158295298487715
9.59623599999999,4.239682198077619,0.115007661857608
9.598624,4.283401653416826,0.1142044760395525
9.601007999999991,4.3287039006218695,0.113401923814288
9.603403999999998,4.371072881520719,0.1126742062663398
9.605791999999994,4.407295790553455,0.1120753679764398
9.608176,4.441237059586055,0.1115449434438206
9.61057199999999,4.471174127125822,0.1110969322406813
9.61296,4.496967223545894,0.1107465185786694
9.615340000000003,4.530768722951635,0.1102371976639729
9.617739999999998,4.562056264931759,0.1097481879067985
9.620127999999994,4.587756813553216,0.1093389761538198
9.622512,4.612665966241753,0.108935938229103
9.62490799999999,4.637063262251092,0.108514966766023
9.627296,4.660529392700654,0.1081133816548073
9.629679999999992,4.678268760164684,0.1078076414337361
9.632080000000002,4.691492069456684,0.1075585736340978
9.634467999999998,4.702341190949929,0.107320021345116
9.636848,4.711327981323619,0.1071057087052952
9.63924399999999,4.711514972778723,0.1070325457852833
9.641632,4.711050337927768,0.1069502896485743
9.644015999999992,4.705650336024201,0.1069484858058642
9.646411999999998,4.702020117441574,0.1068714977024817
9.648799999999994,4.694944775873554,0.1068196326474769
9.651179999999997,4.686007103185977,0.1067903802495596
9.653579999999993,4.681912249752396,0.1066315174627956
9.655971999999991,4.676234604452978,0.1064743809846381
9.658355999999998,4.6739095343403365,0.106240970823891
9.660752000000002,4.671724233854555,0.105997124623867
9.66314,4.666885206316298,0.105778023846789
9.66552399999999,4.664048279524458,0.1055260991063768
9.667919999999995,4.665495093479173,0.1051869185305242
9.670311999999996,4.668804238553444,0.1048275715878647
9.672691999999998,4.674255254000992,0.1044287301615557
9.675088000000002,4.678914873515622,0.1040320270305753
9.677480000000005,4.683574493030253,0.1036339914730585
9.67985999999999,4.687023407731384,0.1032651156455775
9.682255999999995,4.686979977618879,0.1029797991356253
9.684643999999992,4.690289122693151,0.1026224446204539
9.687027999999998,4.699604570006673,0.1021684022719302
9.689424000000002,4.708920017320195,0.1017157078051682
9.691812,4.72345037094005,0.1011718414306452
9.694195999999993,4.730623947880294,0.1007631929528717
9.696591999999995,4.739659855940094,0.1003321492151442
9.698979999999992,4.751629030306091,0.0998616840108231
9.701363999999998,4.760897255791369,0.0994745281877746
9.765895999999998,4.64786740701094,0.0994360898667977
9.768295999999992,4.664069308579508,0.0993011530628037
9.770684000000005,4.681062606080995,0.0991646943749954
9.773072,4.698847299515401,0.0990282347219186
9.775468000000004,4.714350352949669,0.0989430728629368
9.777860000000004,4.737210183063546,0.0987346834819784
9.780248,4.759558156498225,0.0985057302310142
9.782647999999996,4.781906129932905,0.0982767769800499
9.785035999999993,4.804393872994446,0.0980402196331077
9.787424,4.828232090496344,0.0977608962408188
9.789819999999992,4.850068207251825,0.0975121002284581
9.792208000000002,4.874977359940362,0.0972157827261178
9.794600000000004,4.898303720763063,0.0969134241050202
9.796995999999991,4.922189160093206,0.0965745115924648
9.799387999999992,4.943700411624594,0.0962362491264172
9.801772,4.958413964983813,0.0959876288914447
9.804171999999994,4.968331920917281,0.0957980434312124
9.80655999999999,4.979879890544828,0.0955535117116336
9.808948,4.997154623157904,0.0952463933343103
9.811343999999991,5.015267973532144,0.0948792867238014
9.813732000000002,5.025931999428154,0.0945872102061703
9.816131999999996,5.030357405659438,0.0943413000076487
9.81853199999999,5.039625631144715,0.0939893001264206
9.82092,5.050895957376411,0.0936131280886243
9.823315999999991,5.064727462861963,0.0931766451931448
9.825716,5.068828003869153,0.0928524567588892
9.828103999999996,5.07371994080926,0.0925293099810457
9.83050399999999,5.078891417003088,0.0921880688305296
9.832911999999991,5.085133828383554,0.0918324832220435
9.835300000000004,5.095240671629995,0.0914389156298841
9.837695999999994,5.107908694130292,0.0909873457049153
9.840099999999993,5.120064859951391,0.0905209999747439
9.842491999999991,5.137435932078824,0.089981813996896
9.844892000000002,5.153736069019616,0.089462337352699
9.847287999999992,5.170827601893328,0.0889445910101086
9.849688,5.18912983958054,0.0883988530895091
9.852087999999997,5.206500911707972,0.0878577214679414
9.854475999999991,5.221590343835267,0.0873626907422937
9.856871999999996,5.232815344096589,0.0869084696557779
9.859272000000004,5.245902675477467,0.0864420847384394
9.86166,5.262574899470598,0.0859555181857568
9.864059999999997,5.280829915329566,0.085474469381173
9.866456,5.2938700248822,0.0850691202822633
9.868848,5.306258508128777,0.0846568334775731
9.871228000000002,5.317436286561856,0.0842727445960781
9.873627999999997,5.333130123166965,0.0838628386210866
9.876015999999993,5.349894894958712,0.0834398551806811
9.8784,5.370524098616435,0.0829889292127556
9.880799999999994,5.384355604101989,0.0825969869120093
9.883188000000004,5.395393612908207,0.0822272329970517
9.885571999999996,5.402427420221592,0.0819002022856056
9.88798,5.408902149027536,0.0816091042530389
9.890367999999995,5.414817799326038,0.0813545173076075
9.892755999999991,5.42031414074396,0.0811252262741924
9.895167999999998,5.42674164772166,0.0808909868176929
9.89756,5.434100320259139,0.0806512724653871
9.89994399999999,5.444532028729673,0.0803782501332511
9.902363999999992,5.45282186682693,0.0801321335504407
9.904755999999992,5.463905201603522,0.0798701286559577
9.907139999999998,5.474569227499533,0.0796349100307957
9.90956,5.483091383022267,0.0794273379456197
9.911952,5.490263064104643,0.0792504356888776
9.914335999999992,5.499948702612632,0.0790744314077692
9.916731999999996,5.507073161866766,0.0789508657283137
9.919119999999992,5.511915981120759,0.078863075318281
9.921504,5.516898570001616,0.0787675361574429
9.926288,5.517737187762777,0.0787183323202581
9.928671999999992,5.522672554815388,0.0786754593962728
9.931067999999996,5.526257447427642,0.0786625015100337
9.933455999999993,5.5354293333985645,0.0786186825484839
9.93584,5.542599118623071,0.0785933256159084
9.938236000000003,5.54818611198174,0.07856243441611
9.940628000000004,5.555123579780769,0.0785022601099593
9.943007999999992,5.558988011646743,0.0784735936415465
9.945403999999996,5.567508271311608,0.0784206330122766
9.947791999999993,5.574538286909254,0.0784051399004873
9.950176,5.585712273626593,0.0783459639673543
9.952572000000004,5.594232533291459,0.0782941345297225
9.95496,5.602101166650267,0.0782316200788347
9.957343999999992,5.61225144000921,0.0781357013714849
9.959739999999996,5.622169395942678,0.0780046378520804
9.962127999999993,5.625569192957697,0.0779067238972531
9.964512,5.632601104413212,0.0777467109289334
9.966908000000004,5.637910454376031,0.0775869870262851
9.969296,5.64335957396571,0.0774202164585897
9.971676000000002,5.650159167995748,0.0772258558198621
9.97408,5.660590876466281,0.0769667694726767
9.976467999999995,5.665295821951284,0.0767459982897038
9.978848,5.6694889107570905,0.0765048019769624
9.981251999999998,5.665953135830952,0.0763180297245233
9.983639999999994,5.665258079412388,0.0760657820344851
9.986019999999996,5.664563022993826,0.0758137464511381
9.988416,5.664147505828984,0.0755469649284483
9.990803999999995,5.669226434224195,0.0752111300349983
9.993184,5.665785102954541,0.074923749848184
9.995580000000004,5.662902850192327,0.0746049012066462
9.997968,5.656295935191,0.0743033916526445
10.000351999999992,5.653693221682507,0.0739703047414747
10.002747999999997,5.652021673733792,0.0736338062292015
10.005135999999991,5.649558729852159,0.0732944293402885
10.00752,5.651099987463359,0.072925492498468
10.009916000000004,5.65971848250045,0.0724969451528654
10.012304,5.6654037112313445,0.0720897833985887
10.014684000000004,5.676303846268572,0.0716330610016511
10.017083999999995,5.685621189439962,0.0711699385159502
10.019468000000003,5.692424575185738,0.0707045743458624
10.021851999999996,5.705094493543905,0.070208154858798
10.024248,5.722048152648625,0.0696697497180132
10.026635999999996,5.740864142872903,0.0691240696479616
10.029020000000004,5.765546665709572,0.0685417159682247
10.031424,5.78859917485216,0.0680046125728531
10.033811999999998,5.81058074880811,0.0674785903107354
10.036196000000004,5.828418351644366,0.0669881068980781
10.038591999999994,5.8391787170547325,0.066550707652126
10.04097999999999,5.851661643957796,0.0661102388981564
10.043359999999993,5.862002700487583,0.0656907341063347
10.04576,5.875277023323564,0.0652549008094512
10.048147999999998,5.880542943173879,0.0648732524907778
10.050528,5.8850174670912745,0.0644884310424399
10.05292399999999,5.888281286195172,0.0641216027222099
10.055312,5.888192530112293,0.0637957627066299
10.057695999999993,5.884611429215776,0.0635162779035111
10.060091999999996,5.880611019438683,0.0632584780312101
10.062479999999994,5.87446873928831,0.0630216553635234
10.064864,5.869909251003774,0.0627944878803057
10.06725999999999,5.865861619398436,0.062586743431153
10.069648,5.855807685553847,0.0624164706156198
10.072028000000005,5.8441237380151785,0.0622852232820255
10.074427999999996,5.8302979201032334,0.0621725892931204
10.076812000000004,5.816611871818148,0.0620524888724803
10.079195999999996,5.802925823533063,0.0619321097345568
10.081599999999996,5.791381645621256,0.0617924999385249
10.08398799999999,5.7834223603217,0.061651224059412
10.086367999999991,5.780118902821037,0.0614986809052956
10.088768000000002,5.783752913119402,0.0613107075419571
10.091155999999998,5.794184621589936,0.0610956401260176
10.09353999999999,5.803405625246971,0.0608979166385834
10.095935999999996,5.81635129114312,0.0606901782790179
10.098323999999993,5.829948583345328,0.0604961123689917
10.100707999999996,5.848481242600148,0.0602802227530883
10.103104000000002,5.8680848370416046,0.0600565646221907
10.105491999999998,5.889038905923419,0.0598094935806094
10.10787599999999,5.912134845178514,0.0595451079959843
10.110271999999997,5.9378845114860805,0.0592849552589724
10.112663999999995,5.960421372233734,0.0590513199978967
10.115043999999996,5.9828184633545245,0.0588251130842564
10.117443999999992,6.00307368410204,0.0586156486884584
10.119832000000002,6.019464472983581,0.0584193312770186
10.122215999999996,6.040790628917736,0.0582008820928917
10.124612,6.059974914478613,0.0580020517402974
10.126999999999995,6.078088264852851,0.0578119238903369
10.129384000000002,6.094851140786728,0.0576458458822938
10.131783999999996,6.1108226207876895,0.0574748362194729
10.134171999999992,6.128935971161928,0.0572888169678628
10.136551999999996,6.140251623363997,0.0571291465090423
10.138952000000003,6.145700742953676,0.0569935471249282
10.14134,6.155154064036189,0.0568400479279642
10.143723999999992,6.170473917731093,0.056666272358295
10.146119999999996,6.186724936985774,0.0564924950514601
10.148511999999997,6.196969654001204,0.0563476958130929
10.150892,6.2049327310164974,0.0562257356867734
10.153291999999992,6.216900009524625,0.0560872236361635
10.155680000000004,6.227936122472973,0.0559506867415031
10.158063999999996,6.23445617724929,0.0558135848252456
10.16046,6.245399742399023,0.0556394022929309
10.162852,6.257693781989112,0.0554450833338376
10.165235999999991,6.275714584564733,0.0552382069028753
10.167631999999998,6.299881459006466,0.0549993003207414
10.170023999999998,6.322325771955501,0.0547587884511907
