Time,Force,Position
9.167804,3.1203689987932437,0.1520048710182355
9.232328,3.2674118099683285,0.1518395050978921
9.23472,3.2779322745217407,0.1517489941909457
9.237108,3.2859387816495387,0.1517078853154024
9.239488,3.296738785456672,0.1515864432242686
9.241884,3.308190415569863,0.1514701047691911
9.244272,3.326160204601502,0.1511576966898768
9.246652,3.342547201767305,0.150865477107651
9.249056,3.361774917440686,0.1503885992603188
9.251444,3.3759747182628383,0.1500239210509769
9.253824,3.389383123152072,0.1496843016154443
9.25622,3.4038624632279446,0.1492987189662919
9.258608,3.417131098490318,0.1489664896921529
9.260988,3.431889977819911,0.1485328379471289
9.263384,3.444274669350749,0.1481387038943534
9.265772,3.456938900135308,0.147713336235217
9.268168,3.4750503546516764,0.1471357922380209
9.270564,3.4922306436082677,0.1465912207480915
9.272952,3.511692572564995,0.1459414412427216
9.275332,3.5286405440961084,0.1453375778075112
9.282496,3.535438242268277,0.1451102508571604
9.28728,3.536369407828056,0.1450838409089086
9.289664,3.5359973207757185,0.1450478339637487
9.29206,3.53697570816374,0.1449418559448333
9.294448,3.539257348163877,0.1448458509255307
9.296828,3.5471259815226843,0.1446052877041509
9.299224,3.5605816082401613,0.1442266336585919
9.301612,3.569521176785607,0.1439545026600995
9.303996,3.579811219771411,0.1436175647018092
9.306392,3.5974580394368254,0.143039200762881
9.30878,3.620040226154852,0.1423302459408563
9.311164,3.646626614365711,0.1415187696423574
9.31356,3.672421606643654,0.1407175379674535
9.315948,3.6947714759362023,0.1399826325928768
9.413924,3.4516052532571657,0.1393425676437599
9.418688,3.4554224632948967,0.1393134603305268
9.421092,3.4590999037057664,0.1393011405849292
9.423476,3.4650117622885306,0.1392773991894626
9.425856,3.473764339378873,0.1391024846808217
9.42826,3.47944388053616,0.1390295487087
9.430648,3.4911297239326973,0.1387732340242361
9.433028,3.503886502515873,0.1384750630842621
9.435432,3.52292912259202,0.1379711856916055
9.437816,3.5403889508023307,0.1375012058966379
9.440196,3.563063685318974,0.1368645990304651
9.442592,3.5845277150221184,0.1362876381235417
9.444976,3.605060579165485,0.1357330651105039
9.44736,3.62680414812235,0.1351362375273227
9.449752,3.646825155586518,0.1345618250105501
9.45214,3.6681966374910457,0.1339342381853281
9.454536,3.6934325512615462,0.133201781182096
9.456928,3.720670565778465,0.1324104789660607
9.459312,3.753403025855436,0.1314285279617333
9.461692,3.781060349252935,0.1306128708050999
9.464088,3.808577903023573,0.1298292723846693
9.466476,3.838377096794348,0.1289714931131468
9.468872,3.8647311675797305,0.1281740283440972
9.471268,3.891784086499415,0.1273134684694952
9.473652,3.916927452471298,0.1265813490226357
9.476032,3.945004084749376,0.1257817250276899
9.478436,3.9717302425870966,0.1250607582757892
9.480824,4.002879910798232,0.1242158873341694
9.483204,4.030025377516532,0.1234929387954306
9.485608,4.054889204234695,0.1228519403730889
9.487996,4.075888599086885,0.1222998407845317
9.490376,4.094513806140321,0.1217597807197679
9.49278,4.112627156514559,0.1211976344517603
9.495164,4.12873840614238,0.1206866589397915
9.497544,4.147782922076397,0.1201111017097698
9.49994,4.165476963570055,0.1195981272426764
9.502328,4.183962400996631,0.1190874317304613
9.504704,4.205660643983121,0.1185038435654951
9.507108,4.225356786223196,0.1179756504904851
9.509496,4.249196899582964,0.1173565176716914
9.511876,4.272245617009814,0.1167497234122532
9.514284,4.294363168876885,0.1161671958802913
9.516668,4.31447861999754,0.1156189182236457
9.519048,4.335385467051112,0.1150755036219301
9.521456,4.356851392612126,0.1144893379404705
9.52384,4.375384051866945,0.1139606063444467
9.52622,4.391123214442429,0.1134764570404324
9.528624,4.399505600338302,0.1131626851067153
9.531012,4.403883784741343,0.1129268707284419
9.533392,4.408541508398104,0.1126684145956792
9.600292,4.467057585605801,0.1125019109474596
9.60268,4.480651086092269,0.1124539650472354
9.60506,4.49359296027268,0.1123959125819855
9.607456,4.505743438520171,0.1123392998804053
9.609844,4.522317427141078,0.1121741188302189
9.612224,4.5325130264703954,0.1120941480969666
9.61462,4.54471072654613,0.1119785390474519
9.617008,4.558119131435364,0.1118274324567615
9.619388,4.569525435578182,0.1117164137832628
9.621784,4.586426185281052,0.1114777178031821
9.624172,4.603326934983922,0.1112436995782749
9.626568,4.618505123194096,0.1110259610265642
9.628964,4.630238188418876,0.110837531760384
9.631352,4.640528231404682,0.1106414633277546
9.633736,4.652168748830845,0.1104002961530545
9.636132,4.673447682936756,0.1099626888320998
9.638516,4.698730818535499,0.1094639007862007
9.640896,4.72792560782846,0.1088537973004563
9.643296,4.756608540442223,0.108228714595233
9.64568,4.785990321190288,0.1075586940075479
9.648064,4.811647439699239,0.1069393035853163
9.650468,4.833859435222797,0.1063470875985229
9.652852,4.857282135559854,0.1057231088437282
9.655236,4.884848807016603,0.1050303360910651
9.65764,4.906688715487824,0.1044155123211086
9.660024,4.9316016598921,0.1037524673566631
9.662404,4.952789942057263,0.1031337888568864
9.6648,4.974117993849285,0.1025069668717831
9.667188,4.992652548961973,0.1019116530254703
9.669568,5.003318470715854,0.1014298398634838
9.671968,5.010259730230621,0.1009908952885101
9.674352,5.0174805289991085,0.1005331305348633
9.676732,5.02283899664804,0.1000928954093071
9.679132,5.031410269856886,0.0995936630081015
9.681516,5.040121312692594,0.0990854312124386
9.6839,5.037471377355858,0.0987722447838626
9.686296,5.029234448660452,0.0985196538093342
9.688684,5.016993318472212,0.0983249603860821
9.69108,5.003261944216753,0.0981782611895831
9.693476,4.986317764401377,0.0980882899523145
9.695864,4.968582188653085,0.0979977495161373
9.748412,4.580890729321828,0.0979190802773259
9.750808,4.582101434135328,0.0978885857601986
9.753192,4.583963765254884,0.0978688296198261
9.755588,4.590342154546471,0.0978098073764613
9.757992,4.5973721701441175,0.0977619652901294
9.76038,4.605053812047822,0.0977245018460219
9.76276,4.6155289506308605,0.0976571171774805
9.765164,4.6267954851468165,0.0975927205195211
9.767552,4.640995285968969,0.0974917391286718
9.769932,4.657057417910678,0.0973718257987318
9.772328,4.679265621718496,0.0971592635532555
9.774716,4.70561779664601,0.0968822251729546
9.777096,4.730759266760024,0.0966383082876791
9.779492,4.761255412807231,0.0963015434684404
9.78188,4.792682724414217,0.0959544467053535
9.78426,4.831746351954533,0.095471136326978
9.786656,4.868947648375292,0.09501562931995
9.789044,4.90656825367663,0.0945381997483846
9.791424,4.9404641967388585,0.0940937887043831
9.793828,4.975570844614584,0.0936259576894881
9.796216,5.011096801370889,0.0931333527149787
9.798596,5.045831362194276,0.09264504308545
9.801,5.081636858204302,0.0921442759954468
9.803388,5.113717691975214,0.0916766032622734
9.805768,5.145146899440069,0.0912012720363407
9.808164,5.178857746905061,0.0906852741357701
9.810552,5.212848133623774,0.0901552328920681
9.812932,5.24511595884979,0.0896399437993834
9.815336,5.273519352209833,0.0891696054109776
9.817724,5.302202284823597,0.0886849503462974
9.820104,5.321945648891914,0.0883066178361863
9.8225,5.338755746654035,0.0879634699414504
9.824888,5.355845383669879,0.0876050024241954
9.827268,5.370001754379525,0.0872811205516264
9.829664,5.387231161022228,0.0869216902501945
9.832052,5.398314495798821,0.0866431563946487
9.834432,5.407535499455856,0.0863790347197485
9.836828,5.415173711247055,0.0861133377535312
9.839216,5.42737520303853,0.0857711685129844
9.841596,5.437854133337306,0.0854356221622245
9.843992,5.446470732516527,0.0851137522746954
9.846376,5.452433604643273,0.0848023194345578
9.848772,5.455742749717544,0.0845022461568597
9.851176,5.465058197031066,0.0841415780082874
9.85356,5.476096205837284,0.0837792754987017
9.855944,5.487413753897222,0.083404881921558
9.85834,5.498591532330302,0.0830410020820066
9.860724,5.506696274830323,0.082710765764647
9.863104,5.517594514009681,0.082364345535331
9.8655,5.525419717255984,0.0820513627350073
9.867888,5.539390992368398,0.081670115014919
9.870268,5.55415366341373,0.0812924644227316
9.872664,5.566914233712644,0.0809353147946151
9.875052,5.577393164011421,0.0806130770635724
9.877448,5.587872094310199,0.0802956187454377
9.87984,5.599002650915034,0.0799882935611056
9.882228,5.60878273307951,0.0797094630883045
9.884608,5.617863967109685,0.0794721454038833
9.887012,5.628248453751975,0.0792604502954892
9.8894,5.638493170767406,0.0790574070678899
9.89178,5.652322780395089,0.0788430180334797
9.894176,5.669597513008165,0.0786244249303966
9.896564,5.685661540807744,0.0784261546486165
9.898944,5.696790201554709,0.0782717827647488
9.90134,5.7039146608088425,0.0781536666156394
9.903728,5.707546775249339,0.0780909640033013
9.906108,5.713460529689972,0.0779957578800247
9.908512,5.722167780809941,0.0778856634783781
9.910896,5.729152470437213,0.0777783081502146
9.913276,5.739210195997541,0.0776408250415472
9.915672,5.746055115997953,0.0775419037151536
9.91806,5.753319344878944,0.0774203981550843
9.920456,5.761514739319716,0.0772942242849383
9.922852,5.774785270439957,0.0771219018986842
9.92524,5.783399973761309,0.0769737195239245
9.92762,5.792433985963242,0.0768024505400451
9.93002,5.805611969284867,0.0765899091180199
9.932408,5.818417865554155,0.0763509145306143
9.934788,5.824705602904997,0.0761443346182512
9.937188,5.830853570628976,0.0759456107240288
9.939572,5.8351392072334,0.0757573826018103
9.941956,5.837981821598849,0.0755558946634636
9.944352,5.845759803016907,0.0753182805791215
9.946736,5.854329180367885,0.0750837135707022
9.949116,5.868253233652055,0.074790893718856
9.951516,5.882456826189945,0.0744816977638338
9.953904,5.891585282048364,0.0742181197703138
9.956284,5.900201881227585,0.073937012565559
9.95868,5.907607775593307,0.0736750130602971
9.961068,5.915013669959029,0.0734145681476145
9.963464,5.926703305071305,0.0731098170193796
9.96586,5.935180134623665,0.0728394849386974
9.968248,5.946869769735939,0.0725375815238651
9.970628,5.955905677795742,0.0722422533253809
9.973024,5.966664147348239,0.0719463567790378
9.975412,5.98128704876671,0.0716316808791624
9.977792,5.995770180558321,0.0713273031553922
9.980188,6.012627500148685,0.0710354259609664
9.982576,6.038284618657637,0.0706939717051284
9.984956,6.065292211606948,0.0703293394844272
9.987352,6.093650278996616,0.0699440370852964
9.98974,6.121868576759426,0.0695679372603315
9.992124,6.145291277096481,0.0692169481757358
9.994528,6.168202120754341,0.0688482337657108
9.996912,6.18389595735945,0.0685374135644747
9.999296,6.19851885877792,0.0682354721784984
10.001692,6.215655717622007,0.0679377795930767
10.00408,6.230510936465955,0.0676675573266351
10.00646,6.245645694563624,0.0673824966632775
10.008856,6.257707416728237,0.0671211271263499
10.011244,6.264694002213378,0.0668978904624624
10.013628,6.273031062138879,0.0666493933498783
10.016024,6.275222050198268,0.0664480583023658
10.018412,6.27499162863066,0.0662808508439858
10.020808,6.277694473369247,0.0660986333785119
10.023204,6.2725286847490285,0.0659610259246148
10.025596,6.263778003516555,0.065827609534159
10.027976,6.252513364858467,0.0656884798217031
10.030376,6.234451028028211,0.0655824917575656
10.03276,6.214107051197817,0.065502310204641
10.035144,6.18947933362087,0.0654597655598001
10.03754,6.1645720767902015,0.0654306643725784
10.039928,6.144600187012146,0.0653737092302872
10.042308,6.124348757980369,0.0653298445987943
10.044704,6.11238527118798,0.065223536274195
10.047092,6.105636690701924,0.0650770456934624
10.049472,6.0995869583501685,0.0648963233948278
10.051868,6.098752132304744,0.0646765822295269
10.054256,6.101781738125295,0.0644417679148249
10.056636,6.109886480625319,0.0641759224577338
10.059032,6.121855654991315,0.0638948570753473
10.06142,6.1344764556633695,0.0636255487258514
10.063804,6.151101457828258,0.0633333910419556
10.0662,6.170939265553063,0.0630139330313757
10.068588,6.185190079919195,0.0627084266760868
10.070984,6.201303225404885,0.0623955474263467
10.073376,6.218207766823492,0.062086596160082
10.075764,6.234832768988381,0.0617909754456302
10.078144,6.245311699287159,0.0615325167647947
10.080548,6.26021413995935,0.0612324204514104
10.082936,6.277118681377959,0.060920279608115
10.085316,6.29351136611737,0.0605895058799519
10.087712,6.306179388617667,0.0602695216030901
10.0901,6.322991382237658,0.0599230511119722
10.092484,6.337661505484373,0.0595994442267904
10.09488,6.353262794290866,0.0592795792039651
10.097268,6.363788946417886,0.0589880020399828
10.099648,6.369379731492295,0.0587193988043078
10.102044,6.370174919140951,0.0584661956227386
10.104432,6.368316379737133,0.0582122772361672
10.106812,6.362593408467342,0.0579707753850572
10.109208,6.3579413723841895,0.0577215990066347
10.111596,6.351427005181479,0.0574751358288386
10.11398,6.346402882045989,0.0572021595787847
10.116376,6.34631412596311,0.0569097585464352
10.118764,6.350509110626785,0.056586815473413
10.12116,6.358708296783294,0.0562477468409263
10.123556,6.370399827753439,0.0558743078368156
10.125944,6.392241632082529,0.0554489900348191
10.128324,6.407937364545508,0.0550577954585353
10.130724,6.422981470702429,0.0546549883516781
10.133108,6.439748138352048,0.0542579548742288
10.135492,6.456235266747944,0.0538737268202029
10.137888,6.468438654397286,0.0535209596082849
10.140276,6.475566905367158,0.0531918073841024
10.14266,6.47468675335136,0.0528952877412662
10.145056,6.478602198761315,0.0525873775744451
10.147444,6.485171371223744,0.0522835772525898
10.149828,6.494394270738649,0.0519840379690911
10.152224,6.502126926186334,0.0517112299983316
10.154612,6.512001452007298,0.0514239205010418
10.156992,6.520944812268483,0.051138293512804
10.1594,6.531610734022363,0.0508584033533048
10.161784,6.5394359372686655,0.0506261106851632
10.164164,6.545910666074609,0.0504150515103117
10.16656,6.550243524507277,0.0502187508338602
10.168948,6.549641015887331,0.0500375649605572
10.171328,6.546617097640389,0.049882831501976
10.173732,6.53916966902003,0.0497609456521227
10.17612,6.534375967452148,0.0496439456627557
10.178504,6.528231791443906,0.0495455279547992
10.1809,6.522087615435663,0.0494472338400385
10.183288,6.514732734613924,0.049361331481855
10.185672,6.505515522672627,0.049275388263863
10.188068,6.499231577037525,0.0491820149987922
10.190456,6.496672293641536,0.0490872392053818
10.19284,6.495044175805326,0.0489926720397543
