Time,Force,Position
8.82834,2.0247974608802397,0.1834517542627754
8.830748,2.104904066412856,0.1820016737011225
8.833131999999999,2.175236277354605,0.1809713997248431
8.835512000000001,2.2413338652359114,0.1797025064080721
8.837916,2.305895883079625,0.17848227115511
8.8403,2.369201870139466,0.1772834412170469
8.842680000000001,2.4260841419373453,0.1762476434219974
8.84508,2.4698394439575804,0.1755419578498712
8.847463999999999,2.5072654743723395,0.1747121263660579
8.849847999999998,2.5351022057934647,0.1741667653827119
8.852248,2.564755942363772,0.1733521519854249
8.854636,2.595015979269764,0.1723659827661458
8.857015999999998,2.6214134801676514,0.1713134925045148
8.859411999999999,2.642877509870796,0.1702277643689959
8.861799999999999,2.6555889624835984,0.1694915750802977
8.864196,2.659313624722712,0.1693308638787548
8.866592,2.674257599649539,0.168873046959129
8.86898,2.6999562524131244,0.167972959773004
8.87136,2.733710529990621,0.1665432723755321
8.873764000000001,2.7601099267463782,0.1652411848989156
8.876152000000001,2.77719766790435,0.1643515190848728
8.878532,2.7938188783535005,0.1636418866957923
8.880928,2.8091349403326644,0.1632261865272958
8.883316,2.826173563804526,0.1627594916117178
8.8857,2.8398142861192373,0.1623190811321153
8.888096,2.845121740224186,0.1621273081130261
8.89048,2.851779668769495,0.1618353775849034
8.892864,2.862766664031732,0.1614822831353546
8.923936000000001,2.921042840382474,0.1613176933182558
8.926324000000001,2.924440741539624,0.1613135361221739
8.928704,2.930167504525154,0.1610793535995619
8.931107999999998,2.934031936391128,0.1609187817943407
8.933492000000001,2.937988916055718,0.1608385979323763
8.935876,2.9491156809448147,0.1605169092537089
8.938272000000001,2.957448949154577,0.1602987365788123
8.940656,2.969042244752498,0.1598297262169679
8.94304,2.975979712551527,0.1595322761445957
8.945436,2.97956460516378,0.1594109734399619
8.947824,2.9913902181871777,0.158996024776352
8.950204,3.007731889382607,0.1584325990975505
8.952604000000001,3.0206284375926438,0.1579755692843827
8.954988,3.028217531697729,0.1576899411239826
8.957372,3.039671057668789,0.1572645316983864
8.959768,3.054150397744662,0.1568061425372909
8.962156,3.068722285619152,0.1564206494435209
8.964535999999999,3.085016734986337,0.1559955467683605
8.966932,3.106805629913576,0.1553126333942507
8.96932,3.130084768908034,0.1545464702464957
8.971699999999998,3.1557380957012464,0.153765107820432
8.9741,3.183625840666353,0.1529608564579881
8.976488,3.209371715258183,0.1522547230505263
8.97888,3.2360487554097905,0.1515231414403278
8.981276000000001,3.2622139388822005,0.1507694983444614
8.983664000000001,3.2865167912350546,0.150100073706464
8.986044,3.316546406573438,0.149252392781958
8.988447999999998,3.346808339337298,0.1485007758757043
8.990835999999998,3.3810744735939924,0.1476035217122628
8.993212,3.42083505341074,0.1464669170827105
8.995615999999998,3.4551484094956773,0.1455042069704707
8.998003999999998,3.486248960020699,0.1446822724571368
9.00038,3.520143007225056,0.1437896579042968
9.002787999999999,3.559112191108885,0.1427369326531816
9.005171999999998,3.593844856074403,0.1417940908003316
9.007552,3.628065664360725,0.1408527179401143
9.009956,3.661634846340987,0.1398937495258113
9.012339999999998,3.696135193881029,0.1389341393696219
9.01472,3.726491570301376,0.1381336028375978
9.017124,3.754706076348446,0.1374237499802514
9.019512,3.778264754596624,0.1368349040967083
9.021892,3.8018234328448015,0.1362495668467092
9.024288,3.830037938891872,0.1355618328384035
9.026675999999998,3.857972905685222,0.134906411067562
9.029056,3.885768102851712,0.1342638470612691
9.031451999999998,3.91463423520484,0.1336027193632211
9.03384,3.940287561998052,0.1330604178945114
9.03622,3.9570013202458174,0.1327566484484378
9.038616,3.975856948866862,0.1323960118392992
9.041004,3.990987915248792,0.1321212084435657
9.072064,4.031673973051711,0.131877461520739
9.074459999999998,4.029347007081199,0.1318237828953793
9.079228,4.018222138049971,0.1317770048423364
9.081632,4.0104951701758935,0.1317507339452761
9.0864,3.9972303266292593,0.1315659733972471
9.088804,3.988200106143066,0.1315270093967138
9.091192,3.9780989504702338,0.1315209462898475
9.093571999999998,3.9681375644242616,0.1315008427306529
9.095968,3.9643222502444,0.1313140827858732
9.098356,3.9634402023707342,0.1310554511015835
9.100736,3.958833492257956,0.1308734371400748
9.103136,3.962514724384565,0.1304550742325134
9.10552,3.9569768487120074,0.1302918443584047
9.107904,3.955582944159144,0.130010473433023
9.1103,3.958053471472253,0.1296404594180537
9.112688,3.963177725837837,0.1292225952588372
9.115068,3.965089174643506,0.1289043094879078
9.117472,3.9680715586358137,0.1285552025246678
9.119856,3.961974604455815,0.1284429902140905
9.124636,3.943075545722267,0.1284378861995433
9.127019999999998,3.939213009714162,0.128319761925559
9.129404,3.931206502586364,0.1283185705305727
9.131804,3.926924657697679,0.1282396473197265
9.165252,3.86608540623521,0.1281117930824066
9.167648,3.866924023996371,0.1280316312814909
9.170036,3.870695908063728,0.127880570438956
9.172415999999998,3.876469892877501,0.1276802117058183
9.174812,3.880893403250915,0.1275388871046464
9.1772,3.889321115117164,0.1272966688339977
9.17958,3.889088797691686,0.1272490883595866
9.181984,3.890998350639486,0.1271387278395918
9.184372,3.895049773960563,0.1269669146553781
9.186751999999998,3.904036564334252,0.12668015293239
9.189148,3.9138147506408583,0.1263899373649643
9.191536,3.925734807320743,0.1260352682399779
9.193915999999998,3.9362118417616503,0.1256780966922986
9.19632,3.946968415456279,0.1252976314826959
9.198704,3.959866859524185,0.1248554949468271
9.201088,3.971834138032312,0.1244408632757104
9.203488,3.9898077187796894,0.1238830392279723
9.205876,4.013368292885737,0.12321518609334
9.20826,4.030503255871954,0.1227302644051697
9.210656,4.043634017365337,0.1223340981225049
9.213044,4.055973382925801,0.1219448789682699
9.215428,4.066170878112989,0.1216195476804755
9.217824,4.076088834046456,0.1213221905306539
9.220212,4.0818628188602295,0.1211331704086649
9.222596,4.087124946994805,0.1209222644118506
9.224992,4.086241003263271,0.120867376421271
9.22738,4.094668715129518,0.120635896454928
9.229764,4.101745952555407,0.1204637605435772
9.23216,4.104539449234742,0.1204118642476307
9.234552,4.106122241100579,0.1204033066677736
9.236932,4.107844802593275,0.1203824885766902
9.239328,4.113431795951945,0.1202849694671774
9.241716,4.12046181154959,0.1201921417971138
9.244096,4.127352057520375,0.1201127562333458
9.251259999999998,4.143971372111656,0.1200376249922347
9.253656,4.1480681214031065,0.12001017481693
9.256044,4.158590481814389,0.1198226298541669
9.258423999999998,4.181265216331033,0.1193820501369907
9.26082,4.203660411593956,0.1189648039300198
9.263208,4.229408182043653,0.1184642655942537
9.265591999999998,4.254364556560434,0.1179677029122328
9.267992,4.281183262196771,0.1174364072409415
9.27038,4.3138685004455,0.1168076523572978
9.272764,4.351489105746839,0.1160728358574109
9.27516,4.3856645880627845,0.115391272879824
9.277548,4.420771235938511,0.1147031927876311
9.279927999999998,4.455877883814235,0.1140002372649522
9.282324,4.489401739824125,0.1133103880977615
9.284712,4.521854660647375,0.112649643211258
9.287095999999998,4.546159408858098,0.1121573063032104
9.289492,4.570743696322541,0.1116459684186666
9.29188,4.593465652667426,0.1111624248255805
9.29426,4.6113920115865605,0.1107602818424728
9.29666,4.632670945692471,0.1102699609791582
9.299044,4.650597304611607,0.1098689722764837
9.301424,4.667173189090382,0.109520687327093
9.303819999999998,4.6805362680092415,0.109250281167932
9.306207999999998,4.683749073569157,0.1091795957149377
9.308588,4.68896397987549,0.1090731608271782
9.311004,4.689895145435267,0.1090606464735393
9.313388,4.692037015808544,0.1090144782818759
9.32534,4.698275635473272,0.1089494253917472
9.327728,4.704281937712523,0.1088501049820898
9.330108,4.708937765511415,0.1087927532686129
9.332512,4.713453823683446,0.1087455157752627
9.334896,4.724255723348449,0.1085766459303673
9.337276,4.73598878857323,0.1083986418452955
9.339672,4.749863724171288,0.1081780262668184
9.342056,4.76788263088904,0.1078815665225936
9.344435999999998,4.785621998353071,0.1076083080024299
9.346851999999998,4.8045720706306,0.107302446453095
9.349236,4.824453308467909,0.1069884568648505
9.351616,4.846476416678494,0.1066353065572381
9.354012,4.86849952488908,0.1062762806908339
9.3564,4.88186260380794,0.1060344776742209
9.35878,4.897367553100076,0.1057490839590372
9.361183999999998,4.910590862392076,0.1055178943532278
9.363572,4.917296012765627,0.1053688277907043
9.365952,4.928145134258873,0.1051423546733991
9.368356,4.93913402537898,0.1049093969455852
9.37074,4.94881966388697,0.1046602889392312
9.37312,4.954501100902125,0.1044744871963788
9.375516,4.95417623567803,0.1043860389072503
9.3779,4.957064176013851,0.1042350670866891
9.38028,4.961302590790032,0.1040437768470092
9.401784,4.889659543804691,0.1039669900526039
9.404188,4.888310965222202,0.103840818875313
9.406576,4.886031221079934,0.1037253144366992
9.408956,4.886033116937804,0.103559382307566
9.411359999999998,4.886174782422533,0.1033823999936797
9.413747999999998,4.881660620108371,0.1032574380307551
9.416128,4.874352961114873,0.1031637654247344
9.418523999999998,4.862761561374822,0.103152152813017
9.420912,4.854382967194685,0.1030787170538108
9.423292,4.851219279320882,0.1029117754808117
9.425688,4.846193260327523,0.1027660174837328
9.428076,4.839165140587745,0.1026506403902677
9.430456,4.828272588981996,0.1025858405799715
9.432852,4.821663778122799,0.102439592990965
9.43524,4.822271974316354,0.102172662405675
9.43762,4.820878069763489,0.1019351958594798
9.440016,4.821486265957042,0.1016663365054968
9.442404,4.8191611958444005,0.1014387823894355
9.444784,4.820840327224592,0.1011482002459997
9.44718,4.822938767485366,0.1008249182781233
9.449568,4.82452535106694,0.1004830846417877
9.451947999999998,4.820897028342182,0.1002360074733512
9.454348,4.817408475244284,0.0999790472245266
9.456732,4.813268295840329,0.0997125680279683
9.459112,4.811642073861989,0.0994362795497289
9.461528,4.818536111548512,0.0990645343105597
9.463916,4.825150609981316,0.0987112449483607
9.466296,4.837771410653371,0.0982687795384383
9.468692,4.849321276138786,0.0978459262894962
9.47108,4.855516465691009,0.0975221640332151
9.473475999999998,4.860780489683454,0.0972080331106082
9.475872,4.869117549608954,0.0968476671808601
9.478255999999998,4.881179271773568,0.0964504266029137
9.48064,4.896825886550434,0.096032022156387
9.483035999999998,4.902601767222077,0.0957441593459648
9.48542,4.912521619013413,0.0953921974550072
9.487804,4.924443571551166,0.0950155439506042
9.490199999999998,4.938227855208476,0.0946219559506508
9.492588,4.948007937372953,0.0942794155350656
9.494968,4.961372912149683,0.0939118997875531
9.497372,4.9729681036054725,0.0936108766590762
9.499756,4.9827009639417055,0.093328096658507
9.50214,4.992433824277939,0.0930463962723426
9.504535999999998,5.00146783647987,0.0928134305552193
9.50692,5.006777186442689,0.092614129832958
9.5093,5.0054286078602,0.0924860780084011
9.511708,5.006082130024127,0.0923314535600499
9.514091999999998,5.003802385881859,0.092212088531746
9.516472,5.004316138418926,0.0920678147501569
9.518868,5.010044797262326,0.0918446941822273
9.521256,5.016425082411782,0.0916320173068694
9.523651999999998,5.017730230881766,0.0914890195480352
9.526048,5.015170947485778,0.0913884508001764
9.528432,5.009026771477536,0.0913110507400416
9.530812,5.011682394387881,0.09113346789948
9.533212,5.009123110991892,0.0910329905653561
9.535595999999998,5.005632662036126,0.0909406758238694
9.53798,5.000279881960803,0.0908638140468326
9.540384,5.005217144871283,0.0906461135413031
9.542772,5.010294177408625,0.0904216197293425
9.545151999999998,5.018863554759603,0.0901300491036017
9.547548,5.030226428789916,0.0898175027893926
9.549936,5.04051836763359,0.0895214925166409
9.552316,5.048016809797929,0.089245229510032
9.55472,5.062592489388156,0.0888825299784295
9.557104,5.081172370471218,0.0884738647122199
9.559487999999998,5.09896085562136,0.0880656981875891
9.561884,5.119682607077699,0.0876292895693784
9.564272,5.137331322600982,0.0872333629433738
9.566652,5.148833966258156,0.0869166498785845
9.569048,5.1624784802886055,0.0865701234432974
9.571436,5.181058361371669,0.0861706392883208
9.573816,5.19977801208159,0.0857586496119006
9.576211999999998,5.215936483537655,0.0854045724406401
9.578599999999998,5.226088652754468,0.085122203974427
9.580984,5.242526663464253,0.08475414710552
9.583379999999998,5.257893738987399,0.0844039385170733
9.585767999999998,5.274983376003241,0.0840493677886651
9.588164,5.285787171526113,0.0837859705454479
9.59056,5.294728635929428,0.0835376304978793
9.592948,5.301667999586326,0.0833127213187052
9.595332,5.304882701004111,0.0831131658166906
9.597728,5.311030668728091,0.0828871323649444
9.600116,5.322253773131543,0.0826038386572874
9.602496,5.330264071975079,0.0823686148437292
9.604892,5.3369238963782575,0.0821668083587484
9.60728,5.345306282274131,0.0819631650373775
9.609664,5.349684466677172,0.0817998151826817
9.61206,5.355552895147431,0.0815968335765942
9.614448,5.365565294737385,0.0813446310112681
9.616827999999998,5.373575593580922,0.081113993919277
9.619236,5.379304252424323,0.0809209416301336
9.62162,5.392901544626529,0.0806613213185554
9.624,5.412784678321707,0.0803290054250923
9.626404,5.436532243882858,0.07996696431604
9.628792,5.4537144286973165,0.0796959227117555
9.631176,5.470756843884916,0.0794334779546128
9.633572,5.487287402393318,0.0791532287048997
9.63596,5.50367819127486,0.0788815341627385
9.63834,5.52100014571618,0.0786064625391437
9.640736,5.538042560903779,0.0783484377661236
9.643124,5.556807537584076,0.0780872876483696
9.645504,5.56956621202512,0.0778814758955417
9.647908,5.579391620159971,0.07770059969953
9.650296,5.589217028294819,0.0775209000267952
9.652672,5.595178004563695,0.0773690334665098
9.655076,5.598345484153237,0.0772330327780059
9.657464,5.607659035608888,0.077035273199684
9.659844,5.619486544490156,0.0768409335038315
9.662247999999998,5.630382887811645,0.076652730991431
9.664635999999998,5.638206195200078,0.0764941099060817
9.667016,5.648450912215508,0.0762946171760908
9.669412,5.650826995872133,0.0761590969630307
9.6718,5.647196777289506,0.0760756269614078
9.67418,5.641704227587322,0.0760013824246157
9.676576,5.644779159378247,0.0758284736516562
9.67896,5.64920456560953,0.075628194316991
9.68134,5.654141828520013,0.0754476610410345
9.683744,5.661220961803771,0.0752438238836505
9.686132,5.664947519900753,0.0750837502507637
9.688512,5.671607344303931,0.0749040570448882
9.690916,5.676544607214413,0.0747246280110811
9.693304,5.688279568297062,0.0744991453963
9.695684,5.704018730872546,0.0742429835159093
9.698087999999998,5.716684857514973,0.0740145613128663
9.700472,5.733634724903955,0.0737375328989047
9.702852,5.750305053039217,0.0734749642027746
9.705248,5.760549770054648,0.0732860288119678
9.707632,5.766138659271188,0.073118694950859
9.710016,5.772518944420645,0.0729556239071121
9.712412,5.782903431062936,0.0727598629485332
9.714796,5.792077212891729,0.0725854523155684
9.717175999999998,5.8009714554668,0.0724251392744405
9.71958,5.814009669161565,0.0722258345676595
9.721968,5.825185551736775,0.07203428068986
9.724348,5.830075592819013,0.0719073030171724
9.726752,5.832683993901115,0.0718114059514941
9.72914,5.833709603117379,0.0717080397006799
9.731516,5.8338040467738645,0.0716091211573358
9.73392,5.838322000803765,0.0714571573123571
9.736308,5.841117393340968,0.0713063810736521
9.738688,5.849779318490564,0.0711197537701019
9.741084,5.856858451774322,0.0709272817759692
9.743472,5.8627268802445816,0.070755177008662
9.745856,5.873949984648032,0.07053018869912
9.748256,5.885824715357543,0.0703184755120137
9.750644,5.90119179088069,0.0700616361724513
9.753024,5.918049110471055,0.0697708315044219
9.75542,5.936908530807838,0.0694658842342446
9.757808,5.9560474903983405,0.0691487101274799
9.760188,5.975186449988843,0.0688333256072772
9.762591999999998,5.987667481034039,0.0685449779618469
9.764976,6.006434353572202,0.0682030766992378
9.767356,6.021057254990675,0.0678963312617643
9.769759999999998,6.03861342271534,0.0675732699401649
9.772148,6.056169590440006,0.0672490232237177
9.774528,6.074936462978171,0.0669070701247822
9.776924,6.093423796262615,0.0665791111456029
9.779312,6.109117632867726,0.0662608911388882
9.781692,6.1220179727935005,0.0659537066821562
9.784088,6.13212481603994,0.0656556293371766
9.786472,6.136365126673989,0.0653908342998958
9.788856,6.1395345021214,0.0651369989214364
9.791252,6.139118984956558,0.0648871601558335
9.79364,6.135630431858661,0.0646609404716364
9.796036,6.129488151708289,0.0644357106928972
9.798431999999998,6.122135166744418,0.0642279303654329
9.800819999999998,6.116644512900104,0.0640151156004348
9.8032,6.111014089428929,0.0638092981204461
9.805604,6.1020310907709785,0.0636385189014098
9.807992,6.095329732113165,0.0634427433223948
9.810372,6.097428172373938,0.0632043221496373
9.812767999999998,6.094591245582096,0.0629924620716487
9.815155999999998,6.093756419536675,0.0627685887134846
9.817536,6.093852759051031,0.0625437279150156
9.819931999999998,6.096510277819244,0.0622803472805119
9.82232,6.099167796587458,0.0620173226296615
9.8247,6.103967185728948,0.061736601360672
9.827104,6.1103493667362745,0.0614649972931753
9.829491999999998,6.116312238863021,0.0612137083565705
9.831872,6.123066506922685,0.0609665433032434
9.834267999999998,6.134895911661821,0.0606899500946404
9.836656,6.145654381214318,0.06042233430104
9.839036,6.158135412259513,0.0601575314712097
9.841432,6.171687378491345,0.0598854155719679
9.84382,6.1881726110293735,0.0596025753582205
9.8462,6.202655742820984,0.0593308610079806
9.8486,6.216207709052816,0.0590621834842821
9.850984,6.232041315284786,0.0587716925063036
9.853368,6.25215866226331,0.0584479119806449
9.855771999999998,6.267200872562361,0.0581543337927166
9.858159999999998,6.282243082861413,0.0578649301082706
9.86054,6.298076689093383,0.0575809986640982
9.862936,6.315121000138851,0.0572836655465454
9.865324,6.331373915251403,0.0569836719808285
9.867704,6.345996816669874,0.0567196972833502
9.8701,6.359548782901706,0.0564638104553609
9.872488,6.374171684320178,0.0562023285090344
9.874883999999998,6.390145060179006,0.0559210417463305
9.87728,6.409331241597753,0.0556178343117061
9.879663999999998,6.430659293389777,0.0553004027370079
9.882048,6.447703604435246,0.0550153153294576
9.884443999999998,6.46782095141377,0.0547156004548239
9.886831999999998,6.49115110395221,0.0543963822865955
9.889212,6.512339386117373,0.054093068482677
9.891607999999998,6.529523466789701,0.0538072111492094
