Time,Force,Position
11.292532,3.624786444933749,0.176053984802973
11.294911999999998,3.632515308665696,0.175784600073093
11.297308,3.638893697957284,0.1755920040749191
11.299696,3.6590053573622,0.1751122607825669
11.302076,3.693129826134165,0.1742979498604891
11.30448,3.734563849757497,0.1732492799043018
11.306864,3.766873209238149,0.1724337745349399
11.309244,3.800208177935065,0.1714710912257539
11.31164,3.830749649952646,0.1706076694170093
11.314028,3.862127843873519,0.16987925829433
11.316408,3.9056111900715114,0.1687635663759484
11.318808,3.955567369217576,0.1673072679463516
11.321191999999998,4.000450307542039,0.1658797930803857
11.323576,4.032204380230989,0.1648012485564028
11.325971999999998,4.056601676240328,0.164024871433617
11.328356,4.090635493071546,0.1630952167188373
11.330752,4.13006931180633,0.162079823415998
11.333152,4.174485719421968,0.1608406943661844
11.33554,4.215643995507318,0.1596292859578401
11.337924,4.245768054502188,0.1587399117618252
11.340328,4.27361047349692,0.1579354055738565
11.342712,4.300846592155969,0.1572465590009284
11.345092,4.33138806417355,0.1565051435448353
11.347488,4.3565295342875645,0.1558441093094338
11.349876,4.372034483579701,0.1553329926309149
11.352256,4.381720122087691,0.1549299044892594
11.354652,4.39806368914099,0.1543491634047913
11.35704,4.41100745917927,0.1539694699172575
11.385708,4.412357933619629,0.153873454962613
11.388088000000002,4.414127716940569,0.1537780842655562
11.390484,4.420880089142364,0.1534875738532799
11.392872,4.427632461344158,0.1532019569799551
11.395252,4.435268777277488,0.1529590237898378
11.397652,4.450726504741381,0.1525769262269208
11.400035999999998,4.465764923324695,0.1522260528565639
11.402416,4.474797039668758,0.1520409041544979
11.404816,4.479964724146847,0.151949688401209
11.4072,4.487553818251934,0.1517696240196944
11.4096,4.497796639409495,0.1515354616226842
11.411996,4.509250165380555,0.1512551605515088
11.414384,4.518329503552862,0.1510033427559105
11.416764,4.531692582471721,0.1506157702249062
11.41916,4.543984726203943,0.1502652911833794
11.421548,4.563446655160671,0.1497684993626488
11.423927999999998,4.590078369341905,0.1491222996469376
11.426324,4.609493076470388,0.1486925010489048
11.428712,4.628907783598873,0.1482662487126664
11.431092,4.64673969886152,0.1478564352602465
11.433488,4.660427643004475,0.1475721697907754
11.435876,4.673556508639989,0.1473417002956839
11.438268,4.683332799088728,0.1472220308472004
11.440668,4.686870469872738,0.147216916204402
11.443056,4.692177923977687,0.1471224688440103
11.44544,4.69548327733622,0.1470801824649497
11.447836,4.7055863288669215,0.1468828171405762
11.450224,4.718762416330677,0.1466045110110631
11.452604,4.739574819727764,0.1461023969567413
11.455,4.757314187191795,0.1456860431657809
11.457388,4.780128691335299,0.1451518844424676
11.459772,4.806388318464195,0.1445762266027302
11.462168,4.837303773391984,0.1439203763349371
11.464556,4.866496666827076,0.1432945949799992
11.466936,4.892896063582833,0.1427183832744862
11.469336,4.915990106980055,0.1421870268521815
11.471724,4.935219718511306,0.1417390536805924
11.474104,4.958965388214588,0.1412124167598379
11.476504,4.98285082754473,0.140679254353973
11.478892,5.0116716339274845,0.1400456346169785
11.481276,5.039561274750461,0.1394255423978993
11.483672,5.065448814827019,0.1388539445539155
11.486056,5.092267520463356,0.1382671895805122
11.488435999999998,5.124114140950921,0.1376142113561246
11.490828,5.156752157371405,0.1369688746268661
11.493212000000002,5.187527842672333,0.1363600706731779
11.495608,5.213368160920648,0.1358652847759298
11.498,5.236275212862768,0.1354294151242652
11.500384,5.255038293685196,0.1350979734559645
11.502776,5.273801374507623,0.1347665317876638
11.505172,5.28683769234452,0.1345460611988719
11.507556,5.295357952009384,0.1343959473029709
11.509948,5.297871909434999,0.1343698763262086
11.512351999999998,5.3015965716741125,0.1343087749294485
11.514736,5.310815679473279,0.1341124888585491
11.517116,5.316170355406473,0.1339854121616485
11.519508,5.326088311339939,0.133738911664458
11.521892,5.33456324503443,0.1334942138684046
11.524288,5.3413156172362255,0.1332701389665381
11.52668,5.34234122645249,0.1331463462654349
11.529064,5.347930115669029,0.1329058703836203
11.531444,5.35300714820637,0.1326500554214104
11.533848,5.355430453691236,0.1324279038960897
11.536236,5.358180520258067,0.1321337473864373
11.538616,5.35334149271981,0.1319644484733399
11.541008,5.35213457962205,0.1316941907205764
11.543396,5.349764183539035,0.1314029894115135
11.545788,5.350466823389074,0.1310488887231509
11.548184,5.349167362492697,0.1307322400011738
11.550572,5.348147440850039,0.1303961000808097
11.552952,5.350060785513578,0.130008205823375
11.555356000000002,5.3510429646173385,0.1296327594116692
11.55774,5.356448654094513,0.1291514107818356
11.56012,5.3595727035715495,0.1287286057523778
11.562524000000002,5.358273242675172,0.1284130157570312
11.564908,5.366704746257159,0.1279307863666398
11.567288,5.367919242786397,0.1275940466273938
11.569692000000002,5.370064904875411,0.1272446596991948
11.57208,5.372210566964427,0.1268944720962237
11.57446,5.377289495359638,0.1264932623987725
11.576864,5.377944913381433,0.1261965933286677
11.579248000000002,5.383535698455841,0.1258167939414009
11.581628,5.393130685023084,0.1253660790934981
11.584032,5.399093557149831,0.1250122105754928
11.58642,5.410131565956048,0.1245600874027637
11.588796,5.415954668455933,0.1242144746394158
11.591192,5.425222893941212,0.1238369788942984
11.593576,5.433420184239853,0.1234834583572147
11.595956,5.442688409725132,0.1231052590894029
11.653308,5.230887109961881,0.1229464521298466
11.655703999999998,5.228932231043708,0.1229272484590689
11.658088,5.231912719178146,0.1228269933999824
11.660468,5.23768670399192,0.1226886240227383
11.662871999999998,5.244391854365472,0.1225389795230692
11.665256,5.253750731791498,0.1223623043901662
11.667636,5.261247278097969,0.1222102917353313
11.670032,5.271118012203192,0.1220501854606544
11.672416,5.282851077427972,0.1218643601331165
11.674812,5.304315107131117,0.121525983013462
11.677207999999998,5.329643568700235,0.1211253105664227
11.679595999999998,5.351898994336298,0.1207823580534935
11.681976,5.3696383618003285,0.1204936507111794
11.68438,5.393244261876751,0.120111531204102
11.686763999999998,5.424858564938839,0.1195871677410631
11.689144,5.460337299866902,0.1190018894432716
11.691548,5.492463459608189,0.1184989683331469
11.693931999999998,5.521796122670141,0.1180378586982733
11.696312,5.548847145731956,0.1176289526987644
11.698716,5.577620730286466,0.1172108038843228
11.7011,5.60439221409456,0.1168317248615103
11.70348,5.626088561223182,0.1165459960503246
11.705884,5.644851642045609,0.1163093598181272
11.708268,5.6661286802936495,0.11605900177474
11.710648,5.686754092235632,0.1158053264357459
11.713052,5.703654841938502,0.1155962510021042
11.715436,5.722557692387791,0.1153563608815387
11.717816,5.73973798134438,0.1151309482928654
11.72022,5.759991306234026,0.1148578870127938
11.722608,5.77558880332478,0.1146432953513665
11.724988000000002,5.794399105975451,0.1143753929185832
11.727388,5.81442011343962,0.1140789495248264
11.729772,5.83909694870268,0.1137316008297259
11.732152,5.862051222473043,0.1134016516288606
11.73456,5.885285035497127,0.1130619779518611
11.736944,5.91000909258843,0.1126853810653121
11.739328,5.938085724866509,0.112250303339014
11.74172,5.965231191584809,0.111823875834099
11.744103999999998,5.992795967183691,0.1113698039718623
11.74648,6.016775850170318,0.1109493432529568
11.748876,6.037822466850752,0.1105651178765052
11.751264,6.058869083531184,0.1101808925000535
11.753656,6.080195239465339,0.1097835536514789
11.75606,6.101009538720295,0.1093763361745737
11.758444,6.120752902788612,0.1089887653433219
11.760824,6.144360698722903,0.1085556824281814
11.76322,6.166897559470556,0.1081415571327926
11.765608,6.191716060218345,0.1076877126336548
11.767988,6.211459424286662,0.107305794322123
11.770383999999998,6.2302716227952,0.1069329254922794
11.772768,6.244008684624268,0.1066330883059742
11.775163999999998,6.258816681639972,0.1063176411887229
11.777568,6.268829081229927,0.1060559757757598
11.779952,6.279493107125938,0.1058032578042068
11.782331999999998,6.286013161902256,0.1056108334017891
11.784736,6.290251576678435,0.1054610976987748
11.787124,6.291556725148422,0.1053456783575769
11.789504,6.295003743991684,0.1051980505970318
11.791908,6.302175425074059,0.1050177420862472
11.794292,6.313071768395548,0.1048053254990324
11.796672,6.330393722836867,0.104499627788308
11.799076,6.3501370869051845,0.1041497594618623
11.80146,6.367738580600225,0.1038323943330368
11.803844,6.380684246496373,0.1035554926082988
11.80624,6.3945610779523,0.1032716254005081
11.808624,6.405644412728891,0.1030124989516352
11.811004,6.417007286759203,0.1027386745497268
11.8134,6.424086420042961,0.1025267295805178
11.815784,6.434378358886636,0.1022683452055123
11.818164,6.445601463290088,0.102001957367468
11.820568,6.457755733253319,0.1017271633273473
11.822952,6.471772334336106,0.1014398585940223
11.825332,6.48900174097881,0.1011069417394258
11.827736,6.502786024636118,0.1007904287280937
11.830124,6.518712178666705,0.1004440293970765
11.8325,6.52984273527154,0.100142017474711
11.834908,6.540833522249516,0.0998480996195724
11.837292,6.55182430922749,0.0995560530517201
11.839676,6.559369973220072,0.0992810061657087
11.842072,6.562399579040623,0.0990366578744518
11.844456,6.560214278554842,0.0988598574426446
11.846836,6.551743136576088,0.0987632570983904
11.84924,6.545134325716893,0.0986519584828694
11.851628,6.543181342656589,0.0985041359412515
11.854008,6.538434862916949,0.0983778748533815
11.856404,6.536761419110366,0.0982154317220624
11.858788,6.53601914086356,0.09804615749486
11.861184,6.538629437803531,0.0978261050567198
11.863587999999998,6.541379504370361,0.0975998311585124
11.865976000000002,6.5450607364969695,0.0973670985998382
11.868352,6.54795057269066,0.0971337881432946
11.87076,6.543902941085322,0.0969708842101864
11.873143999999998,6.539575770226263,0.0968228049215978
11.875528,6.5369711608599,0.096667819698703
11.877928,6.534366551493537,0.0965132351960369
11.880316,6.541492906605538,0.0962700776034947
11.882696,6.549690196904177,0.0960138543290607
11.885096,6.554162824963704,0.095784045484945
11.887484,6.560358014515928,0.0955486421531718
11.889864,6.568275765560849,0.0953067274868864
11.892264,6.577124682165546,0.0950580410388183
11.894647999999998,6.591048735449717,0.0947531330628233
11.897028,6.601899752800832,0.0944822104459117
11.899424000000002,6.609677734218892,0.0942465097211744
11.901812,6.621459917129784,0.0939705325888151
11.904188,6.630308833734483,0.093722755540374
11.906596,6.64036845515268,0.093456516712418
11.90898,6.649357141384238,0.0932049896858441
11.91136,6.656343726869378,0.0929738264890903
11.913756,6.662678686048461,0.0927356329299654
11.91614,6.673297385974098,0.0924464069765441
11.91852,6.688199826646289,0.0921026271054495
11.920924,6.703521576199062,0.0917401475809711
11.923312,6.719122865005554,0.0913645873563904
11.925688,6.7339327578791295,0.0909898709481696
11.928095999999998,6.737009585527922,0.0907147060632276
11.93048,6.738084312430299,0.0904585496059486
11.93286,6.743954636758428,0.0901661316004767
11.93526,6.749033565153639,0.089873620849394
11.937648,6.753460867242792,0.0895729960113259
11.940028,6.760169809332082,0.0892417633398395
11.942431999999998,6.767949686608011,0.0889003084287805
11.944819999999998,6.779221908697576,0.0885077779724722
11.947196,6.7918446052275,0.0880890576576882
11.949599999999998,6.802325431384148,0.0876971621910867
11.951987999999998,6.811875091981016,0.087309624717012
11.954368,6.812997040711636,0.0870121938042799
11.956772,6.813048054255618,0.0867269469992261
11.95916,6.814681859665436,0.086444631880179
11.96154,6.814173794701976,0.0861865208032526
11.963936,6.806588492312628,0.0859937595662765
11.96632,6.801145060296556,0.085776840588445
11.968704,6.79141788753393,0.0856078965180303
11.971100000000002,6.780480009957806,0.0854574951113883
11.973484,6.770193758687739,0.0853153591711757
11.975864,6.769918011149757,0.0850865978919176
11.97826,6.769782033238635,0.084850488446389
11.980648,6.770437451260432,0.0846179440531947
11.983028,6.772815430774925,0.0843830776890901
11.985432,6.773842935849059,0.0841727406123909
11.987816,6.770726469803498,0.0840027640438639
11.9902,6.763885341518825,0.0838523658093577
11.992596,6.755833508420653,0.0837201533654015
11.994984,6.747781675322481,0.0835876285255371
11.997376,6.740009381478029,0.0834415153794979
11.99978,6.735961749872692,0.0832765286578551
12.002168,6.742204161253158,0.0830173374490978
12.004548000000002,6.7505884430069,0.0827359094607947
12.006952,6.758460868081446,0.0824399476276978
12.009336,6.769266559462188,0.082123461142218
12.011716000000002,6.786730179388235,0.0817681476395143
12.01412,6.802703555247065,0.0814471072024835
12.016504,6.821610197412092,0.0811044137734297
12.018888,6.845591976256589,0.080722625594861
12.021284,6.8686425895413095,0.0803465493574906
12.023668,6.8887599365198335,0.0799951937829157
12.026048,6.910599844991054,0.0796426213417774
12.028452,6.928715091223161,0.0793091524137029
12.030836,6.943897071149073,0.0789958792713944
12.033216,6.960941382194541,0.0786732388499625
12.035616,6.979848024359566,0.0783416159477035
12.037999999999998,7.000849315069625,0.0780297268350948
12.04038,7.02357316727238,0.0777179210146457
12.042775999999998,7.045877710594555,0.077426400847422
12.045164000000002,7.068833880222789,0.0771453376247739
12.047544,7.0927212154108,0.0768638840124118
12.04994,7.114606449852396,0.0766013397857711
12.052328,7.132347713174296,0.0763729606317975
12.054708,7.149018041309558,0.0761553338482563
12.057104,7.1676904701912365,0.0759264457226649
12.059488,7.18342963276672,0.0757165638040825
12.061884,7.198237629782426,0.0755110078660276
12.064288,7.217980993850743,0.0752777324390108
12.066672,7.232649221239589,0.0750825085323665
12.069052,7.247457218255293,0.0748816247809459
12.071447999999998,7.261985676017278,0.0746942820280481
12.073835999999998,7.277445299339042,0.0745048228616421
12.076216,7.295698419340139,0.0743064145371174
12.07862,7.315022474527876,0.0740988737232708
12.081008,7.337699104902389,0.0738592940788103
12.083388,7.3603757352769,0.0736201772349471
12.085788,7.3838909834125745,0.0733462150727296
12.088176,7.40074830300294,0.0730996279438264
12.090556,7.417745392220165,0.0728471917343273
12.09296,7.432880150317835,0.0726014807256769
12.095348,7.441077440616476,0.0723958531628438
12.097732,7.447132860541838,0.0722094817766334
12.100132,7.460125748266229,0.0719840433875275
12.10252,7.475772363043096,0.0717561854475528
12.104895999999998,7.489277107446686,0.0715482603469093
12.1073,7.503061391103997,0.0713290644981374
12.109688,7.518568236254003,0.0711106998123346
12.112068,7.527417152858701,0.0709201629048134
12.114464,7.536126299836538,0.0707350767596147
12.116852,7.543904281254598,0.0705529960344292
12.119231999999998,7.548888765993323,0.0703793904139758
12.121628,7.547215322186737,0.0702310607081975
12.12402,7.542608612073958,0.0700973206508478
12.1264,7.538793297894098,0.0699667830660151
12.128796,7.532836113340959,0.0698539135696768
12.13118,7.52808963360132,0.0697267400368283
12.133564000000002,7.5229238449811,0.0696171632289186
12.13596,7.527489020839244,0.06946407126716
12.138348,7.533404671137745,0.0692916190980202
12.140728,7.543464292555941,0.0690926934925592
12.143128,7.560601151400028,0.0688530970119591
12.145516,7.577738010244113,0.0686138473240934
12.147896,7.590079271662447,0.0683944513688171
12.150288000000002,7.602560302707642,0.068170990197702
12.152676,7.614389707446778,0.0679394090635607
12.155067999999998,7.625799803305334,0.0677251799399782
12.157472,7.637768977671332,0.0674901299540192
12.15986,7.650529547970246,0.0672578593927986
12.16224,7.663429887896021,0.0670194409987021
12.16464,7.677261393381575,0.0667789784051017
12.167028,7.694165934800183,0.066520730134222
12.169408,7.720289584017957,0.0662093202814682
12.171804,7.74748416842237,0.0658903452126214
12.174192,7.772164795401169,0.0655671991934283
12.176571999999998,7.79619379607391,0.0652368286292155
12.178968,7.818220696000233,0.0649174437496159
12.181356,7.839735739247359,0.0645848525307919
12.183736,7.854732623576036,0.0642688748013997
12.18614,7.8694499686509936,0.0639657768007504
12.188524,7.880163112233117,0.0636829784928048
12.190904000000002,7.890224629509184,0.0633938643738222
12.1933,7.900705455665832,0.063089010240002
12.195688,7.911186281822478,0.0627838948885411
12.198068,7.917011280180234,0.0624875503336024
12.200463999999998,7.922836278537987,0.0621917625715366
12.202848,7.930291290589822,0.0618680284975279
12.205244,7.932950705215904,0.0615581036839813
12.20764,7.940825026148318,0.0612204029639765
12.210028,7.949910051894232,0.0608704353033221
12.212407999999998,7.958995077640146,0.0605209605868707
12.214808,7.964075901893225,0.0601878462833981
12.217192,7.961799949466695,0.0598979560012021
12.219575999999998,7.960594932226805,0.0596018298431383
12.22198,7.962974807599166,0.0593057764109889
12.224368,7.964004208531169,0.0590270617949974
12.226748,7.965964775022951,0.0587469228000194
12.229144,7.965503931887735,0.0584903288310335
12.231528,7.965834484685438,0.0582371176605229
12.233911999999998,7.964302706363582,0.0579865920099821
12.236316,7.963702093601507,0.0577346842167309
12.2387,7.954813538600042,0.0575235802068081
12.241079999999998,7.943783113225303,0.057324933671693
12.243484,7.934754788596979,0.0571184573753766
12.245872,7.932663931767683,0.0568883861376979
12.248252,7.931504240498166,0.0566576862163224
12.250648,7.930065009974928,0.0564383587523742
12.253036,7.930767649824967,0.0562057297379627
12.255416,7.927186548928452,0.0559991486095522
12.25782,7.924676383218577,0.0557867868942727
12.260208,7.923237152695338,0.0555687150912638
12.262588,7.924870958105156,0.0553370846285226
12.264984,7.933721770567724,0.0550743755835195
12.267372,7.937776985604539,0.0548202720681233
12.269752,7.93917847358888,0.0545637768985964
12.272148,7.943513227879416,0.0543004258500478
12.274536,7.948918917356591,0.0540318897755304
12.276915999999998,7.955535311647263,0.0537514897654165
12.279312,7.965224741870991,0.0534597024776652
12.281695999999998,7.975845337654499,0.0531674142666811
12.284096,7.983253127878089,0.0528916321402133
12.286492,7.999740256273986,0.0525837152577857
12.28888,8.01808971578944,0.0522745471680289
12.29126,8.034437074558477,0.0519725615362927
12.293656,8.042776030341848,0.051696383755681
12.296044,8.046039849445743,0.0514375902410888
12.298428,8.047161798176363,0.051190388951244
12.300824,8.04930746026538,0.0509737278998125
12.303212,8.047728460115282,0.0507578322690462
12.305592,8.042796884778408,0.0505638556105032
12.307996,8.035723439068258,0.050381046978648
