Time,Force,Position
10.336183999999998,2.995461017210548,0.1764353853128433
10.338571999999996,3.149207082901316,0.1748801665403875
10.340956,3.3022108703452773,0.1729607248513872
10.343351999999998,3.4496786779745507,0.1706479282899989
10.345736,3.582298850191352,0.1683526593463483
10.34812,3.6945297196073863,0.166755982108199
10.350515999999995,3.7888833477904,0.1658321950382359
10.3529,3.8773251173906473,0.1650870753106098
10.355295999999996,3.9622311120647535,0.1641593140716502
10.357691999999998,4.040250652483815,0.1629972611116896
10.407863999999998,4.065108791628371,0.1618702528397955
10.410251999999998,4.076515095771189,0.161628380716123
10.412632,4.0899707224886654,0.1612570272352727
10.415023999999995,4.1030542621538055,0.160850911591294
10.417411999999995,4.118464767789456,0.1604783033493771
10.419792,4.141090384619988,0.1600642904639696
10.422208,4.172328808914001,0.1594791404202634
10.424592,4.205988642835011,0.1587921693217998
10.426971999999996,4.238112906718428,0.1580555254179921
10.429363999999998,4.268794148362869,0.1573350363837245
10.431751999999998,4.295423966686235,0.1568244942669639
10.434132,4.325731225420469,0.1562863008513252
10.436535999999998,4.362184556020814,0.155558120594345
10.438923999999998,4.39374974139679,0.1548997564555134
10.441303999999995,4.41828491117512,0.1544000609215573
10.443699999999998,4.450129635804818,0.1537376606324194
10.446087999999998,4.491099024577196,0.1529568966269215
10.448484,4.534954457827524,0.152168134754835
10.45088,4.580020595891352,0.1513439590713582
10.453268,4.6232716246638645,0.1505057258639114
10.455647999999998,4.658281933025235,0.149872480633188
10.458052,4.689148270266911,0.1493734408131578
10.460436,4.721737169001282,0.1488583257453829
10.462815999999998,4.759960282922568,0.1481743546004805
10.465212,4.800140171619896,0.1473411931197815
10.4676,4.838784490279631,0.1464817745199208
10.469979999999998,4.871702045953835,0.1457565726162046
10.472376,4.906993789426795,0.1450237767148089
10.474764,4.944939259952228,0.1442533595782372
10.477147999999998,4.979579377119129,0.1435179569455667
10.479544,5.0111936801812185,0.1427972655133957
10.481927999999998,5.042575665817831,0.1420463388857149
10.567948,4.661019077823957,0.1419729513786795
10.570327999999998,4.653292109949879,0.141968704875796
10.572732,4.646496307635579,0.1419460291418031
10.575116,4.64486818979937,0.1418487645148879
10.577495999999998,4.652039870881745,0.1415558309896487
10.579896,4.658792243083539,0.14129897488582
10.58228,4.671411147897724,0.1409163020108788
10.584663999999998,4.688965419764521,0.14042591460959
10.58706,4.707311087564237,0.1399247866390436
10.589448,4.729660956856785,0.1393409188834313
10.591844,4.747587315775919,0.1388823330046353
10.594239999999996,4.765094365814473,0.1384603236341018
10.596627999999995,4.782461646226167,0.138049827125812
10.599008,4.804624524063613,0.13754988187779
10.601411999999998,4.827578797833977,0.1370558443320617
10.603799999999998,4.856539373843591,0.1364331478251203
10.606183999999995,4.889084842465459,0.1357497686243575
10.608579999999998,4.923632411833743,0.135021308996909
10.610967999999998,4.962323952321721,0.1341945005886327
10.613348,4.999292931317003,0.1333913090239473
10.615752,5.039334946245339,0.1325215466274674
10.618135999999998,5.0702976230013705,0.1318623118724982
10.620516,5.10261077419776,0.1311644469607436
10.62292,5.12933693203548,0.1305664204742386
10.625308,5.152058888380367,0.1300605237449807
10.627691999999998,5.172778743978836,0.1295954883399793
10.630088,5.188423462897834,0.129242951340696
10.632476,5.199784441070277,0.128994388698015
10.634855999999996,5.216080786295334,0.1286536304904254
10.637256,5.230235261147112,0.1283701379656247
10.639644,5.250815347118721,0.1279426612464395
10.642023999999996,5.270743806784271,0.1275109176694528
10.644419999999998,5.29267436719624,0.127043819083266
10.646807999999998,5.311671661302015,0.1266369954089705
10.649187999999995,5.327735689101592,0.1262860328669183
10.651583999999998,5.340866450594974,0.1259900355420269
10.653971999999998,5.355487456155576,0.1256456072632277
10.656352,5.374252432835871,0.1252276684249409
10.658756,5.3950195102625855,0.124784137526019
10.661143999999998,5.418859623622352,0.1242875495447714
10.663523999999995,5.444841607355397,0.1237595219418541
10.665928,5.475107331834996,0.1231426840116697
10.668311999999998,5.506024682620653,0.1225429251580687
10.670691999999995,5.54415904045906,0.1218231651289678
10.673096,5.5836438727378255,0.1210689084573513
10.675484,5.626481280203367,0.1202470807071418
10.677863999999998,5.670529392482407,0.1193931584115127
10.68026,5.716998914388444,0.1184794356797819
10.682648,5.7557395725625335,0.1176800370758951
10.685027999999996,5.788893237377956,0.1169486564030508
10.687423999999998,5.816831995887044,0.1163190248117722
10.689811999999998,5.841837488089936,0.1157289262159493
10.692195999999996,5.864049483613495,0.1151758815543727
10.694596,5.885470083204135,0.114628144692181
10.754319999999998,5.662770544261528,0.1144241523689151
10.756703999999996,5.662258687582329,0.1144086578948469
10.759099999999998,5.665331723515385,0.1143586441946866
10.761492,5.668264989821581,0.1143174722009334
10.775828,5.688329427398255,0.1142483170183487
10.778207999999998,5.693357342249484,0.1142190593931355
10.780604,5.698525026727571,0.1141814521023348
10.782991999999998,5.705974351205798,0.1140965757522243
10.785375999999998,5.717567646803719,0.113945555486804
10.787772,5.736098410200668,0.113698687429932
10.790159999999998,5.751556137664561,0.1134992966515708
10.792543999999998,5.773159936994567,0.1132059415445262
10.79494,5.79597444113807,0.1128869312452049
10.797327999999998,5.8149245134156,0.1126205709965168
10.799707999999995,5.836575534573848,0.112286663621051
10.802108,5.859996339053036,0.1118941385123368
10.804496,5.878481776479612,0.1115692331978878
10.806875999999995,5.901810033160182,0.1111440155458129
10.809271999999998,5.929422030587307,0.110653797301454
10.811659999999998,5.9523782002155405,0.110209871416422
10.814043999999996,5.979618110590327,0.1096949676241557
10.816448,6.006346164285916,0.1091605707038424
10.818832,6.035355857981644,0.1085798121118944
10.821211999999996,6.064645090931089,0.1079862904346477
10.823616,6.093654784626817,0.1074141995786437
10.826004,6.117357024217593,0.1068841367347048
10.828383999999998,6.141199033435231,0.1063495986735297
10.830788,6.165180812279729,0.1058115190378817
10.833176,6.186369094444891,0.1053086984816027
10.835556,6.200759678437885,0.104887877673495
10.837952,6.220365168737211,0.1043931667030412
10.84034,6.236245996797424,0.103938747427821
10.842719999999998,6.249193558551442,0.1035176756076476
10.84512,6.2597669325067065,0.1030967890771299
10.847504,6.264845860901916,0.1027657970795219
10.849887999999998,6.2675033796701305,0.1024837041163576
10.852284,6.272442538438481,0.1021604517382816
10.854672,6.269093754967443,0.1019519143212934
10.857047999999995,6.261601000376714,0.1018005110329196
10.859456,6.259602691346035,0.1015613433417785
10.86184,6.258023691195937,0.1013005459160658
10.864223999999998,6.26259076291195,0.1009632753173731
10.86662,6.270230870561017,0.1005902498220437
10.869008,6.275077481530751,0.1002401584671371
10.871387999999998,6.2820659628737605,0.0998628179075047
10.873792,6.2975747038816365,0.0994149162480094
10.87618,6.312152279329734,0.0989762404994622
10.878559999999998,6.327381481083889,0.0985486721358881
10.880956,6.341399978024546,0.0981448412295535
10.883348,6.358351741271397,0.0977123613565927
10.885728,6.373441173398692,0.0972986681232328
10.888124,6.385317799966072,0.0969264009300382
10.890512,6.399056757653008,0.0965393075560713
10.892891999999998,6.415030133511838,0.0961591628104512
10.895296,6.437289350863638,0.0957009391476673
10.897684,6.4608990426558,0.0952136843140953
10.900064,6.482227094447821,0.0947618599074445
10.902464,6.5100733051582935,0.0942600741445736
10.904852,6.536988350308986,0.0937651369055676
10.907232,6.5610626769521,0.0933399082492434
10.909628,6.5807134932218005,0.0929807196013359
10.912016,6.594078467998531,0.0927013993561564
10.914395999999998,6.602368306095788,0.0924786556524047
10.916796,6.614243036805298,0.0922373091191906
10.91918,6.61904053008892,0.0920710420499643
10.921559999999998,6.6148984548270935,0.0919931012628593
10.923956,6.611687545125046,0.0919087214237669
10.926344,6.605822908370527,0.0918361976099205
10.92874,6.598887336429367,0.0917771322977952
10.931136,6.593814095607764,0.0917054268392519
10.933524,6.5863194451591625,0.0916746282617588
10.935904,6.585482723255872,0.091593358541164
10.9383,6.587858806912496,0.0914729995352353
10.940688,6.592656300196116,0.0913128825835485
10.943067999999998,6.594101218292961,0.0911996901609461
10.945468,6.596057993069005,0.0911018744808117
10.947856,6.604952235644077,0.0909432552278294
10.950236,6.610401355233755,0.090794595910921
10.952636,6.6178525755698505,0.0906278703378705
10.955024,6.625862874413388,0.0904337438198059
10.957404,6.637877374749757,0.0902033789307071
10.959807999999995,6.653104680646043,0.0899354120316397
10.962195999999995,6.669123382475248,0.0896673944609185
10.964576,6.683419522811756,0.0894054107356366
10.966975999999995,6.703721965387514,0.0890879182805196
10.969363999999995,6.726817904642607,0.0887514275198611
10.971744,6.747771973524423,0.0884408652812761
10.974143999999995,6.770448603898935,0.0881267677371394
10.976531999999995,6.793404773527167,0.0877980858484592
10.978912,6.811425576102788,0.0875127261570077
10.981311999999996,6.830936622745627,0.087193890459366
10.983696,6.845140215283517,0.0868967851096528
10.98608,6.854920297447993,0.0866576584490721
10.988476,6.862838048492914,0.0864309879359788
10.990864,6.871035338791554,0.0861908995641428
10.993244,6.878581002784136,0.0859431483516244
10.99564,6.8785375726716325,0.0857454694069756
10.998032,6.880496243305544,0.0855308647293689
11.000412,6.880592582819901,0.0853267884477511
11.002815999999996,6.881340548640314,0.0851315518092739
11.005203999999996,6.88022618334117,0.0849470710738858
11.007584,6.873617372481975,0.0848275379989031
11.009983999999998,6.872083698302251,0.0846632276110433
11.012371999999996,6.872412355242084,0.0844895805547164
11.014752,6.87101845068922,0.084319644088119
11.017147999999995,6.870975020576715,0.0841253476007408
11.019536,6.8709315904642105,0.0839305285325647
11.021916,6.870096764418787,0.0837342518968373
11.024312,6.870053334306283,0.0835396662756314
11.0267,6.869078738633999,0.0833485937476752
11.02908,6.867824603707996,0.0831709529945104
11.031476,6.86722209508805,0.0830012765231801
11.033864,6.868901226468242,0.0828020504603984
11.036243999999998,6.869090113781214,0.0826341414131889
11.038651999999995,6.868208065907547,0.0824775447977215
11.041039999999995,6.871330219526715,0.0822900854284292
11.043424,6.875895395384861,0.082112204167749
11.045819999999996,6.8800412623624245,0.0819550080477009
11.048207999999995,6.88884295713888,0.0817760320826212
11.050588,6.896713486355557,0.0816021203889217
11.052984,6.902442145198956,0.0814501034067356
11.055372,6.91766945109524,0.0812053359298097
11.057756,6.927030224379137,0.0810019496456808
11.060159999999998,6.932386796170199,0.0808295760039519
11.062547999999998,6.939186390200237,0.0806688047517986
11.064928,6.945706444976555,0.0805218990132271
11.067323999999996,6.955579074939647,0.0803369550809267
11.069711999999996,6.967314036022297,0.0801447334901448
11.072092,6.982122033038002,0.0799288622117136
11.074487999999995,7.002796562666099,0.0796758355720035
11.076876,7.024542027480832,0.0794134992728756
11.07926,7.053085190467735,0.0791137786030705
11.081655999999995,7.078834856775303,0.0788267009983198
11.084044,7.108868263829425,0.0785001936097861
11.086424,7.140764002003103,0.0781664727378698
11.088823999999995,7.165442733124033,0.0778930846627399
11.091211999999995,7.193474039431738,0.0775840449570411
11.093592,7.218711849060108,0.077286065358162
11.095991999999995,7.239014291635867,0.077021775295421
11.098376,7.260387669398264,0.0767486045888371
11.10076,7.285625479026634,0.0764543535139241
11.103156,7.302435576788756,0.0762351435603474
11.105544,7.322178940857073,0.0759988222687772
11.107924,7.346997441604862,0.0757266219112545
11.11032,7.3703729201136765,0.0754449112067843
11.112712,7.391094671570015,0.0751681448584098
11.115096,7.40739291265294,0.0749371752512652
11.117492,7.420757887429669,0.0747238821275292
11.11988,7.431980991833121,0.0745316610824413
11.122264,7.441481534743876,0.0743419867311143
11.12466,7.450050912094854,0.0741563932689782
11.127048,7.44781838978083,0.0740318280719802
11.129432,7.448239594519279,0.0739032614365692
11.131827999999995,7.446658698511312,0.0737879064972847
11.134219999999996,7.443355241010648,0.0736730065963377
11.1366,7.4432645890699,0.073530093296121
11.138999999999998,7.443173937129153,0.073388047582693
11.141387999999996,7.445364925188541,0.0732216048063161
11.143768,7.445973121382095,0.073048707587845
11.146163999999995,7.444579216829231,0.0728881344284474
11.148552,7.439600419664114,0.0727340179319428
11.150936,7.439184902499272,0.0725312819789275
11.153335999999998,7.436487745334293,0.0723526848503529
11.155723999999998,7.4287154514898415,0.0722074801927769
11.158108,7.418801287272113,0.0720798412403388
11.160503999999998,7.413682720480136,0.0719311664193662
11.162891999999998,7.410845793688296,0.0717582633269667
11.165276,7.408008866896456,0.0715849673101848
11.167675999999998,7.401447277865504,0.0714232389956517
11.170063999999998,7.392883588088135,0.0712732733389853
11.172447999999996,7.383248963124125,0.0711319404696285
11.174848,7.379760410026228,0.0709482391416615
11.177236,7.377901870622408,0.0707325363728059
11.179615999999998,7.373110064912396,0.0705311668739203
11.18202,7.372182691068356,0.0703131365187767
11.184408,7.373257417970733,0.07008440980547
11.186787999999998,7.370327943380277,0.0698785497660101
11.189184,7.3692607999093775,0.0696679718960629
11.191572,7.37298925386423,0.0694383106292277
11.193951999999998,7.37913911744608,0.0691804871417279
11.196348,7.389432952147623,0.0688956927872638
11.198731999999998,7.398516082035668,0.0686262127973348
11.201112,7.408437829684873,0.0683214938392477
11.203511999999998,7.419849821401298,0.0679902390767722
11.205899999999998,7.436336949797194,0.0676306602465137
11.20828,7.448959646327117,0.067288290883133
11.210675999999998,7.464934918043816,0.0669186902236147
11.213063999999996,7.483331599387513,0.0665227383309567
11.215459999999998,7.50773458297046,0.0660973518112229
11.217852,7.533208501740048,0.0656647611607049
11.22024,7.558822190136493,0.0652260243596078
11.222623999999998,7.583644482600022,0.0647862169170161
11.22502,7.606045365436552,0.0643766486325006
11.227403999999998,7.62965695308658,0.0639529147806688
11.229784,7.648472943310858,0.0635466525617805
11.232188,7.662633105736244,0.0631508226578713
11.234576,7.6778642033482685,0.0627463354971789
11.236955999999998,7.690301804280958,0.0623491467146864
11.23936,7.697943807787896,0.0619671393911279
11.241748,7.705306272041113,0.0615984035810693
11.244127999999998,7.710526865921054,0.0612461958540344
11.246524,7.71802909980113,0.0608755536505421
11.248912,7.72990762222638,0.0605104734469286
11.251291999999998,7.743368936517465,0.0601542917757391
11.253688,7.752826049315715,0.0598169554069155
11.256075999999998,7.761212226927328,0.0594857268740581
11.258455999999995,7.763312563045971,0.0591914107924755
11.26086,7.764062424724251,0.0589157523938331
11.263248,7.758945753790145,0.0586593127123964
11.265627999999998,7.753829082856037,0.0584029338912588
11.268024,7.752856383041624,0.0581260057029631
11.270412,7.752675079160128,0.0578539386990036
11.272791999999995,7.753424940838411,0.0575812322704616
11.275192,7.75603713363625,0.0573066209702965
11.27758,7.760511657553645,0.057029427745843
11.279959999999996,7.769642009269933,0.0567470800916217
11.282355999999998,7.782776562479055,0.0564512927795533
11.284743999999998,7.795911115688177,0.0561556252726235
11.28714,7.812630561509551,0.0558611307506015
11.289536,7.827208136957648,0.0555799407176713
11.291924,7.841366403525164,0.0553152899877356
11.294304,7.852963490838823,0.0550804908852442
11.2967,7.856971484047396,0.054858427672711
11.299092,7.859117146136412,0.0546382735798154
11.301472,7.863264908971844,0.054411498025477
11.303868,7.871416873300111,0.0541713240677214
11.30626,7.881431168747934,0.0539286487384942
11.30864,7.890374529009118,0.0536920820178089
11.311036,7.902111385949637,0.053452882323289
