Time,Force,Position
11.511748,3.397283113002216,0.1750523895780857
11.538032,3.578153790974724,0.1750480574742655
11.540411999999998,3.606596822731533,0.1745822938626944
11.542808,3.642024544115613,0.1737979274533319
11.545196,3.6757297040069976,0.1730630273690566
11.547592,3.711809051697137,0.1722961058141784
11.549988,3.754127019052003,0.1713581927137218
11.552372,3.794163346406733,0.1705405194474802
11.554752,3.834479213015182,0.1697016978469031
11.557148,3.877123941452012,0.1687035648392071
11.559532,3.9166030861571697,0.1677638512805574
11.561915999999998,3.9532887341829928,0.1669108819979535
11.564312,3.9907185563134897,0.166124380826306
11.566696,4.030802105496462,0.1653175033366751
11.569092,4.076240330612628,0.1643109435147811
11.571488,4.127312770915706,0.1630937365852993
11.573876,4.177081958606668,0.1618814410932275
11.576256,4.223638340737716,0.1608082724394367
11.578652,4.27657311216035,0.1595822167472583
11.58104,4.328436948396347,0.1583911718599556
11.583416,4.379696380154528,0.157129677321754
11.585812,4.424484874822504,0.1560080204221315
11.5882,4.45781984351942,0.1552353469005466
11.590592,4.485800136283144,0.1546695941936944
11.592988,4.51871579609948,0.1539787891645987
11.595372,4.554052865542812,0.1532189824508022
11.597768,4.585432955321554,0.1525204884237504
11.600164,4.6184430587943766,0.1517476867953276
11.602552,4.653083175961278,0.1509104901926156
11.604932,4.683160013127905,0.15023369069439
11.607335999999998,4.718172217347144,0.1494415502782896
11.60972,4.757188623059216,0.1485510134143615
11.6121,4.794250149853115,0.1476492722389423
11.614496,4.820137689929674,0.1469930674003406
11.616884,4.8413694022073415,0.1464426439679526
11.619264,4.856455042618897,0.1460619152293487
11.7268,4.656112956400317,0.1460596692809822
11.729204,4.657463430840677,0.1460077506973692
11.731588,4.6628181067738685,0.1458602876802608
11.733972,4.670826509759537,0.145671895700301
11.736372,4.680697243864761,0.1454442715246826
11.73876,4.695363575395736,0.1451140128456107
11.74114,4.712823403606048,0.1447350329826066
11.743536,4.736289534055609,0.144215021038762
11.745924,4.7634803267442845,0.1436227215423463
11.748304,4.793744155366014,0.1429578936869321
11.7507,4.821494026562129,0.1423196742836538
11.753088,4.859673710370909,0.1414116055383248
11.755468,4.8919868615672994,0.1406298815811897
11.757872,4.918713019405019,0.1399655968295258
11.76026,4.94478755093668,0.1392992142570223
11.76264,4.964064384296173,0.1387863314789497
11.765036,4.983760526536247,0.1382456569947608
11.767424,5.00480714321668,0.1376572573862879
11.769804,5.030277270270528,0.1369457196165988
11.7722,5.05388506620482,0.1362715789538035
11.774584,5.069624228780303,0.135767935462007
11.776964,5.082709664303312,0.1353099246286245
11.77936,5.092070437587208,0.1349197798645311
11.781748,5.096915152699072,0.1346039270435176
11.784128,5.108045709303907,0.1341417116690615
11.786532,5.119036496281881,0.1336958371016862
11.78892,5.123229585087689,0.1333820252043294
11.791296,5.1236980116543815,0.1331331609106695
11.793691999999998,5.12165248079546,0.1329110177762585
11.796076,5.117604849190122,0.1327307436344693
11.798472,5.119144210943454,0.1324583702777167
11.800876,5.114537500830675,0.1323191908650449
11.803264,5.116216632210866,0.1320386541255028
11.80564,5.12241182176309,0.1316946079845148
11.808044,5.126604910568895,0.1313893419950198
11.810428,5.134941970494396,0.1309943586041032
11.812808,5.141137160046618,0.1306504327936299
11.815212,5.146261414412203,0.1303327638458723
11.8176,5.149104028777652,0.1300762769754674
11.81998,5.1495724553443445,0.1298320107010154
11.870156,5.073651355186055,0.1297563154951985
11.872552,5.079610435597062,0.1296982230934194
11.874936,5.090644652687543,0.1295430808804262
11.877316,5.101958409031743,0.1293706876682025
11.87972,5.117695675749357,0.1290931356563412
11.882104,5.136086669519447,0.1287827914511392
11.884488,5.158202325528649,0.1284220884612892
11.886884,5.182320082284268,0.1280238385870822
11.889268,5.214306472398694,0.1274944943842648
11.891647999999998,5.257514071058703,0.1267559162246258
11.894048,5.30258400083827,0.1259903371460989
11.896436,5.350587196924031,0.1251760156126289
11.898815999999998,5.401383889689127,0.1243292502337693
11.90122,5.45418268320064,0.1234527559712816
11.903608,5.498693534472766,0.1227444719667693
11.905988,5.539479723505778,0.1220927619448014
11.908384,5.581336847725427,0.1214240863641462
11.910772,5.618258604892468,0.1208403477902873
11.913151999999998,5.659184563552341,0.1201964602902184
11.915556,5.70118145739885,0.1195434403794405
11.91794,5.740524624192886,0.1189263354267148
11.920319999999998,5.776143128747808,0.1183626194932163
11.922716,5.809340223675734,0.117869452096104
11.925104,5.839464282670604,0.117430575145033
11.927484000000002,5.871171133531309,0.1169928183945458
11.929884,5.901155422899319,0.1165686005994633
11.932268,5.926483884468438,0.1162049692515466
11.934651999999998,5.952883281224194,0.1158250855246078
11.937048,5.973835454248141,0.1155110601871245
11.939436,5.985708289099781,0.1153409693575924
11.941832,5.997581123951422,0.115171834051937
11.944228,6.009873267683645,0.1149800481491245
11.946616,6.020303080296309,0.114810841210275
11.948996,6.027939396229638,0.1146730643249367
11.951392,6.039999222536383,0.1144516411341853
11.95378,6.054340688843265,0.114185392910651
11.956155999999998,6.065376801791614,0.1139358201779058
11.958564,6.079625720299879,0.1136302372770981
11.960948,6.087076940635974,0.1134136150431972
11.963328,6.091594894665874,0.1132370855684765
11.965732,6.095041913509137,0.1130787516530954
11.96812,6.100770572352538,0.1128763254602703
11.970496,6.104125043397183,0.1126794357545199
11.9729,6.110040693695684,0.1124221882954213
11.975288,6.112650990635654,0.1121807777856161
11.977668,6.119684797949039,0.111861716238994
11.980064,6.127137914143004,0.1115175872166065
11.982452,6.132077072911355,0.1111872003520223
11.984832,6.135805526866205,0.1108824797866173
11.987228,6.143957491194471,0.1104998738519467
11.989616,6.1518771380972606,0.1100880425683414
11.991996,6.155792583507214,0.1097302699516957
11.994396,6.157333841118415,0.1093760131484437
11.996784,6.157943933169838,0.1090296035311479
11.999164,6.156971233355425,0.108686098675209
12.001568,6.153996432794595,0.1083692888703505
12.003952,6.1547462944728775,0.1080163425589155
12.006332,6.151771493912047,0.1076989922060314
12.008728,6.153871830030688,0.1073118809707043
12.011116,6.155460309470132,0.1069096855369605
12.013512,6.157979954469353,0.1064980522590039
12.015908,6.161011456147774,0.1061040621571658
12.018296,6.162972022639555,0.1057254507078135
12.020676,6.161719783571421,0.1053973877615472
12.023072,6.1580461348762885,0.1051175823844451
12.02546,6.151019910994382,0.1048972359946187
12.02784,6.149720450098006,0.1046182044649384
12.030236,6.149212385134546,0.1043383674632458
12.03262,6.145491514611171,0.104106319623317
12.035016,6.138697608154741,0.1039161555785614
12.03742,6.13120485356401,0.1037653541292185
12.039808,6.125853969346555,0.1035812146623566
12.042184,6.121154711435159,0.1034037519962052
12.044579999999998,6.118597323897039,0.1031928398499319
12.046968,6.116412023411257,0.103005105267059
12.049348,6.114086953298616,0.102824888529339
12.051752,6.109759782439557,0.1026698827079405
12.054136000000002,6.111159374566029,0.1024570706428854
12.056516,6.109625700386305,0.1022774336539565
12.05892,6.108324343632058,0.1021288949769084
12.061303999999998,6.107162756504671,0.1019725239001163
12.063684,6.1012055719515335,0.1018646151795486
12.06608,6.097250488144812,0.1017321457483396
12.068468,6.096228670644286,0.1015671145983224
12.070848,6.101492694636732,0.101313991255578
12.073256,6.107687884188954,0.1010535124461509
12.075639999999998,6.106805836315289,0.1008818189872959
12.07802,6.10778611956118,0.1006950835897231
12.080416,6.11598340985982,0.1004142471686803
12.082804,6.123761391277879,0.1001559854621682
12.085184,6.132750077509438,0.0998750944146791
12.08758,6.140248519673777,0.0996330762289744
12.089968,6.150680228144311,0.0993608954360243
12.092352,6.159761462174486,0.0991198610206128
12.094756,6.168842696204661,0.0988788266052013
12.09714,6.178855095794614,0.0986299112266641
12.09952,6.190590056877263,0.0983749825322263
12.101916,6.19804127721336,0.0981827295081079
12.104304,6.207215059042152,0.0979835175127444
12.106688,6.2166683801246645,0.0977688821893124
12.109084,6.225981931580316,0.0975624444092681
12.111472,6.2400910804617205,0.0973104599275842
12.113864,6.252058358969848,0.0970883787648472
12.116268,6.263885867851116,0.0968755416931579
12.118656,6.269427535239411,0.0967461147871053
12.121035999999998,6.273246641135011,0.0966240238126285
12.123432,6.279207617403887,0.0964714939027461
12.12582,6.279302061060373,0.0963783501366377
12.1282,6.278465339157081,0.0962932394850309
12.1306,6.279118861321008,0.0961703169966618
12.132984,6.277770282738518,0.0960694359031776
12.135368,6.279774279342805,0.0959169717811324
12.137764,6.277913844081118,0.0958005624209542
12.140147999999998,6.280197379939124,0.0956338369515585
12.142532,6.286764656543685,0.0954110302373624
12.144936,6.295334033894663,0.0951683570610726
12.147324,6.300178749006528,0.0949530545538648
12.1497,6.308376039305167,0.0946884398208793
12.152095999999998,6.314850768111111,0.0944302368977121
12.154483999999998,6.321605036170775,0.09415774575742
12.156864,6.327567908297521,0.0938844091057958
12.159272,6.329806118185153,0.0936376926570634
12.161656,6.337119464752258,0.093336775113799
12.164036,6.343781185013306,0.0930287268765709
12.166432,6.357939451580821,0.0926257771351705
12.168819999999998,6.373960049267895,0.0922110915876594
12.171204,6.387978546208551,0.0918157740569926
12.1736,6.409865676508015,0.0913484858588587
12.175987999999998,6.428679770874423,0.0909169521129757
12.178368,6.44721432598711,0.0905012333521814
12.180763999999998,6.466680046659576,0.0900791129788326
12.183152000000002,6.484143666585626,0.0896796457270189
12.185532,6.508544754310704,0.0892200125396644
12.187928,6.530943741289367,0.0887846824034188
12.190316,6.548267591588556,0.0884036937471398
12.1927,6.562518405954689,0.0880552834826665
12.195096,6.577700385880601,0.0876997142741735
12.19748,6.590880265060097,0.0873650080400797
12.199876,6.6037806049858725,0.0870437137747901
12.202272,6.62040560715076,0.0867037188501348
12.204655999999998,6.637822005248566,0.0863653422885047
12.20704,6.660034000772123,0.0859938950490633
12.20944,6.675308528496652,0.0856819949449144
12.211828,6.6890928121539615,0.0854034727876432
12.214208,6.6971031109974986,0.0852097401210629
12.216612,6.704042474654397,0.0850289573568265
12.219,6.714986039804129,0.0848137169554683
12.221376,6.721785633834167,0.0846417974375162
12.223772,6.731378724543539,0.0844549810316437
12.226159999999998,6.74297391599933,0.0842522515253579
12.22854,6.757642143388175,0.0840226808529219
12.230944,6.772030831523299,0.0838070716104896
12.233332,6.779202512605673,0.0836612469389573
12.235712,6.7850237192476905,0.0835408350798181
12.238116,6.793778192195902,0.0833996794553136
12.2405,6.803743369957611,0.083240242012807
12.24288,6.817712749212156,0.0830494853444452
12.24528,6.83126281958612,0.0828789604722619
12.247664,6.848817091452916,0.0826772636318785
12.250048,6.8592941258938245,0.082535670850562
12.252444,6.874846297014204,0.0823534751618441
12.254827999999998,6.889607072201666,0.0821718395783602
12.257212,6.913819272613772,0.0819402698440679
12.259607999999998,6.941104508958933,0.081682884927232
12.261995999999998,6.972953025304369,0.0813706864450866
12.264392,7.0058724768364415,0.081049334185498
12.266788,7.035439353181741,0.0807681137541092
12.269176,7.067148099900317,0.0804672230602408
12.271556,7.096342889193277,0.0801682056431129
12.27396,7.125537678486238,0.0798727099325082
12.276344,7.150728266286365,0.0796086013393184
12.278724,7.176198393340212,0.0793324019484896
12.281132,7.205160865207696,0.0790127434201002
12.283516,7.235613581142398,0.0786650136622946
12.285896,7.265274901144183,0.078318495350849
12.288292,7.296798552265525,0.0779666645911011
12.29068,7.3201740307743375,0.0776765275360766
12.29306,7.344248357417452,0.0773559283533544
12.295456,7.363666856261675,0.0770561115694311
12.297844,7.387229326225593,0.0767214362556535
12.300223999999998,7.402783393203842,0.0764440825764538
12.302628,7.415404193875896,0.0761854568427785
12.305016,7.422997079696722,0.0759272905556064
12.307396,7.428215777718792,0.0756624144395539
12.3098,7.42943027424803,0.075424898344093
12.312188,7.42878243965771,0.0751945005932878
12.314568,7.430416245067527,0.0749390842905641
12.316964,7.432469359357926,0.0746673803058342
12.319348,7.438247135887438,0.074383629948902
12.321727999999998,7.438298149431421,0.0741250768212451
12.324132,7.437557767042484,0.0738629649840908
12.32652,7.437748550213326,0.073598117111462
12.3289,7.439661894876865,0.0733345960201597
12.331296,7.438781742861067,0.0730804468412166
12.333684,7.434828554912215,0.0728472585283519
12.336064,7.428221639910888,0.0726175829526416
12.33846,7.430973602335588,0.0723190415268006
12.340848,7.432375090319929,0.0720412382445913
12.343232,7.437641010170243,0.0717460440598996
12.345628,7.445188570020695,0.0714297475301993
12.348016,7.456880100990839,0.0710838966811224
12.350395999999998,7.4696425671476225,0.0707296473853614
12.352792,7.481054558864047,0.0703964350046043
12.35518,7.494980508006088,0.0700680468065794
12.357576,7.507835521961488,0.0697473824730115
12.359979999999998,7.519899139983972,0.0694230308168487
12.362367999999998,7.533173462819954,0.0690866261547018
12.364748,7.539230778603185,0.0687972442654643
12.367144,7.538490396214249,0.0685377121309106
12.369528,7.5453391079304,0.0682519175367162
12.371912,7.5539103811392465,0.0679664003183522
12.374308,7.561550488788316,0.0676842727156498
12.376692,7.562253128638355,0.0674371276918093
12.379072,7.563467625167592,0.0672042361734483
12.381476,7.566823992070106,0.0669543067692369
12.383864,7.571902920465316,0.0667056932201237
12.386244,7.570835776994415,0.0664957885697288
12.38864,7.571630964643072,0.0662812118080026
12.391028,7.57121544747823,0.0660814890961136
12.393412,7.562511988073999,0.0659344760566755
12.395808,7.552737593483131,0.0657954368042495
12.398196,7.543754594825181,0.0656598309402901
12.400572,7.533700660980591,0.0655316349730938
12.402976,7.522855331203084,0.0653999847547203
12.405364,7.514943267731773,0.0652559019071298
12.407744,7.511547262432495,0.0651070583905461
12.410144,7.502936350826881,0.0649912240028778
12.412532,7.500191971833659,0.0648509139418263
12.414912,7.504385060639465,0.0646789616199541
12.417312,7.501920220899962,0.0645272575746019
12.4197,7.503319813026433,0.06436272225877
12.42208,7.504998944406625,0.064187092183484
12.424476,7.5126843780260675,0.0639825963813404
12.42686,7.522651451645647,0.0637575618558495
12.429244,7.532478755638365,0.0635387693672504
12.43164,7.542306059631084,0.0633210114022747
12.434024,7.55520639955686,0.0630867184456081
12.43642,7.568386278736355,0.0628423732767768
12.438816,7.577050099743819,0.062600632988418
12.441204,7.593862093363811,0.0623163866651361
12.443584,7.609603151797163,0.0620396646287141
12.445987999999998,7.622410943924321,0.0617738630248182
12.448376,7.639222937544313,0.0614906147432866
12.450756,7.655103765604524,0.061210449183373
12.453152,7.669262032172041,0.0609287291697
12.455536,7.679695636500445,0.0606546390542486
12.45792,7.695344147135181,0.0603506571090518
12.460316,7.710201261836999,0.0600438638664106
12.462704,7.720914405419123,0.0597611548841185
12.46508,7.733909189001384,0.059458082199838
12.467484,7.741596518478695,0.0591539608746313
12.469872,7.749144078329147,0.0588561293967859
12.472252,7.751896040753846,0.0585705000729331
12.474648,7.753856607245628,0.0582814795724704
12.477036,7.755956943364269,0.057987309337657
12.479432,7.757265883549992,0.0576895510763117
12.481827999999998,7.760576924482133,0.0573859993072977
12.484215999999998,7.763096569481355,0.0570790250765487
12.486596,7.772413912652746,0.0567540506354544
12.489,7.777587284704443,0.0564506218660675
12.491388,7.785182066383138,0.0561243479674701
12.493768,7.7949187184351105,0.0557850932873946
12.496163999999998,7.800790938621108,0.0554554710963281
12.498551999999998,7.807594324366884,0.0551259742697902
12.500932,7.8111849045527455,0.0548134644894977
12.503336,7.815566880671524,0.0545053539891119
12.505724,7.818877921603664,0.0542050720971314
12.508104,7.819907322535667,0.0539218632874079
12.5105,7.819074392348114,0.0536389295200686
12.512887999999998,7.820755419586174,0.0533651429430763
12.515272,7.824019238690072,0.0531003935221201
12.517668,7.825001417793832,0.0528526213493765
12.520052000000002,7.829428719882984,0.0526124555678082
12.522436,7.831294842718279,0.0524000794936461
12.524831999999998,7.829668620739939,0.0522158508559199
12.527219999999998,7.82590052838832,0.05204328595832
12.5296,7.817057299357231,0.0518899738218372
12.532004,7.806863595885781,0.051752989496282
12.534392,7.794528022041055,0.0516280388861171
12.536772,7.784334318569606,0.0514912284219591
12.539167999999998,7.774512702150494,0.0513753927609377
12.541552,7.764411546477662,0.0512699609456152
12.543932,7.760688780096418,0.0511673060561434
12.546328,7.751751107408841,0.0510872962662918
12.548716,7.753615334386267,0.050982499362705
12.5511,7.75762143173697,0.0508669508812879
12.553496,7.760416824274175,0.0507624756580687
12.555884,7.768147583863992,0.0506463351281935
12.558279999999998,7.782536271999117,0.0505234543814326
12.560676,7.792920758641409,0.0504122388957734
12.563064,7.799812900470064,0.0503274231236098
12.565444,7.81178017897819,0.0502260402157013
12.56784,7.823887227113178,0.0501198045937959
12.570227999999998,7.842140347114276,0.0499919379720522
12.572612,7.866679308608345,0.0498369615881257
12.575008,7.891869896408472,0.049691589506331
