Time,Force,Position
11.27026,3.0357533671639887,0.1774088142653483
11.272644,3.197834596922388,0.1743206661845961
11.27504,3.346463991679048,0.1718432788955527
11.277428,3.484527595911921,0.1695842100482994
11.279812,3.611419109285324,0.167844700923539
11.282208,3.725788057358897,0.1666971006231935
11.284592,3.8319654027074384,0.165558251600821
11.286972000000002,3.929067201599411,0.1643991314650169
11.289364,4.007734576608791,0.16370024650313
11.291748000000002,4.07536963038556,0.1631618092064993
11.294128,4.135370264086868,0.1627788281296797
11.29652,4.193603010325106,0.1623202832240822
11.298908,4.248160212010343,0.1617209480176052
11.301284,4.290801148731434,0.1612038908818125
11.30368,4.314261591607388,0.1610772001218496
11.306064,4.328504822542046,0.1610610209541068
11.30844,4.344005980118444,0.1609260793860767
11.310856,4.365840201016057,0.1605205537031507
11.31324,4.383113037771264,0.1601136703851491
11.31562,4.395405181503485,0.1597330180015283
11.318012,4.399037295943982,0.159585902784324
11.3204,4.409978965235844,0.1592692193231819
11.322776,4.426460406058133,0.1588863016530747
11.325172000000002,4.443873012440202,0.1584789203104557
11.327560000000002,4.460960753598174,0.1579819170775145
11.32994,4.476652694345415,0.157432254713952
11.332332,4.492624174346375,0.1568616424331571
11.334716,4.508408662892233,0.1563707298819197
11.337096,4.529872692595378,0.155802526585175
11.339512,4.55813442047069,0.1550693982466994
11.341896000000002,4.58458103905469,0.1543216145981943
11.344276,4.607350217227819,0.1536082270260161
11.346692,4.624345410587176,0.153098254606099
11.349076,4.644458965849962,0.1526147935229028
11.351456,4.672533702270172,0.1519704323688704
11.353872,4.706102884250434,0.1511464713297749
11.356256000000002,4.731850654700134,0.1504669003796351
11.358636,4.74735560399227,0.1500288627865235
11.361052,4.764163805896523,0.1496052945160609
11.363436,4.787722484144702,0.1490886640916625
11.365816,4.81863793907249,0.1483551750898118
11.36822,4.838239637656078,0.1478740630859055
11.370604,4.851742486201799,0.1475018065299527
11.415968,4.864778804038695,0.1471910242378238
11.418384,4.864127177732637,0.1471873365796241
11.420768,4.862172298814463,0.1471759047589972
11.423148,4.858262540978116,0.1471529400790219
11.425564,4.85970745907496,0.1469850185601156
11.427948,4.859662133104587,0.1468787062036962
11.430328,4.862550073440409,0.1467069838437251
11.432732,4.87251525120212,0.1463641174614264
11.435116,4.8871834785909645,0.1458690847345673
11.437496,4.900129144487113,0.1454000281733808
11.439892,4.913866206316179,0.144921883991475
11.44228,4.927975355197584,0.1444746609862612
11.444676,4.9439468351985445,0.1439891911357766
11.447068000000002,4.95684527926645,0.1435799160274848
11.449452,4.964296499602545,0.1432684611085702
11.451832,4.974029359938779,0.142892100732378
11.454228,4.982831054715233,0.1425332476449682
11.456616,4.991492979864827,0.142183680275327
11.459012,5.003647249828058,0.1417223218641544
11.461408,5.00914359124598,0.1413985397444182
11.463792000000002,5.0137087671041245,0.1410955482391413
11.466172,5.019205108522047,0.1407762765303378
11.468576,5.020557478820274,0.140560308297607
11.470964000000002,5.024563576170977,0.1403034369855826
11.473344,5.023774076095928,0.1401455953938233
11.475740000000002,5.027408086394295,0.1398653686779937
11.478128000000002,5.031181866319521,0.1395765093843824
11.480504,5.028809574378636,0.1394324933654505
11.482912,5.023224476877835,0.1393709790153784
11.485296000000002,5.017639379377034,0.1393094093460654
11.487676,5.013404756316591,0.1391987107136781
11.49008,5.006935715084256,0.1390956795690959
11.492468,5.000606443478779,0.1389816894142905
11.494844,4.996279272619721,0.1388233153480927
11.497248,4.995956303253494,0.1385756046229079
11.499636,4.991908671648156,0.138395662836746
11.502016,4.991725471908792,0.1381395966933986
11.50442,4.992892746609786,0.1378350682518944
11.506804,4.992430007616702,0.1375996451321709
11.509188000000002,4.9976940316091465,0.1372535357346201
11.511588,5.00416876041509,0.136873324740324
11.513976,5.008501618847757,0.1365471016710457
11.516356000000002,5.015348434706037,0.1361906122397385
11.51876,5.017259883511707,0.1359370283429894
11.521144,5.019962728250294,0.1356760534496026
11.523524000000002,5.015728105189853,0.1355628074061189
11.525928,5.008140906942635,0.1355418465534578
11.528316,5.006839550188388,0.1353680906119742
11.530696,5.007260754926838,0.1351713288971483
11.5331,5.011546391531262,0.1348992751827613
11.561772,4.941631593612224,0.1347614394564759
11.564156,4.935347647977123,0.1347454769292728
11.566536,4.934138839021493,0.1346194351925674
11.56894,4.937074001185557,0.1344005592982775
11.571324,4.9468068615217895,0.1340519039702096
11.573704,4.959892297044799,0.1336144046071173
11.576108,4.966691891074837,0.1333231366796418
11.578492,4.975633355478152,0.1329824299862148
11.580876,4.978708287269076,0.1327545208965902
11.583272,4.982714384619779,0.1325125263418156
11.585656,4.990864453090176,0.1321794202909001
11.588036,5.004089658240046,0.1317414309291164
11.59044,5.022250230442526,0.1312140930739233
11.592824,5.041341968204786,0.1306745149555359
11.595204,5.066300238579435,0.1300273629233694
11.5976,5.097916437499393,0.1292634349165815
11.599984,5.134747542725684,0.1283918047621879
11.602368000000002,5.173440979071531,0.1275053432194884
11.604768,5.209061379484323,0.1266886460976635
11.607156,5.241329204710339,0.125952791810584
11.609536000000002,5.271734698816799,0.1252513282525998
11.611928,5.30064994885604,0.1246111180147203
11.614316,5.326352393335364,0.1240459810023927
11.616696,5.349773197814553,0.1235456432580218
11.619096,5.370912362293601,0.1231072736280859
11.621484,5.39135267863835,0.1227199667087055
11.623864,5.416588592408852,0.1222550628261803
11.626268,5.438611700619437,0.1218605888572343
11.628652,5.466221802188692,0.1213868595505224
11.631032,5.493552364504228,0.1209364740417266
11.633428000000002,5.520743157192903,0.120503040341989
11.635812,5.548865115441355,0.1200689389329328
11.638208,5.570841001823697,0.1197497735591161
11.640604,5.594679219325597,0.1194113321986503
11.642988,5.61544440089444,0.1191311411124285
11.645372000000002,5.63248492022417,0.1189001813126951
11.647768,5.643658906941509,0.1187597276761941
11.650152000000002,5.651620088098934,0.1186824591519615
11.652532,5.660232895562417,0.1186112300184118
11.654936,5.672989674145593,0.1184663801542056
11.657324,5.686398079034827,0.1183283509983606
11.659704,5.699294627244864,0.1181757954188998
11.6621,5.716986772880652,0.1179589998464216
11.664488000000002,5.732956357023743,0.1177564743673639
11.66688,5.745341048554581,0.1175894094444903
11.669284,5.756282717846444,0.1174183617309565
11.671672,5.766432991205389,0.117251532053724
11.674052,5.779935839751109,0.1170162847990299
11.676456000000002,5.790784961244354,0.1168080054585068
11.678844000000002,5.800563147550962,0.116619987674732
11.681224,5.810341333857569,0.1164343074469784
11.683628,5.81811741941776,0.1162820763074807
11.686016000000002,5.828826771284144,0.1160883824952267
11.688396,5.838884496844472,0.1158915163114408
11.690792000000002,5.850944323151217,0.1156664149836926
11.693180000000002,5.865006250204377,0.11541216046104
11.69556,5.882932609123512,0.1151079045600821
11.697964,5.901138507296366,0.1147867051795613
11.700348000000002,5.922417441402277,0.1144200136162525
11.702728,5.939552404388492,0.11411974376143
11.70512,5.957106676255289,0.1137961359033074
11.707504,5.976243739987922,0.1134710824791348
11.709884,5.990445436667944,0.1132156161800003
11.712292,6.007580399654161,0.1129232060027388
11.714676,6.029650729692989,0.1125639092430185
11.717056,6.053443621224515,0.1121932247144081
11.719460000000002,6.074303246449844,0.1118604251006916
11.721848,6.092741462048176,0.1115829913984857
11.724228,6.109177576900092,0.1113326500595828
11.726624,6.125893231005727,0.1110657421473
11.729012,6.13781328768561,0.1108566562979001
11.731392,6.146008682126381,0.110687773720971
11.733792,6.154623385447733,0.1104954167784701
11.73618,6.156952247276114,0.1104029241587564
11.73856,6.158489713171576,0.1103126610335332
11.740956,6.159096013507261,0.1102323211866102
11.74334,6.157839982723388,0.1101714756828023
11.745724,6.156723721566376,0.1101024865399072
11.74812,6.153884898916667,0.1100445544762118
11.750504,6.1557491258940935,0.1098927929773522
11.752884000000002,6.155751021751961,0.1097598394884464
11.75528,6.154030356117135,0.1096377388926086
11.757668,6.155382726415362,0.1094722454409483
11.760048,6.155803931153812,0.1093168239279083
11.762444000000002,6.154502574399566,0.1091720389491409
11.764832000000002,6.15348075689904,0.1090119642233967
11.767212,6.158605011264625,0.1087687088886161
11.769608000000002,6.165219509697429,0.1084862328623787
11.771996,6.174907044063288,0.1081618299187775
11.774376,6.18394295212309,0.1078306430930528
11.776772,6.1960518961159465,0.107456111118116
11.779156,6.2072296745490245,0.1070872286265833
11.781536,6.217336517795465,0.1067367829507555
11.783932,6.231866871415319,0.1063089095075289
11.78632,6.245466059475395,0.1058917667431644
11.788700000000002,6.257342686042774,0.1054834054896974
11.791112000000002,6.267496751117456,0.1050838245018091
11.793500000000002,6.277790585819,0.1046774332398818
11.79588,6.283428592721651,0.1043132486478602
11.798272,6.284643089250888,0.1040239667844889
11.80066,6.28865108245946,0.1037097989590372
11.80304,6.289865578988698,0.1034200963812528
11.805436,6.283770520666568,0.1031901201937274
11.80782,6.274462656784524,0.103009789099114
11.810200000000002,6.265015023275619,0.1028370181407259
11.812616000000002,6.255567389766713,0.1026641771884059
11.815004000000002,6.236900648458643,0.1026150219516253
11.817384,6.216092036777296,0.1025976709715205
11.819780000000002,6.196354360282585,0.1025620896680122
11.822164,6.179410180467211,0.1025002813215661
11.824544,6.164328331771392,0.1024212531794837
11.82694,6.153902310874468,0.1023015643577469
11.829328,6.142265585164041,0.1022052770111062
11.831708,6.131420255386535,0.1021081381934552
11.834104,6.122437256728582,0.1019947948844646
11.836492,6.115316589190189,0.101865241380981
11.838868000000002,6.110989418331132,0.101711802070184
11.841284000000002,6.1071741041512695,0.1015738050412864
11.843672000000002,6.1088060137032185,0.1013963942337842
11.846048,6.113510959188222,0.1011799777775847
11.848464,6.11635357355367,0.1009801410782059
11.850848,6.126925051651064,0.1007051534899819
11.853232000000002,6.1468081853462415,0.1003536969024646
11.855644000000002,6.168041793481778,0.099969446631258
11.858032,6.189927027923372,0.0995944602376575
11.860412,6.212883197551605,0.0992085336798709
11.862816,6.246129410165643,0.0986952890013939
11.865204000000002,6.281517493152959,0.0981538937318237
11.867584,6.311690669833941,0.0976802415827693
11.869988,6.337580105768369,0.0972676633089156
11.872372000000002,6.36146744095638,0.0968803250799499
11.874752,6.384563380211473,0.0964963008194146
11.877156,6.41180329058626,0.0960639527246621
11.879540000000002,6.435830395401132,0.0956750387488155
11.88192,6.45492213316339,0.0953366730602338
11.884324,6.474945036485428,0.0949931577143506
11.886708,6.493105608687908,0.0946648788160034
11.889088,6.509683389024554,0.0943361973830259
11.891492,6.526540708614919,0.0939964008278398
11.89388,6.544189424138203,0.0936600053324991
11.896264000000002,6.5594167300344886,0.0933653087938501
11.89866,6.565052841079271,0.0931534590139113
11.901044,6.567755685817858,0.0929707560668018
11.903424,6.571389696116223,0.0927814946247891
11.905820000000002,6.576513950481807,0.0925581005791272
11.908208000000002,6.580567269660754,0.0923498430483598
11.910588,6.57726381216009,0.0922293595348178
11.912992,6.573541045778846,0.0921304310307319
11.91538,6.5741020201441565,0.0919780867321273
11.91776,6.576944634509603,0.0917915248255815
11.920156000000002,6.58099795368855,0.0915851640429797
11.922544000000002,6.584120107307718,0.0913855547474589
11.924924,6.583238059434052,0.0912249547997722
11.927324,6.584637651560524,0.0910306802629493
11.929708000000002,6.588039344433413,0.0908160428510543
11.932088,6.592232433239217,0.0906037364947838
11.934488000000002,6.598939479470639,0.0903882057996983
11.936872,6.607508856821616,0.0901613189911648
11.939268000000002,6.613936363799317,0.0899614690673293
11.941672,6.619572474844099,0.0897617246017555
11.944056,6.6308428010757945,0.0894853937145728
11.946436000000002,6.649702221412577,0.0891559127825337
11.948832,6.668701411376219,0.088821513949874
11.951216,6.691565033205833,0.0884618129331479
11.953596,6.708142813542478,0.0881694464474306
11.955992000000002,6.721647557946068,0.0879073897569712
11.958376,6.739575812723071,0.087589448912063
11.960772000000002,6.755781506007379,0.0872758492254171
11.963176,6.77599140078452,0.0869325153602533
11.96556,6.796992691494578,0.0865921316650402
11.967944,6.818505838883836,0.0862694941040083
11.970336,6.839879216646232,0.0859544316572994
11.972724,6.864185860714825,0.0856186476623035
11.975104000000002,6.889423670343196,0.085279634158076
11.9775,6.919596847024178,0.0849053971659762
11.979888,6.94990979333202,0.0845284912559364
11.982264,6.978779717400887,0.0841440745925494
11.984668,7.008580807029532,0.0837583721608877
11.987056,7.039313062217955,0.0833693206314351
11.989436,7.068043216659961,0.0829973724326855
11.99184,7.093420795915192,0.0826693506887409
11.994228,7.117727439983783,0.0823561460556989
11.996608000000002,7.142965249612153,0.0820412691825719
11.999004,7.160986052187775,0.0817902220794266
12.001388000000002,7.186735718495343,0.0814908871965019
12.003768,7.21369608961641,0.0811732033090077
12.006176,7.238235051110479,0.0808921966805145
12.008564,7.265847048537604,0.0805870087688567
12.010944000000002,7.284239938165562,0.0803603308091097
12.01334,7.302772597420381,0.0801287652915431
12.015728,7.317720364062946,0.0799080462330426
12.018108000000002,7.332807900332373,0.0796815530672113
12.020512,7.345893335855382,0.0794709213207372
12.022896,7.358839001751531,0.0792676794817156
12.025276000000002,7.367128839848789,0.0790864335222234
12.02768,7.374627282013127,0.0789043173528596
12.030068,7.384779451229939,0.0787179982307764
12.032448,7.3899962533941395,0.0785632155283229
12.034844,7.39055722775945,0.0784272808394748
12.037232,7.392328906938259,0.0782751490334642
12.039616,7.392238254997512,0.0781304028849376
12.042012,7.387491775257872,0.0780047407522505
12.044396,7.37794969809248,0.0779041880923851
12.046780000000002,7.374181605740862,0.0777349949140786
12.049176,7.366037224844073,0.0775728180319584
12.051560000000002,7.360686340626619,0.0773995769384031
12.05394,7.355754765289745,0.0772079884853372
12.05634,7.346818988460037,0.07704310956683
12.058724000000002,7.341747643496304,0.0768567634313971
12.061104,7.335745132972792,0.0766742383381888
12.0635,7.331884492822557,0.0764717618650736
12.065888,7.327884083045463,0.0762754184150264
12.068268,7.322300881402531,0.076073550183948
12.070664,7.316997219013321,0.0758599171810046
12.073052,7.313276348489946,0.0756514513852313
12.075436,7.306482442033516,0.075465357119702
12.077832,7.293961772591557,0.0753059431160971
12.08022,7.283582973522875,0.0751266675076012
12.0826,7.281072807812999,0.0749014741395079
12.084996,7.27963357728976,0.0746672817478503
12.087384,7.279265281953161,0.0744228665929284
12.089768,7.283040957736255,0.0741464250435656
12.092164,7.288958503892626,0.0738499205441449
12.094552,7.29338580598178,0.0735830265591461
12.096936,7.298884043257572,0.0733071234437291
12.099332,7.30051784866739,0.073050254787247
12.10172,7.301080718890568,0.0728025558724087
12.1041,7.303785459487023,0.07253606621235
12.106496,7.309051379337339,0.072234333775428
12.10888,7.3144570688145105,0.0719270795724717
12.111264000000002,7.321864859038103,0.0716094656402137
12.11366,7.330623123702053,0.0712720522640334
12.116044,7.342035115418477,0.0709321972229064
12.118424,7.351724545642206,0.0705931206856702
12.12084,7.358620479186599,0.0702622889805861
12.123224,7.36765828310427,0.0699135306431828
12.125604,7.379908892581857,0.0695377772954187
12.12802,7.39430137243272,0.0691456512222969
12.130404000000002,7.402687550044332,0.0687894343631637
12.1328,7.406650217282531,0.0684730186104909
12.135204000000002,7.41554825157334,0.0681336287935486
12.137592,7.424026976983572,0.0678134737955653
12.139972,7.432226163140081,0.0675047478782212
12.142376,7.441356514856368,0.0671952832505066
12.144764000000002,7.449927788065215,0.0669097338832221
12.147144,7.464645133140172,0.0665880895599776
12.149540000000002,7.481364578961547,0.0662568044876934
12.151928000000002,7.499015190342699,0.0659248272084639
12.154308,7.5122422913504385,0.0656317807775724
12.156704,7.526400557917954,0.0653378644670487
12.159092,7.534552522246221,0.0650742953873516
12.161472,7.538700285081653,0.0648307646007008
12.163876000000002,7.540985716797529,0.0645917473194115
12.16626,7.543922774819462,0.0643622348565959
12.168644,7.550072638401311,0.0641094233675026
12.17104,7.557153667542939,0.0638555199727531
12.173424,7.561673517430709,0.0636338668719885
12.175808,7.566844993624536,0.0634230086744079
12.178208,7.575089505751419,0.0631951327760596
12.180592,7.588688693811495,0.0629293964732148
12.182972,7.596421349259181,0.0626875556345955
12.185376000000002,7.601500277654391,0.0624454288512995
12.18776,7.609931781236378,0.0621762382904166
12.19014,7.613707457019473,0.0619157772304353
12.192544000000002,7.616040110563591,0.0616413260041219
12.194932,7.611295526681821,0.0614017939031957
12.197312,7.606411173173191,0.0611684871327743
12.199708,7.600455884477923,0.0609426586697187
12.202096,7.598924106156069,0.0606827331905379
12.204476,7.594459061528018,0.0604327777954498
12.206880000000002,7.593067052833025,0.0601656745582993
12.209264,7.59740180712356,0.0598843803065103
12.211644,7.600945165481178,0.0595982716254503
12.21404,7.606350854958352,0.0593103799973889
12.216428,7.60961467406225,0.059036927697579
12.218808,7.611016162046591,0.0587665581103805
12.221212,7.616980930031205,0.0584579103892242
12.2236,7.621223136523123,0.0581475042627546
12.22598,7.623463242268625,0.0578454907795649
12.228384000000002,7.62370124726771,0.057552528993308
12.230772000000002,7.624870417826574,0.0572575779788763
12.233152,7.629112624318492,0.0569483227522782
12.235556,7.631073190810273,0.0566589622915996
12.237944,7.634896088421611,0.0563663843163375
12.240324,7.643514583458701,0.0560643252240135
12.242728,7.656277049615485,0.0557418078721843
12.245116,7.665314853533156,0.0554228325139697
12.247496000000002,7.6715591607714915,0.0551058955275966
12.249892,7.673519727263272,0.054814992852885
12.25228,7.679344725621028,0.0545156098896312
12.254664000000002,7.687823451031257,0.0542201277622068
12.25706,7.691506579015736,0.0539348534468021
12.259448,7.699845534799105,0.0536467765697351
12.261828,7.704320058716501,0.0533672650360186
12.264224,7.710656913753454,0.0530867295891213
12.266612000000002,7.716714229536686,0.0528167142909972
12.268992,7.721421070879559,0.0525650700887807
12.271396,7.725056977035794,0.0523194561499386
12.273784,7.731765919125084,0.0520622528335225
