Time,Force,Position
11.407132,2.870625740618166,0.1868655557004445
11.409536,3.010965297277569,0.1844398157573546
11.411924,3.154893538264964,0.1814268515790061
11.414303999999998,3.2860234664145462,0.1785101579907657
11.416708,3.3955080609794885,0.1761797558132579
11.419092,3.4924700902446024,0.1742114185745615
11.421471999999998,3.5853353702182647,0.1725612594060057
11.423868,3.6784348634752737,0.1708089640215346
11.450136,3.776125899982108,0.1703401171964869
11.452535999999998,3.794839863118422,0.1700409818911663
11.454923999999998,3.816488988418801,0.1694342870542703
11.462096,3.831198750062281,0.1692858264585592
11.464475999999998,3.851353839579703,0.1692086587103714
11.46688,3.8815666546574503,0.1687192729639856
11.469264,3.9068932203687,0.1681261339863842
11.471643999999998,3.9175553504068414,0.1677940255601873
11.47404,3.929473511228856,0.1675340014499741
11.476423999999998,3.959361461082509,0.1669348735329419
11.47882,4.004752464370432,0.1659743596392522
11.481216,4.0534034950465125,0.1647936730063832
11.4836,4.093256622661876,0.1637044873762818
11.485979999999998,4.130643014679869,0.1626121063791423
11.488384,4.162859826361903,0.1618565996457491
11.490772,4.201592901104518,0.1611094447146558
11.493151999999998,4.248706465885135,0.1601335697700598
11.495556,4.292469351336847,0.159120466748341
11.49794,4.324780606675369,0.1582718064473877
11.50032,4.343403917870935,0.1577870096216766
11.502716,4.360582310969656,0.1575079866878999
11.505104,4.383020936345084,0.1571835234009455
11.507483999999998,4.412164712094064,0.156609324406144
11.50988,4.434372915901883,0.1560508161784075
11.512263999999998,4.451460657059857,0.1555445730597981
11.51466,4.46649907564317,0.1551774261736665
11.517056,4.484096777622471,0.1548903085058972
11.519444,4.512029848557951,0.1544026216559385
11.521824,4.5429906294561135,0.1537133987788869
11.524228,4.564594428786118,0.1531442458365839
11.526612,4.576654255092863,0.1527585084374545
11.528992,4.592810830691057,0.1523251725226933
11.531396,4.617580213752734,0.1517514528229487
11.533784,4.640347496067995,0.1512298682103816
11.536164,4.661207121293326,0.1506251298781118
11.53856,4.678017219055448,0.1500128521493212
11.540948,4.687610309764821,0.1496098829988826
11.543328,4.6983196616312055,0.149291511525192
11.545732,4.71363761946824,0.1489349704094916
11.548116,4.731237217305411,0.1484948111319524
11.550496,4.7477205539855705,0.1479729056179686
11.5529,4.7596878324936975,0.1475439647334608
11.555284,4.7692337013748265,0.1472082797234798
11.557664,4.783947254734045,0.1467877997830701
11.560071999999998,4.796938246600568,0.1463987538592368
11.562456,4.803598071003744,0.1460748807866682
11.586336,4.76515022308846,0.1460272276903813
11.588732,4.762543717864228,0.1460122696158561
11.591116,4.7590532689084615,0.1459553526867917
11.593495999999998,4.759287482191808,0.1458242152800038
11.5959,4.762687279206827,0.1456641426044669
11.598284,4.7675300984608215,0.145501543856529
11.600663999999998,4.775865262528452,0.1452292140437465
11.60306,4.7821983258496665,0.1450038684718604
11.605444,4.784899274730384,0.1449004777423184
11.60784,4.790626037715915,0.1447810060940759
11.610236,4.802172111485592,0.1445904734091926
11.612624,4.817862156374963,0.1442924446056523
11.615004,4.829175912719163,0.1440680756492504
11.6174,4.843982013877,0.1437383778046143
11.619784,4.863723482087448,0.1433041434461092
11.62218,4.888120778096787,0.1427784142952416
11.624584,4.917732980412459,0.1421089683406934
11.626967999999998,4.947252634929514,0.1413869345363224
11.629348,4.97104552646104,0.1407921700515283
11.631752,4.993627713179066,0.140246433344179
11.63414,5.016581986949429,0.1397296908808322
11.63652,5.044564175571022,0.1391548718451043
11.638915999999998,5.072266824938894,0.1386071356753088
11.641303999999998,5.092380380201679,0.1382121225718665
11.64368,5.113704640277963,0.1377864368546892
11.646076,5.134889130727388,0.1373746897636117
11.64846,5.151929650057118,0.13706115425834
11.65084,5.171391579013846,0.1366732477378484
11.653244,5.195556557597708,0.1361496407246223
11.655628,5.215205478009539,0.1356978074529705
11.658008,5.231549045062839,0.1352825459037583
11.660412,5.249894712862552,0.1348327962810346
11.6628,5.265027575102353,0.1344577760266562
11.66518,5.276156235849319,0.1341688721009954
11.667583999999998,5.283420464730311,0.1339557278164895
11.669971999999998,5.289613758424665,0.1337687054508631
11.672352,5.294596347305521,0.1336169400011282
11.674744,5.299299396932655,0.1334848365387645
11.677132,5.306284086559927,0.1332919035264317
11.679512,5.309683883574946,0.1331500379695752
11.681908,5.3124320542839065,0.1330036316782283
11.684296,5.312666267567253,0.1328836261436614
11.686692,5.31331978973118,0.1327343095268877
11.689087999999998,5.314392620775688,0.1325538159885963
11.691472,5.311880559207943,0.1324239405244736
11.693852,5.30871687133414,0.1322891403595615
11.696255999999998,5.313561586446004,0.1319991758610131
11.698643999999998,5.316543970438311,0.1317387943811851
11.701024,5.316593088124425,0.1315329511818021
11.703419999999998,5.321577572863149,0.1312375965283974
11.705807999999998,5.329495323908069,0.1308921217475265
11.708184,5.334200269393072,0.1306197702840131
11.71058,5.3441201211844085,0.1302398565968358
11.712964,5.355110908162383,0.1298358785850719
11.71536,5.36503075995372,0.1294547011413689
11.717755999999998,5.377232251745194,0.1290200366314833
11.720143999999998,5.396510980962557,0.1284600872534846
11.722524,5.418071350180056,0.1278464132421571
11.724927999999998,5.437769388278,0.1272614763429205
11.727315999999998,5.4634737286151935,0.1265736223357455
11.729696,5.489178068952387,0.1258869889881367
11.732091999999998,5.513811474102943,0.1252229616884123
11.734479999999998,5.532578346641109,0.124652678380364
11.736864,5.552928011045109,0.124072890075635
11.739264,5.575000236941807,0.1234776224996088
11.741651999999998,5.596001527651866,0.1229050688959699
11.744035999999998,5.604198817950507,0.1225506754317762
11.789444,5.483868893608058,0.1222985034379522
11.791828,5.4915977573400045,0.1221847609926936
11.794207999999998,5.504261988124564,0.1219941621833521
11.796599999999998,5.5202787940959,0.1217331196737134
11.798987999999998,5.540439571186927,0.1213980558147559
11.801368,5.55724777309118,0.1211353042230009
11.803764,5.571774334995296,0.1209220471489162
11.806152,5.588954623951886,0.120681210259251
11.808543999999998,5.610418653655031,0.1203593655145913
11.81094,5.634024553731452,0.1199989749907351
11.813327999999998,5.658980928248233,0.1196071939869097
11.815704,5.688872669817625,0.1191361095931432
11.818112,5.7134097354538245,0.1187660769667518
11.820496,5.738226340343744,0.1183781612137732
11.822876,5.76187946224841,0.117961319838776
11.825271999999998,5.783670253033518,0.1175713437204417
11.827659999999998,5.809093158259122,0.1170979829596133
11.83004,5.830651631618753,0.1166848226469113
11.832444,5.852489644232104,0.1162601878231031
11.834827999999998,5.8733964912856775,0.1158486551646122
11.837208,5.893651712033193,0.1154347271619459
11.839612,5.910461809795315,0.1150542397121607
11.842,5.923407475691463,0.1147273800112946
11.84438,5.934211271214334,0.1144408662646099
11.846775999999998,5.944083901177427,0.1141674089855306
11.849163999999998,5.956657480021239,0.1138234814576786
11.851544,5.974445965171381,0.113396329757724
11.853948,5.994004233642464,0.1129134590884544
11.856331999999998,6.009837839874435,0.1124746091915943
11.858715999999998,6.025811215733266,0.1120328592585672
11.861112,6.035918058979706,0.1116664750947471
11.863495999999998,6.0492377077860615,0.1112522972179765
11.86588,6.071404377339245,0.1106859193135013
11.868284,6.096644082825485,0.1100811497297234
11.870667999999998,6.130264278349729,0.1093971158281878
11.873048,6.164024243500833,0.1087068673642887
11.875452,6.194291863838302,0.1080905522285632
11.87784,6.225909958616128,0.1074446021206207
11.880219999999998,6.252452916714484,0.1068668749878395
11.882616,6.2771335436932825,0.1063053557130033
11.885004,6.29580786843283,0.105817023286707
11.887387999999998,6.308475890933128,0.1054035985841595
11.889784,6.322354618246925,0.1049654908323645
11.892167999999998,6.333300079254526,0.1045601308090641
11.951904,6.000080857241366,0.1044072172493213
11.954308,5.99905714388297,0.1043763544461586
11.956692,6.000966696830771,0.1043119434140555
11.959072,6.010325574256797,0.1041777512188263
11.961468,6.025411214668353,0.1039833011765078
11.963852,6.037144279893134,0.1038471132457356
11.966236,6.046735474744637,0.1037440988673337
11.968632,6.0557675910887,0.1036729421062412
11.971016,6.064799707432763,0.1036012999111465
11.973412,6.076625320456161,0.1035035889764577
11.975808,6.088590703106419,0.1033996434419125
11.978196,6.101766790570175,0.1032725097073742
11.980572,6.1086570365409605,0.1032368907224167
11.982979999999998,6.117828922511884,0.1031623060055648
11.985364,6.132495254042859,0.103001781395808
11.987748,6.141806909640643,0.1029216782945939
11.990144,6.153260435611704,0.1028096823978951
11.992532,6.168997702329317,0.1026329931019831
11.994908,6.188878940166626,0.1024006356883346
11.997315999999998,6.210902048377212,0.1021384263462188
11.9997,6.229572581401022,0.1019309273905383
12.00208,6.244518452185718,0.1017570550441043
12.004483999999998,6.259743862224134,0.1015690928860407
12.006871999999998,6.273386480396715,0.1013824265970105
12.009252,6.282513040397265,0.1012278747229904
12.011651999999998,6.294712636330869,0.1010340667106801
12.014036,6.310916433757307,0.1007939641011631
12.01642,6.334616777490215,0.1004502390743241
12.018816,6.364463193089233,0.1000353951616088
12.021204,6.391655881635778,0.0996370671450525
12.023588,6.414984138316347,0.0992774941358173
12.025983999999998,6.434447963130944,0.0989562913072835
12.028368,6.458475067945815,0.0985609389090903
12.030748,6.475704474588519,0.0982343394841832
12.033151999999998,6.483063147125998,0.0980114726084001
12.035536,6.490980898170918,0.0977578683566932
12.037916,6.500668432536778,0.0974547827087009
12.040319999999998,6.514639707649191,0.0970986733264692
12.042704,6.525537946828549,0.0967791737367069
12.045084,6.5344340852614895,0.0964824041477128
12.047487999999998,6.548964438881344,0.0961017038179477
12.049875999999998,6.565496893247615,0.0957008845163512
12.052256,6.584171217987163,0.0952768985865607
12.054652,6.602193916420653,0.0948455438367429
12.057036,6.622358485227419,0.0943861022656679
12.05942,6.64080049254149,0.0939336000629906
12.061823999999998,6.660453204669059,0.0934662619691509
12.064208,6.6731684489976,0.0930701409143145
12.066588,6.678154829594193,0.0927397210584479
12.068991999999998,6.685422850190924,0.0923768093269002
12.071376,6.694832741160932,0.0919872401337761
12.07376,6.709038229556692,0.0915617086474169
12.076156,6.720962077952314,0.0911714759864748
12.078544,6.73633104933333,0.0907699647691909
12.080924,6.758357949259654,0.0903174117225954
12.083323999999998,6.78532021623859,0.0898256779947335
12.085712,6.807719203217252,0.089401283259783
12.088092,6.823832348702942,0.0890502857499793
12.090488,6.8431582997485485,0.0886630148309627
12.092876,6.862624020421014,0.0882697204569853
12.095256,6.879808101093342,0.0879124766121295
12.097652,6.895129850646114,0.0875671393970475
12.10004,6.902303427586358,0.0872988372271807
12.10242,6.914272601952355,0.0869992390297242
12.104824,6.925031071504853,0.0867186222345713
12.107212,6.93644116736341,0.0864460206671589
12.109592,6.941705191355855,0.0862325408124341
12.111988,6.945758510534801,0.0860370277588977
12.114376,6.952325787139361,0.0858384063432177
12.116772,6.954749092624227,0.0856811149661229
12.119167999999998,6.956753089228513,0.085544288676612
12.121555999999998,6.95317009247413,0.0854388809539155
12.123936,6.949726865346605,0.0853266858989081
12.126331999999998,6.946051320793604,0.0851860751137925
12.128723999999998,6.939582279561268,0.0850608919215182
12.131104,6.929109036836097,0.0849691947539561
12.133508,6.924502326723319,0.0848345797275025
12.135896,6.920175155864261,0.0846863450981886
12.138275999999998,6.913706114631925,0.0845613742333481
12.140672,6.906957534145868,0.0844495487511675
12.143059999999998,6.895133816980341,0.0843816944598876
12.14544,6.885032661307509,0.0843104642525859
12.147835999999998,6.881868973433706,0.0841849336884217
12.150223999999998,6.871488278507153,0.0841265993300607
12.152608,6.863109684327019,0.084051751560024
12.154999999999998,6.8560815645872415,0.0839521500595912
12.157388,6.854780207832994,0.0838173462821299
12.159768,6.856551887011803,0.0836549158304574
12.162167999999998,6.858603105444333,0.0834793691296343
12.164556,6.864378986115975,0.0832844651349063
12.166936,6.870434406041338,0.0830765149711678
12.169339999999998,6.880074718578954,0.0828559640531708
12.171723999999998,6.892508527795905,0.0826230962211733
12.174108,6.904662797759135,0.0824043683422064
12.176503999999998,6.921100808468919,0.0821431178138464
12.178888,6.938330215111622,0.0818849898775428
12.181283999999998,6.949041462835878,0.081659106678615
12.18368,6.96068387611991,0.08142904370153
12.186068,6.97432839015036,0.0811850387487801
12.188447999999998,6.990254544180947,0.0809144292784864
12.190852,7.011395604517866,0.0805953658180287
12.19324,7.033887139295145,0.0802556789775403
12.195615999999998,7.054656112579727,0.0799204506885411
12.198012,7.079848596237722,0.0795360737442975
12.200399999999998,7.105832475828637,0.0791568279416874
12.20278,7.131816355419551,0.0787807117064308
12.205184,7.154215342398213,0.0784164168545504
12.207572,7.176754099003735,0.0780483612500696
12.209951999999998,7.200363790795895,0.0776721055601267
12.212352,7.222390690722219,0.0772921051943274
12.21474,7.245208986581462,0.07691595746034
12.217119999999998,7.267096116880924,0.0765447229732819
12.219524,7.283256484194858,0.0762029074135173
12.221912,7.2994168515087905,0.075861912058862
12.224291999999998,7.31143324770303,0.0755563577559063
12.226696,7.320795916844795,0.0752554296239332
12.229084,7.32987904673284,0.074964608959051
12.231464,7.34082450774044,0.0746680178279251
12.233867999999998,7.348185076135789,0.0743801167352146
12.236252,7.35382308303844,0.0740945982877154
12.238632,7.361323421060649,0.0738045267082865
12.241039999999998,7.364540018336303,0.0735526032893372
12.243427999999998,7.369618946731513,0.0732952774960427
12.245808,7.374278566246143,0.0730571976666608
12.248203999999998,7.375353293148519,0.0728260441055324
12.250592,7.375217315237399,0.0726105446352113
12.252972,7.377083438072693,0.0723830627924792
12.255368,7.378670021654268,0.0721683419403005
12.257756,7.379185670049205,0.0719631106291482
12.260136,7.382355045496616,0.0717554347919181
12.262536,7.386083499451468,0.071525069723908
12.264924,7.389160327100262,0.0712857522065633
12.267304,7.395310190682111,0.0710253760047385
12.2697,7.402391219823738,0.0707629191941471
12.272088,7.411334580084923,0.0704953050848325
12.274468,7.423211206652303,0.0702137593119943
12.276868,7.4420253010187105,0.0698962636356635
12.279252,7.458045898705784,0.0695881579363055
12.281636,7.474857892325775,0.0692828402877586
12.284036,7.490179641878547,0.0690039893261885
12.286424,7.499774628445788,0.0687475208699099
12.288804,7.507507283893474,0.0684942077922253
12.291208,7.5120271337812445,0.0682670778542587
12.293596,7.514964191803178,0.0680336543783176
12.295976,7.5206947465044465,0.0677925342788439
12.298372,7.528287632325273,0.0675471801939017
12.30076,7.532016086280124,0.0673175588657751
12.303144,7.532159647622723,0.0670916261283325
12.30554,7.536959036764212,0.0668551491371309
12.307928,7.542317504413144,0.0665974309057695
12.310308,7.548048059114413,0.0663619400945629
12.312704,7.558294671987714,0.0661223662742547
12.315092,7.569612220047652,0.0658760938526169
12.317472,7.5790674369880335,0.0656346285614823
12.319868,7.588382884301555,0.0653998075351704
12.322256,7.594904834935741,0.0651715601094885
12.324635999999998,7.596631188144176,0.0649603504813496
12.327036,7.604363843591861,0.0647220979462658
12.329424,7.613307203853044,0.0644710661486782
12.331803999999998,7.625603139301004,0.0641928978472414
12.3342,7.642694672174716,0.0639002080002186
12.336588,7.668074147287817,0.063560663988
12.338971999999998,7.694804096841276,0.0632028985897246
12.341368,7.72339637751429,0.0628431147773167
12.343756,7.7494747007616915,0.0624785867845921
12.346139999999998,7.772899296956617,0.0621149149942828
12.348536,7.7991173898308785,0.061745621856697
12.350924,7.827197813824696,0.0613719626594344
12.353303999999998,7.845826812593871,0.0610212720095303
12.355708,7.862825797668966,0.0607024909281954
12.358096,7.873306623825613,0.0603938996211526
12.360475999999998,7.881133722929784,0.0600870027328094
12.362876,7.887889886847318,0.0597881897238971
12.365264,7.897439547444184,0.0594858182130502
12.367644,7.9034043154288,0.0591833159162058
12.370048,7.908018608973056,0.0588971011293188
12.372432,7.918359665502843,0.0585989891666248
12.374816,7.919621383860323,0.0583410730072189
12.377212,7.920463793337222,0.0580996831157783
12.3796,7.917953627627346,0.0578842004898332
12.38198,7.912510195611276,0.0576781595862525
12.384376,7.900641152475373,0.0575118707275276
12.38676,7.8934279371383615,0.0573405022503044
12.389139999999998,7.884072851428074,0.0571818988596591
12.391544,7.880025219822738,0.0570276156973026
12.393932,7.874255026724701,0.0568694167007336
12.396311999999998,7.870486934373083,0.0567042238426595
12.398708,7.870303734633719,0.0565407410496776
12.401096,7.877197772320244,0.0563490687172293
12.403492,7.882229478887212,0.0561594460582657
12.405888,7.895921214745904,0.0559510029727777
12.408276,7.908681785044819,0.0557444656979381
12.410652,7.923025147209569,0.0555476602329221
12.413056,7.935506178254763,0.0553535094492339
12.415444,7.951711871539071,0.0551561059358885
12.417824,7.975506658928465,0.0549477018079012
12.420227999999998,7.992783287399411,0.0547465495224296
12.422612,8.012993182176551,0.0545368036636635
12.424996,8.035996573633028,0.0543259316548781
12.427395999999998,8.058488108410307,0.0540999631725094
12.429783999999998,8.082702204680281,0.0538783043348766
12.432164,8.112782833562646,0.0536429996775495
12.434559999999998,8.136205533899702,0.0534195854031433
12.436948,8.160419630169677,0.0532005730497315
12.439328,8.178767193827262,0.052996631318798
12.441724,8.200699650097098,0.0527956202954431
12.444108,8.221421401553437,0.0526068573799677
12.446488,8.239489425957302,0.052415876727598
12.448884,8.253925335920671,0.0522577821235589
12.451272,8.269152641816957,0.0521041621669898
12.453651999999998,8.276511314354435,0.0519702331143269
12.456056,8.281728116518638,0.0518473994826575
12.458444,8.284011652376646,0.0517312772890308
12.460828,8.285364022674873,0.0516156162950436
12.463228,8.28685616259996,0.0514953112987781
12.465616,8.2830408484201,0.0513680327656677
12.467996,8.277875059799879,0.0512555474759217
12.470392,8.27270927117966,0.0511427858151677
