Time,Force,Position
10.537164,3.665648856663695,0.1781988495262807
10.539552,3.6932532706593424,0.177842593348711
10.541936,3.735199150961872,0.1768654865731981
10.544332,3.7751448263758527,0.1757705107092249
10.54672,3.809643278058025,0.1748600124658896
10.5491,3.8501461361215776,0.1739701098657622
10.551496,3.9022403939251817,0.172916932231035
10.553884,3.968209587326844,0.1713619440126628
10.556264,4.035111842146153,0.1695577650618321
10.55866,4.094147359464526,0.1678790317143849
10.561048,4.140239106744618,0.1666766612093636
10.563428,4.192102942980614,0.1654384233631688
10.565824,4.2560247096654855,0.1639759162072215
10.568212,4.326000000417851,0.1622764580622784
10.570596,4.387829014415558,0.1606781620407748
10.572992,4.4374603283375285,0.1593732477077316
10.57538,4.48504231968484,0.1582167363496407
10.57776,4.545985494093142,0.1568438420201833
10.58016,4.61409845372595,0.1553070765010708
10.582548,4.678161885895552,0.1537710212332222
10.584928,4.7322167101909365,0.15234676213795
10.587328,4.7712331159030095,0.1513567592165539
10.589716,4.800191796054754,0.1507372982562944
10.592096,4.830546276617233,0.1501854668134658
10.594496,4.861599605314012,0.1495764042984645
10.596884,4.882085247629135,0.1491116707536579
10.599264,4.894796700241937,0.1487337740828121
10.601668,4.9000116065482695,0.1485857043117444
10.604056,4.910207205877588,0.1484286189321149
10.606436,4.92249745375194,0.1482719883207875
10.608832,4.938327268268171,0.1479339925490846
10.61122,4.951178490507833,0.1475635023795062
10.6136,4.9509933949106,0.1474670168067011
10.616,4.949178285619287,0.1474453745173359
10.618388,4.954672731179339,0.1472898014965575
10.620768,4.963799291179889,0.1470115885094008
10.623167999999998,4.968876323717231,0.1467208351745519
10.625552,4.962686821738615,0.1466040659807925
10.627928,4.954634988640443,0.14652255693193
10.630324,4.950540135206861,0.1464061002320291
10.632708,4.952544131811147,0.1461969315074083
10.635088,4.956969538042431,0.1459065111849694
10.637484,4.963723806102093,0.1454875196571995
10.639872,4.968243655989865,0.1450815436217535
10.642252,4.973275362556833,0.1446921947825781
10.644668,4.986408019908085,0.1441623950658165
10.647052,4.998329972445838,0.1436678555236161
10.649436,5.011230312371612,0.1430930604761838
10.651832,5.017380175953461,0.1426131769900487
10.654216,5.020876312482836,0.1421773524137744
10.656612,5.02167150013149,0.1418404924833815
10.659007999999998,5.018834573339651,0.1416221687392374
10.661395999999998,5.0182792865479495,0.1413318334605307
10.668568,4.982997022364336,0.1412362286589154
10.670948,4.977971003370976,0.1411336186769079
10.673352,4.974947085124033,0.1409838158361485
10.67574,4.968617813518558,0.1408721627437761
10.678119999999998,4.961636915607024,0.1407560069368143
10.680516,4.953864621762573,0.1406460146575141
10.682904,4.9458127886644005,0.1405573410711752
10.685284,4.937481416312508,0.1404894309698843
10.687688,4.930220979147254,0.1403929455495687
10.690072,4.921749837168501,0.1403349976098845
10.692452,4.911416364070192,0.1403091349837889
10.694848,4.906390345076833,0.1402040640253587
10.697235999999998,4.903878283509087,0.1400703390892524
10.699616,4.899736208247263,0.1400062055081238
10.70202,4.8945231977988,0.1399698578766097
10.704408,4.893686475895508,0.1398698178338274
10.706788,4.897365812164248,0.1396943513103228
10.709192,4.907423537724574,0.1394126231854087
10.71158,4.9244187310839305,0.1389758715888185
10.713959999999998,4.940622528510368,0.1385463622624811
10.716356,4.959107965936944,0.1380537166169267
10.718744,4.972518266684046,0.1376852327530052
10.72112,4.987231820043265,0.1373268699763105
10.723524,5.003248626014602,0.1369763751012888
10.725912,5.015773087172301,0.1367277356080404
10.728288,5.028157778703139,0.1364907585224051
10.730696,5.046129463592648,0.1361597838423557
10.73308,5.065683940347991,0.1358207235708167
10.735459999999998,5.086169582663114,0.1354714091581895
10.737864,5.106794994605097,0.1351111669432416
10.740252,5.126721558412779,0.1348048605748741
10.742632,5.146927661474182,0.134485981487422
10.745036,5.169275634908862,0.1341256752047227
10.747424,5.202193190583067,0.1335337270057096
10.749804,5.2411170484965215,0.132829563400101
10.7522,5.282741855290697,0.1320529495037571
10.754588,5.322783870219033,0.1312904383221095
10.756968,5.354305625482505,0.1306692814162415
10.759372,5.38410481925328,0.1300738527260531
10.76176,5.411110516344721,0.1295153837990022
10.76414,5.438767839742219,0.1289717867442708
10.766544,5.464283292766439,0.1284708671903291
10.768928,5.489426658738325,0.127947998110958
10.771312,5.51405816803101,0.1274091508134631
10.773708,5.541111086950695,0.1267991759180997
10.776092,5.570817732922854,0.1261629980643976
10.778476,5.594006219976563,0.1256295839218967
10.780872,5.617474246283994,0.125084217448306
10.78326,5.638148775912089,0.1245824519768353
10.78564,5.660825406286602,0.1240480537274822
10.788036,5.6831299496087775,0.1234897982195443
10.79042,5.698497025131925,0.123051181852841
10.792799999999998,5.707206172109761,0.1227160602483616
10.795196,5.707627376848212,0.1225429821893333
10.799964,5.692685297779254,0.1225029072554282
10.802359999999998,5.683887394718537,0.1224958525887622
10.804747999999998,5.6820269594568495,0.1223764872574398
10.807144,5.679886984941443,0.1222750979736394
10.809544,5.68082004635909,0.1221187723893681
10.811932,5.677376819231567,0.12200525667724
10.814312,5.6787764113580375,0.121771659615276
10.816708,5.677894363484372,0.1215885953090251
10.819096,5.676732776356985,0.1214231025329016
10.821476,5.6757109588564605,0.1212486530819535
10.823872,5.672966579863237,0.1210900513906372
10.82626,5.6711533664297935,0.1209188940026756
10.828639999999998,5.664684325197457,0.1208070824457974
10.831036,5.656864809524762,0.1207341883231901
10.833424,5.645320631612953,0.1207089798543031
10.835804,5.634987158514644,0.1206529940440282
10.8382,5.628797656536028,0.1205221601324206
10.840588,5.624051176796389,0.120394032634533
10.842972,5.617302596310332,0.120299370463843
10.845368,5.612044259891495,0.1201551685202544
10.847751999999998,5.601850556420046,0.1200921256794896
10.852544,5.580065453208546,0.1200562379410721
10.854932,5.570895463095493,0.1200216459883411
10.862096,5.548458733577934,0.1199737883555522
10.86448,5.544269436487866,0.1199542736788582
10.866884,5.5419424705173554,0.1199111261990366
10.869268,5.542409001226179,0.1198330540834807
10.871652,5.540873431188586,0.1197871976169552
10.874048,5.542131357830327,0.119706743409444
10.876432,5.547486033763519,0.1196040670676684
10.878816,5.557776076749326,0.119426047435754
10.88122,5.573653113093799,0.1191807319867939
10.883608,5.587900135744195,0.1189922584784067
10.885988,5.606663216566621,0.1187604435429882
10.888384,5.627568167762325,0.1184886858772138
10.890772,5.654339651570419,0.1181321260257501
10.893152,5.6874895246701,0.1177141313450405
10.895548,5.727297326315089,0.1172077720989496
10.897936,5.768595372027299,0.1166617408193656
10.90032,5.807891316993092,0.1161471126564946
10.902716,5.845324930839329,0.1156616511555625
10.905104,5.880896213566008,0.1152017613211521
10.90748,5.9215426329721605,0.1146681572324806
10.90988,5.957812763833141,0.1141676649685014
10.912268,5.994082894694122,0.1136741544394987
10.914664,6.03249489592838,0.1131500623312811
10.91706,6.067833861229583,0.1126789064023418
10.919448,6.1051749272772025,0.1121796933728683
10.921828,6.141445058138183,0.1117036322228921
10.924228,6.177482871573685,0.1112008752983992
10.926616,6.209796022770076,0.1107413849285099
10.928996,6.237453346167574,0.1103350877148466
10.931392,6.264738582512734,0.1099048406657614
10.93378,6.28336378956617,0.1095789354819909
10.936164,6.3050620325526605,0.1092137586100656
10.93856,6.324246318113536,0.108864624700484
10.940948,6.336121048823047,0.1085849121659431
10.943328,6.348554858039998,0.1082782803210364
10.945728,6.360709128003228,0.1079905043438696
10.948112,6.377007369086153,0.1076466869076996
10.950492,6.390512113489742,0.1073287293793854
10.952888,6.404948023453111,0.1070032577078693
10.955276,6.415007644871308,0.1067083072642418
10.957672,6.431213338155615,0.1063330719654934
10.960067999999998,6.446767405133866,0.1059543305006207
10.962456,6.45966774505964,0.1055961005724139
10.964836,6.473918559425774,0.1052086263480748
10.967232,6.488448913045628,0.1048086718969109
10.96962,6.502467409986284,0.1043958548449212
10.972004,6.517417072486719,0.1039789500092376
10.9744,6.53450860536043,0.1035327841108106
10.976788,6.550808742301224,0.1030853780667768
10.979168,6.569110979988435,0.1026164900520443
10.981564,6.592628123981978,0.1020768869897603
10.983952,6.611209900922909,0.1015950937780221
10.986336,6.630443304169898,0.1011225086431807
10.988732,6.652470204096222,0.1006275298635024
10.99112,6.668630571410155,0.1001943538244637
10.9935,6.681206046111836,0.0997845175909648
10.995896,6.690708484880461,0.0994142636354034
10.998284,6.702213024395502,0.0990213413217593
11.000664,6.713997103164264,0.0986161277673533
11.003064,6.7280156001049205,0.09821973074541
11.005452,6.734817089992827,0.097909639411324
11.007836,6.739476709507456,0.0976287431441074
11.010228,6.740923523462172,0.0973899429544782
11.012612,6.74050800629733,0.0971656725798648
11.014992,6.738090388386071,0.0969628226738048
11.055632,6.436848077197993,0.0968344689430265
11.058008,6.420880388912771,0.0968341688329774
11.062788,6.396998741298367,0.0968286511381785
11.065167999999998,6.3919255004767646,0.0967594088612245
11.06758,6.3924392530138325,0.0966487873504004
11.069964,6.396026041483954,0.0965027783176454
11.072348,6.402918183312609,0.0963526915542376
11.074748,6.408599620327765,0.0962243294112355
11.077136,6.412930582902563,0.0961248297390685
11.079516,6.4171217758505,0.0960324075294788
11.081919999999998,6.421964595104495,0.0959474286638961
11.084304,6.4323018599185415,0.0957862094666265
11.086684,6.448924966225561,0.0955490574489822
11.089088,6.469831813279134,0.095256873510296
11.091472,6.495534257758459,0.0949260213967992
11.093852,6.5204453063048655,0.0945962836992232
11.096256,6.549220786717245,0.0942319332084759
11.098643999999998,6.587727231607988,0.0937834810246739
11.101024,6.620367143886342,0.0933921649645619
11.103428,6.654217760978193,0.0929818767762084
11.105811999999998,6.685274881390711,0.0925949741117454
11.108192,6.706880576578585,0.0922763494663665
11.110596,6.729836746206817,0.091929658728532
11.11298,6.7439931169164655,0.0916612600962265
11.11536,6.755635530200498,0.0913982983760107
11.117755999999998,6.769280044230948,0.0911188493583134
11.12014,6.776406399342949,0.0908825812311742
11.122535999999998,6.783812293708673,0.090632505640988
11.12494,6.790706331395197,0.0903673662688784
11.127324,6.800673405014776,0.0900711701318511
11.129703999999998,6.811851183447854,0.0897547830898273
11.132108,6.816743120387962,0.0895099041103254
11.134492,6.819772726208512,0.089278750254762
11.136872,6.822942101655924,0.0890426433131004
11.139268,6.819453548558026,0.088852771810032
11.141652,6.815964995460129,0.0886629154915294
11.144032,6.811824816056173,0.0884651593631501
11.146436,6.80023531217399,0.0883116358201631
11.148824,6.792650009784642,0.088122755342865
11.1512,6.785344246649014,0.0879205822824518
11.153604,6.77589661314011,0.0877419869969299
11.155992,6.777670188176788,0.0874579284566408
11.158368,6.782656568773381,0.0871400500164805
11.160776,6.794580417169003,0.086764774542751
11.16316,6.807714970378124,0.0863714948296304
11.165539999999998,6.818987192467689,0.085991980001248
11.167936,6.834682924930668,0.0855588919440161
11.170324,6.850378657393646,0.0851267592748504
11.1727,6.867796951349321,0.0846926428294772
11.175095999999998,6.884004540491498,0.0842796935302383
11.17748,6.904216331126508,0.0838387863474406
11.17986,6.929223719187271,0.083367171036666
11.182276,6.953020402434534,0.0829154458032193
11.18466,6.970391474561968,0.0825302784675601
11.18704,6.992558144115152,0.082113901839721
11.189444,7.014445274414615,0.0817112551212253
11.191832,7.038054966206775,0.0813087276486005
11.194211999999998,7.0609658098646335,0.0809366055214751
11.196608,7.080943387216296,0.0805868696554843
11.198992,7.098499554940964,0.0802733861207339
11.201372,7.119268528225545,0.079926878001235
11.203776,7.1354742215098526,0.0796418249328098
11.206164,7.146976865167026,0.079420705141012
11.208543999999998,7.159270904757117,0.0792042704800509
11.210948,7.171005865839767,0.0790139174699032
11.213336,7.183392453228476,0.0788336254274858
11.215716,7.195080192482882,0.078686162281034
11.21812,7.207559327670207,0.0785416243520372
11.220504,7.221761024350228,0.0783968725809494
11.222888,7.237033656216887,0.078243260682124
11.225288,7.246951612150354,0.0781409655786938
11.227676,7.255286776217986,0.0780346931392676
11.230056,7.263621940285616,0.0779286009989928
11.232452,7.276892471405858,0.0777904387689949
11.23484,7.290163002526103,0.0776533169656693
11.23722,7.302781907340288,0.0775076681124356
11.239627999999998,7.311256841034779,0.0773955247168194
11.242012,7.323084349916046,0.0772473457088271
11.244392,7.339427916969345,0.0770879629223713
11.246788,7.3588445199556975,0.0769059628467272
11.249176,7.379983684434747,0.0767251174286025
11.251556,7.396467021114906,0.076561366601481
11.253952,7.413229897048785,0.076384471561058
11.256336,7.429201377049746,0.0762074572614347
11.25872,7.448385662610622,0.0760031911576805
11.261116,7.462634581118888,0.0758282671891475
11.263504,7.474369542201536,0.0756518067269947
11.26588,7.485452876978129,0.0754675596739263
11.268275999999998,7.491088988022911,0.0752983205104185
11.27066,7.491929501641943,0.0751522008278508
11.273036,7.494260259328192,0.0749784756090864
11.275432,7.495380312200941,0.0748201525381623
11.277816,7.498502465820109,0.0746496614417453
11.280195999999998,7.503254633133356,0.0744470516733565
11.282607999999998,7.506144469327048,0.0742512488019489
11.284996,7.511967571826934,0.0740404529329766
11.287376,7.523285119886873,0.0737789421696698
11.289788,7.5327403368272545,0.0735242611859763
11.292176,7.536748330035827,0.0732833484389259
11.294555999999998,7.538754222497983,0.0730552596990714
11.296948,7.536104287161247,0.0728427597350001
11.299335999999998,7.539460654063761,0.0725942160967531
11.301716,7.548591005780049,0.0722860386084513
11.304128,7.554788091190142,0.071993353839486
11.306516,7.558051910294039,0.0717165383357453
11.308896,7.562805973465155,0.0714120947551678
11.3113,7.571424468502244,0.0710910976902516
11.313684,7.578040862792917,0.0707812323749951
11.316064,7.587310984136065,0.0704679392780938
11.318468,7.600585306972046,0.0701316180420646
11.320852,7.612928464248249,0.0697985506902371
11.323236,7.62634255671109,0.0694569702376843
11.325632,7.639105022867874,0.0691088747044989
11.328016,7.649725618651382,0.0687796364523372
11.330396,7.663139711114224,0.0684437742896748
11.3328,7.671758206151314,0.0681265308010139
11.335188,7.677163895628488,0.0678357349724636
11.337564,7.685502851411858,0.0675329315783221
11.339972,7.694772972755007,0.0672270352583369
11.342356,7.702460302232318,0.0669141819861969
11.344732,7.714012063575603,0.0665869099623125
11.347136,7.7227703282395535,0.0662677728618482
11.34952,7.724683672903091,0.0660142475652033
11.3519,7.728459348686187,0.0657566016293424
11.354296,7.7334457292827805,0.0654863821793317
11.35668,7.738152570625652,0.0652263884209947
11.359076,7.741928246408746,0.0649699237476184
11.361472,7.746495318124761,0.0647162659305129
11.36386,7.752273094654272,0.0644500345835446
11.36624,7.758982036743562,0.064183368374247
11.368643999999998,7.765271669952271,0.0639330093680012
11.371028,7.774634339094036,0.0636673510796887
11.373408,7.781715368235663,0.0634225714112125
11.375804,7.789448023683349,0.0631876503190584
11.378192,7.795318348011476,0.0629573111048856
11.380572,7.807706831258055,0.06271518118828
11.382968,7.819164148944853,0.0624750054587915
11.385356,7.827967739579177,0.0622356393604809
11.387752,7.838773430959918,0.0619880204531724
11.390147999999998,7.852372619019994,0.061735906632812
11.392535999999998,7.863038540773874,0.061495007231548
11.394916,7.873424923274034,0.0612648099751903
11.397312,7.884230614654776,0.061017199364203
11.399696,7.892103039729323,0.0607797700964343
11.402076,7.898764759990369,0.060555598410535
11.404476,7.911432782490667,0.0603073109870041
11.40686,7.922890100177464,0.0600721040970015
11.40924,7.937560223424179,0.059817407958188
11.41164,7.950228245924476,0.059571570690452
11.414024,7.957029735812384,0.0593445355385835
11.416424,7.96532146976751,0.059094739022599
11.418824,7.968677836670024,0.0588630175541593
11.421212,7.973384678012897,0.0586140207451417
11.423592,7.976508727489934,0.058357107068269
11.425983999999998,7.978841381034052,0.0580960814423179
11.428368,7.976797746033,0.0578315054298629
11.430748,7.975685276591726,0.0575656234732987
11.433151999999998,7.976155599016288,0.0573083863934117
11.435536,7.976625921440851,0.0570520388545832
11.437916,7.976165078305635,0.0567972870208314
11.440319999999998,7.9757042351704195,0.0565421089079647
11.442704,7.978456197595119,0.056268824751393
11.445084,7.9852123615126525,0.0559817733333814
11.447487999999998,7.993179230243684,0.0556826713402446
11.449875999999998,7.999283767855159,0.0553850424481691
11.452256,7.999661542481107,0.0550989906569015
11.45466,7.999108151547273,0.0548135308607019
11.457043999999998,7.9974838254268015,0.0545353515433012
11.459424,7.998932535239385,0.0542451577712947
11.46182,8.004245676917941,0.053945694409197
11.464204,8.011281380089196,0.05365135134389
11.466584,8.021110579939785,0.0533550687094781
11.468991999999998,8.028518370163376,0.0530805430684134
11.471376,8.035786390760105,0.0528110309556834
11.473756,8.045987677663032,0.0525356271945531
11.476159999999998,8.054698720498738,0.0522809510206129
11.478547999999998,8.062478597774666,0.0520268973537768
11.480924,8.06839614393104,0.0517742134865751
11.483327999999998,8.074313690087411,0.0515226113706977
11.485715999999998,8.082093567363339,0.0512712431077653
11.488096,8.090804610199045,0.05101955482172
11.4905,8.09537168191506,0.0507851621483447
11.492883999999998,8.096865717698018,0.0505626283232432
11.495264,8.098080214227254,0.0503499714175649
11.497668,8.09901517150277,0.0501466578744588
11.500056,8.102603855830763,0.0499476332429327
11.502436,8.108613949785752,0.0497280613551988
11.50484,8.111411238180827,0.049524428120812
