Time,Force,Position
12.450756,2.1600552384077587,0.1813520485066235
12.453144,2.2547809536431083,0.1786694466931432
12.455524,2.342106462086344,0.1760444532395971
12.457916,2.421891994110605,0.1737506415010192
12.460299999999998,2.493298931954731,0.1718641050355406
12.462679999999995,2.556419823417338,0.1704190109388304
12.465071999999996,2.6187039929766525,0.168853815276947
12.467456,2.680058892834058,0.1671232866520528
12.469836,2.735316838511466,0.1653929337416541
12.472252,2.7753059440379526,0.1641663100984795
12.474636,2.8024929450108886,0.163404335680908
12.477015999999995,2.8200434251619475,0.162957652093531
12.479411999999998,2.835639026394832,0.1625325840472461
12.481799999999998,2.848767892030345,0.162103976871436
12.484191999999998,2.8564967557622927,0.1617859175230092
12.486588,2.863201906135844,0.1614267282155575
12.488972,2.866135172442039,0.1613070820502214
12.491351999999996,2.8747479799055218,0.1610588356012657
12.493756,2.893883147780286,0.1604089315255055
12.496144,2.922097653827356,0.159348659731081
12.498523999999998,2.950499151329529,0.1581914430683255
12.500924,2.97545552584631,0.1571448068547992
12.503312,3.004648419281401,0.1559997466305615
12.505691999999998,3.031280133462635,0.1550081361339187
12.508092,3.055909746897452,0.1540885721788481
12.558271999999995,3.0702946433168385,0.1534778435653236
12.560656,3.0768581282056604,0.1534357570979164
12.563036,3.089847224214314,0.1531111778931238
12.565432,3.1040470250364662,0.1527293749746255
12.56782,3.1169435732465027,0.1523421181892544
12.570199999999998,3.125835919963704,0.1521046242856174
12.572596,3.1384529289200205,0.1517573255544713
12.574984,3.152420412316695,0.1513292917912256
12.57738,3.1678781397805893,0.1507998214311442
12.579783999999998,3.17947143537851,0.150406672658255
12.582171999999998,3.196000098029042,0.1498371665881115
12.584552,3.218255523665105,0.1490680881277495
12.586956,3.236878834860672,0.1484925110068997
12.589344,3.25471075012332,0.1479088029728962
12.591723999999996,3.2704007950126908,0.1474175838058088
12.594128,3.287301544715561,0.1468624222480782
12.629968,3.3226329265852854,0.1464878618251972
12.632356,3.325798510316958,0.1464506980970103
12.634735999999998,3.333806913302626,0.1461943559428697
12.637132,3.347681848900684,0.1457606273222532
12.63952,3.364629820431797,0.1452232855326047
12.641899999999998,3.3805068567762717,0.1447273380873498
12.644296,3.3921001523741925,0.1443934446309691
12.646684,3.4106309157711414,0.1438465967664683
12.649063999999996,3.43595937734026,0.1431106610216136
12.651459999999998,3.467014601894908,0.1422013546954177
12.653847999999998,3.503144963129028,0.141130077583402
12.656227999999995,3.539135554736288,0.1400864184368528
12.658623999999998,3.58127221820966,0.1388307896233799
12.661011999999998,3.618054205749838,0.1377628259527055
12.663388,3.652182466237541,0.1367566045724009
12.665796,3.683237690792189,0.1358705884900386
12.668179999999998,3.7161552464663936,0.1349458677610568
12.67056,3.74772232770024,0.1341006044187712
12.672964,3.775145437814391,0.1333911899221019
12.675351999999998,3.799635281622348,0.1327703798185349
12.677731999999995,3.826127226176722,0.1320969658732396
12.680136,3.844610767745428,0.1316690100374481
12.682524,3.8583912596869983,0.1314351981622862
12.684903999999998,3.871380355695652,0.1312170968852433
12.6873,3.882646890211609,0.1310298591844897
12.689688,3.895263899167925,0.1307818806464656
12.692067999999995,3.911233483311017,0.1304179465010511
12.694472,3.9254805059614126,0.1300926977624113
12.69686,3.9361426359995546,0.1298417898973585
12.699243999999998,3.945361743798721,0.1295919577850639
12.70164,3.948434779731776,0.1295087206305975
12.706407999999998,3.949785254172135,0.1294504174914685
12.708804,3.9515550374930735,0.1293521896336959
12.71836,3.9436882999921368,0.1293407635463948
12.720739999999996,3.943083895514322,0.1292595112986418
12.725532,3.936288093200023,0.1292143211831004
12.727911999999998,3.9368943935357055,0.1290859764752695
12.74704,3.9073823224501294,0.1290378466763352
12.74942,3.9031930253600606,0.1290186559841707
12.751816,3.902076764203048,0.1289177173934297
12.754204,3.908037740471925,0.12864087774119
12.756588,3.913207320807884,0.1283690067981037
12.75898,3.923312268196454,0.1279869501094581
12.761372,3.939703057077996,0.1274401321622954
12.763751999999998,3.960517356332952,0.1267558709589921
12.766148,3.976815597415876,0.1261470613754876
12.768536,3.9931138384988,0.125545294082835
12.770915999999998,4.013276511447698,0.1248625505430076
12.773316,4.036092911449071,0.124138855533164
12.7757,4.055184649211331,0.1234907656267974
12.778079999999996,4.070691494361337,0.1228990396255488
12.78048,4.088991836190678,0.1222479064687635
12.782863999999998,4.106221242833381,0.1216354464111534
12.785243999999995,4.123310879849224,0.1210362721919036
12.787648,4.146546588731177,0.1202848129496144
12.790036,4.169922067239991,0.1195217530656918
12.792415999999998,4.190736366494948,0.118845001259533
12.794816,4.211271126496182,0.1182000852166928
12.797204,4.230036103176477,0.1176514631163423
12.799583999999998,4.241863612057745,0.1172603261967274
12.801988,4.244472013139846,0.1170948331842769
12.81154,4.238654598213568,0.1169429328818572
12.816324,4.239585763773347,0.1169275219784475
12.823492,4.241959951572101,0.116918480562255
12.82588,4.245265304930633,0.1168944366161693
12.828259999999998,4.251923233475941,0.1167805699800764
12.830663999999995,4.2565790612748335,0.1167077370207034
12.837831999999995,4.264772559857734,0.1166558146325853
12.840216,4.272641193216542,0.1165067784976754
12.8426,4.27929912176185,0.1163952003219393
12.844996,4.289030086240214,0.1162190728395802
12.84738,4.30355664814433,0.1159589697032074
12.849764,4.326231382660972,0.1155271738942652
12.85216,4.34583308124456,0.1151628924127117
12.854548,4.369578750947842,0.1147077081736433
12.856927999999998,4.395466291024402,0.1142047241067587
12.859332,4.422005457407018,0.1137161377824124
12.861716,4.441467386363747,0.113370910596527
12.864095999999998,4.46279164644003,0.113000705889459
12.8665,4.481974036143036,0.1126868469327523
12.868888,4.5012961954729045,0.1123649069915243
12.871268,4.523970929989549,0.1119598793556822
12.873664,4.546505894879331,0.1115695362701428
12.876052,4.566619450142117,0.1112557144437324
12.878431999999998,4.589666271711098,0.1108942220030766
12.880828,4.612061466974021,0.1105252520598005
12.883212,4.638321094102916,0.1100980224356262
12.885591999999995,4.665511886791591,0.1096596922133999
12.887987999999998,4.689070565039771,0.1093291245360108
12.890375999999998,4.715050652914947,0.1089339372328087
12.892767999999998,4.739168409670566,0.1085689003088826
12.895171999999995,4.763286166426184,0.1082091738499127
12.89756,4.783259952062109,0.1079341600806165
12.89994,4.80644654325795,0.1075950122758211
12.902343999999998,4.828422429640293,0.1072924897168702
12.904731999999996,4.845462948970022,0.1070665921156043
12.907116,4.857056244567943,0.1068976113582322
12.909511999999998,4.872141884979499,0.1066397561868122
12.911899999999996,4.883363093525081,0.1064387506638841
12.91428,4.893513366884027,0.1062601165163689
12.916675999999995,4.905525971362528,0.1060614304491901
12.919063999999995,4.915536475094612,0.105897771067757
12.921448,4.926617914013336,0.1057147695536229
12.923843999999995,4.938910057745557,0.1055025227847225
12.926231999999995,4.948129165544723,0.1053438899396809
12.928612,4.958279438903667,0.1051753217747763
12.931011999999996,4.968569481889471,0.1050009048973263
12.933396,4.978068128942358,0.1048280474033437
12.935776,4.989057020062464,0.1046062110594216
12.938176,4.999114745622792,0.1043976820491109
12.940564,5.007869218571004,0.1041720144630199
12.942944,5.01518066928024,0.1039396130755602
12.94534,5.021281415175976,0.1037356146316568
12.947728,5.027242391444853,0.1035436182195143
12.950107999999998,5.033343137340589,0.1033432423746723
12.952511999999995,5.045589955102438,0.103046420319934
12.954896,5.065705406223092,0.102643810172633
12.957275999999998,5.088614354023082,0.1022175196006248
12.959672,5.116877977756264,0.1016993254184828
12.96206,5.144769514437109,0.1011530410384243
12.964439999999998,5.168005223319062,0.1006570753208358
12.966831999999998,5.194174198507212,0.1001293931296515
12.969215999999998,5.218620612202663,0.0996155486150814
12.971596,5.239342363659002,0.0991394918565769
12.974012,5.2614145895557005,0.0986258992917366
12.976396,5.28162448433284,0.0981316262579052
12.978775999999998,5.293965745751175,0.0977362606584379
12.98118,5.30523607198287,0.0973586723837917
12.983568,5.314224758214428,0.0970272986988165
12.985943999999998,5.321211343699569,0.0967239784666593
12.988348,5.3274990810504095,0.0964661056627104
12.990732,5.331644948027974,0.0962443837650681
12.993111999999998,5.336489663139838,0.0959754403269686
12.995516,5.340403212691924,0.0957174589690221
12.997904,5.342733970378173,0.0954593782239779
13.021792,5.20163317689327,0.0953050580530555
13.024195999999998,5.190413864205556,0.0953021615911941
13.026583999999998,5.184129918570456,0.0952411290491234
13.02896,5.178916908121992,0.0951627859319663
13.031355999999995,5.17398343692725,0.0950662533064411
13.033743999999997,5.170912296852064,0.0949531438184546
13.036124,5.168120696030599,0.0948216004335838
13.038527999999998,5.169984923008025,0.0946491006308395
13.040911999999995,5.174223337784205,0.0944797489122821
13.043292,5.176599421440828,0.0943268492369594
13.045695999999998,5.176274556216734,0.0942435549982613
13.048083999999998,5.176880856552417,0.0941515186299409
13.050464,5.176136682447742,0.0940950671000187
13.052859999999995,5.17911717058218,0.0940047600078401
13.055244,5.185030925022814,0.0938795392289159
13.057624,5.195740276889199,0.0937044267399728
13.060031999999998,5.204028219128587,0.0935826572430534
13.062415999999995,5.211896852487395,0.0934875727010356
13.091091999999998,5.229726871892173,0.093478757257359
13.093475999999995,5.233870843011868,0.0934202293045013
13.09588,5.242158785251256,0.0933043254470985
13.098264,5.253007906744501,0.0931284407418983
13.100643999999996,5.265067733051246,0.092929023177978
13.103048,5.279548968984988,0.0926825857165621
13.105436,5.289653916373557,0.0924586619676356
13.107815999999998,5.303530747829483,0.0921533827074466
13.11022,5.321179463352767,0.0917675263070691
13.112604,5.337105617383354,0.091385414343812
13.114983999999998,5.348795252495631,0.091013815338656
13.117388,5.369564225780212,0.0905312530257317
13.119776,5.390612738318515,0.0900331175238564
13.122156,5.412220329364258,0.0895044901156155
13.124552,5.43354838115628,0.0889996743813472
13.12694,5.45715807294844,0.0884625477160894
13.129319999999998,5.478253807314986,0.0879286639786597
13.131716,5.495345340188698,0.0874397354878388
13.134104,5.515649678622326,0.0869052585525985
13.136483999999998,5.5393065922427285,0.0863209093333206
13.13888,5.566176311423047,0.0856943074594016
13.141267999999998,5.587459037244698,0.0851091083649083
13.143647999999995,5.6038063960137325,0.0845757931419956
13.146043999999998,5.620293524409631,0.0840389912628392
13.148431999999998,5.634918321685971,0.0835181334474522
13.150812,5.644328212655979,0.0830627430490553
13.153203999999995,5.653318794745407,0.0826310852545298
13.155591999999997,5.658956801648058,0.0822521498539416
13.157972,5.660171298177295,0.0819382002599105
13.160388,5.666880240266586,0.0815480430329247
13.162772,5.678245010154767,0.0811300751991025
13.165151999999996,5.685326039296395,0.0807693111045284
13.167547999999998,5.692127529184303,0.0804254274438948
13.169935999999998,5.697578544631851,0.0801125502493014
13.172316,5.698513501907367,0.0798183631301884
13.17472,5.696235653622968,0.079565653510934
13.177103999999998,5.698753402764321,0.0792798288352641
13.179483999999997,5.707277454144925,0.0789411370967281
13.181888,5.713519865525391,0.0786367678880392
13.184276,5.715059227278722,0.0784079103742726
13.186655999999996,5.71245461791236,0.0782226177753074
13.189051999999998,5.71343490115825,0.0780249324779253
13.191439999999998,5.714275414777281,0.0778339054062494
13.193819999999995,5.712554749142454,0.0776924913431106
13.196224,5.709902917947848,0.0775558045872137
13.198607999999998,5.710184353059438,0.0773962853956111
13.200987999999995,5.710605557797888,0.0772283367711473
13.203392,5.711678388842396,0.077071086562562
13.20578,5.715684486193098,0.07689082480323
13.208159999999998,5.7129854331702505,0.0768038942045274
13.210556,5.711869172013238,0.0767238555021794
13.212943999999998,5.7146173427222,0.0766174889182531
13.215323999999995,5.715363412684744,0.0765280505932533
13.217728,5.715178317087511,0.0764432164348004
13.234439999999998,5.671090566411701,0.0764415176012193
13.236835999999998,5.667133586747111,0.0764252813373297
13.239228,5.671045240441328,0.0763494109582451
13.241616,5.6821739011882935,0.0762051127593035
13.243995999999996,5.697027224174373,0.0760448519413116
13.246391999999998,5.710018216040894,0.0758936683030021
13.248779999999998,5.725942474213614,0.0757230388734293
13.251159999999995,5.744288142013328,0.0755148082868764
13.253555999999998,5.762633809813045,0.0753080715020716
13.255939999999995,5.787125549478872,0.0750460042296494
13.258335999999998,5.803888425412751,0.0748324121458078
13.26074,5.815995473547739,0.0746403595539213
13.263128,5.833969054295116,0.0744100614113895
13.265508,5.8567382324682455,0.0741545917211443
13.267904,5.881369741760932,0.0738911145021845
13.270292,5.913078488479507,0.0735712007491483
13.272671999999998,5.949070975944637,0.0732037079688457
13.275068,5.98348067154393,0.0728313490963295
13.277451999999998,6.018961302329862,0.0724499502878635
13.279831999999995,6.061938479422262,0.0719966389373346
13.282236,6.102122159835328,0.0715551186592115
13.284624,6.141654213942337,0.0711108152249225
13.287003999999998,6.176670209877314,0.070687247722907
13.289404,6.201675702080207,0.0703371320003692
13.291792,6.221885596857348,0.0700127891124556
13.294171999999998,6.246239462754184,0.0696566884565267
13.296572,6.268730997531462,0.069309804424189
13.29896,6.290011827495241,0.0689833261466865
13.301339999999998,6.31278290152624,0.0686295440399655
13.303744,6.333040018131624,0.0682746967537444
13.306128,6.357580875483563,0.0678782117592637
13.308507999999998,6.3853345383954165,0.0674531025719067
13.310912,6.408572143135239,0.0670397014468991
13.3133,6.427153920076169,0.0666437584022031
13.31568,6.44843664589782,0.0662059879283766
13.318076,6.46278190392044,0.0658087890811804
13.32046,6.477266931569919,0.0654073027566535
13.322843999999998,6.493055211831517,0.0650280924573045
13.325248,6.506841391346695,0.064661392190185
13.327632,6.511408463062708,0.064359645505693
13.330011999999998,6.521981837017971,0.0640252700431499
13.332416,6.530273570973097,0.0637172210441839
13.334804,6.532139693808392,0.0634611993209566
13.337184,6.537498161457322,0.0631632480298013
13.339587999999996,6.546721060972227,0.0628498731545286
13.341975999999995,6.5519397589942985,0.0625605123689298
13.344356,6.557018687389509,0.0622781166596749
13.346751999999997,6.559304119105384,0.0620019952060241
13.34914,6.557305810074707,0.0617611598617992
13.35152,6.554748422536588,0.0615468219820175
13.353916,6.554984531677803,0.0613275687201971
13.3563,6.551728296005384,0.0611467467302425
13.358679999999998,6.551125787385438,0.0609670333120464
13.361084,6.550383509138633,0.0607934440552613
13.363468,6.540933979771858,0.0606932512751336
13.365852,6.535628421524777,0.0605655690015159
13.368252,6.529391697717919,0.0604396762269307
13.37064,6.521851721298946,0.0602911240815519
13.37302,6.514451514506831,0.0601355199255442
13.375416,6.513197379580829,0.0599434532454496
13.377804,6.507799273535131,0.0597785581018266
13.380183999999998,6.501330232302796,0.0596215306625103
13.382588,6.502869594056127,0.0594249844675143
13.384976,6.506643373981352,0.0592500661380207
13.387356,6.507623657227243,0.0590803724024762
13.389752,6.508324401219413,0.0589232260197575
13.39214,6.5091649148384425,0.0587597378682108
13.394519999999998,6.511076363644111,0.0585876898506502
13.396916,6.513639438755838,0.0584263993955848
13.399304,6.518344384240843,0.0582497490229341
13.4017,6.52118699860629,0.0580774743595129
13.404103999999998,6.528313353718292,0.0578740259841093
13.406487999999998,6.532366672897238,0.057688058801747
13.408871999999995,6.537351157635962,0.057500618684673
13.411267999999998,6.550763354240934,0.0572567652289276
13.413655999999998,6.563244385286128,0.0570156885375953
13.416036,6.575445877077603,0.0567881018036824
13.41844,6.59030109592155,0.0565644069785182
13.420823999999998,6.608089581071694,0.0563321263093128
13.423204,6.622805030288784,0.056118174506985
13.425599999999998,6.636729083572954,0.0558992225826379
13.427987999999996,6.651863841670624,0.0556665959982847
13.430368,6.66248254159626,0.05543407931498
13.432771999999998,6.668585183349865,0.0552001122575716
13.435159999999998,6.676550156223028,0.0549646311272783
13.437536,6.689590265775664,0.0547070783599085
13.439939999999998,6.701699209768519,0.0544507617421869
13.442327999999998,6.715950024134654,0.0541812535117424
13.444708,6.734764118501063,0.0538727153956683
13.447103999999998,6.749713781001496,0.053574288486263
13.449491999999998,6.761590407568877,0.0532909132632766
13.451872,6.769462832643423,0.0530234694777032
13.454267999999995,6.780687832904745,0.0527301853167307
13.456655999999995,6.792332142046646,0.0524192439180317
13.459036,6.799972249695714,0.0521247908779277
13.461432,6.80933491883748,0.0518368203485831
13.46382,6.817906192046325,0.0515432971280478
13.466204,6.820610932642781,0.0512644249983667
13.4686,6.819171702119545,0.0510059538307711
