Time,Force,Position
14.260908,2.236300340855867,0.1761699738354132
14.263296,2.3384772764273123,0.1723888550866821
14.265675999999996,2.427899329273451,0.1695435616637264
14.26808,2.506009521633259,0.1672970788655598
14.270464,2.572760631678493,0.1658125784113626
14.272843999999996,2.633879422394682,0.1645273958393489
14.275248,2.6916475337819668,0.163272918863265
14.277636,2.740245655056196,0.1623082555948959
14.280015999999998,2.7827468221504272,0.1613737972143773
14.282412,2.8153791509973045,0.1606904211622538
14.306299999999998,2.896464143917943,0.160301261005552
14.30868,2.9040985639934043,0.1601906006289117
14.311084,2.916900668546954,0.159940251205048
14.313472,2.939293967952008,0.1593359228661747
14.315851999999998,2.967973108850032,0.1584443305898727
14.318248,2.9966994715763,0.1574309459514298
14.320636,3.021608624264837,0.1564603455417037
14.323015999999996,3.042281258035063,0.1556170058192944
14.325411999999998,3.0614636477380706,0.1548857298883662
14.327799999999998,3.0785041670678006,0.1542750481004875
14.33018,3.0967553912110293,0.1535891362646507
14.332575999999998,3.1104905571822274,0.1530612685697689
14.33496,3.1282299246462584,0.152368799856278
14.33736,3.1464811487894875,0.1517009899469594
14.339756,3.1621711936788586,0.1511931122874161
14.342144,3.181585900807344,0.1505607233789667
14.344528,3.2055638879361026,0.1496827612215825
14.346928,3.226236521706329,0.1488767832917885
14.349316,3.246537068424218,0.1480533378265386
14.351696,3.262693644022413,0.1474209611801529
14.354092,3.280572781113304,0.1467639040554261
14.35648,3.2979400615249976,0.1460919861075608
14.358859999999998,3.3107912837646603,0.1455539395058057
14.361264,3.3145631678320164,0.1453558048913999
14.363652,3.315773872645515,0.1452964170035041
14.366032,3.321500635631045,0.145120777580458
14.368435999999996,3.330952060855689,0.1448367459945395
14.370824,3.340403486080332,0.1445507611520947
14.373204,3.351484924999055,0.1441587103394769
14.3756,3.3616351983579995,0.1437953164002058
14.377988,3.372716637276722,0.1434072009838344
14.380368,3.381795975449028,0.143084492039215
14.382768,3.3880818169419986,0.1428434908908508
14.385152,3.3967890680619672,0.1424908743382276
14.387536,3.4059156280625165,0.142089637268124
14.389932,3.4121089217568707,0.1417838387976811
14.392316,3.4181624458243647,0.1414977087203487
14.394699999999998,3.427800862504112,0.1411254535721338
14.397104,3.432224372877526,0.1409434805155442
14.399488,3.434785552131384,0.1408114091540744
14.401872,3.4345532347059065,0.1407579388297972
14.404268,3.4366951050791834,0.1406768115338802
14.499832,3.535098260725404,0.140653754698494
14.502216,3.5347261736730653,0.1406174120893683
14.504612,3.5392894536733404,0.1404320965620711
14.507,3.542921568113836,0.140271251093423
14.509379999999998,3.549626718487388,0.1400134652761924
14.511776,3.559544674420855,0.1396392828753418
14.514164,3.569322860727462,0.1392877427233494
14.516547999999998,3.580032212593846,0.1389117325127078
14.518944,3.589670629273593,0.1385753666230872
14.521332,3.602102542632675,0.1381701050873259
14.523728,3.6149537648723378,0.1377161543305239
14.526123999999998,3.624731951178945,0.1373667221364214
14.528511999999996,3.634649907112412,0.1370021395764903
14.530896,3.6470818204714943,0.1366053277308302
14.533295999999998,3.65630092827066,0.1363204618413888
14.535679999999996,3.6657995753235473,0.1360030473988657
14.538064,3.6817238334962656,0.1354683532194739
14.540459999999998,3.7035146242813735,0.1347767613062918
14.542847999999998,3.720090508760149,0.1342510263566023
14.545232,3.7354556884254255,0.1337682706921847
14.547627999999998,3.75282296883712,0.1332380217803728
14.550019999999998,3.7685602355547343,0.1328043732057786
14.5524,3.781364235966153,0.1324559371902484
14.554795999999998,3.794308006004433,0.1320939811052583
14.557183999999998,3.8023164089900994,0.1318688439281735
14.559564,3.811116207908685,0.1316402022265982
14.561959999999996,3.8200557764541303,0.131403151920715
14.564348,3.832208150559493,0.1310700715163218
14.566728,3.8445002942917137,0.130723966744891
14.569127999999996,3.854790337277518,0.1304315804820775
14.571516,3.8668029417560192,0.1301136923809573
14.573896,3.8778843806747423,0.1298142769302931
14.576299999999998,3.890036754780104,0.1294833827175889
14.578687999999998,3.8976730707134335,0.1292388290077344
14.581068,3.90852219220668,0.128896973615533
14.583472,3.923375515192759,0.1284552492452262
14.585859999999998,3.931151600752949,0.1282029796736818
14.58824,3.934271858514248,0.1280474986331516
14.590644,3.943677957768517,0.1277148550597659
14.593032,3.960580603329257,0.1271679047889063
14.595411999999998,3.9724081122105233,0.1267536465063409
14.597808,3.9826528292259535,0.1263459988771936
14.600196,3.994899646987801,0.1258922943572203
14.602575999999996,4.00579599030929,0.1254937852106421
14.604976,4.020277226243031,0.1250343264756461
14.607359999999998,4.032104735124299,0.1246190100879656
14.609743999999996,4.04071943844565,0.1242988174485983
14.612139999999998,4.045981566580226,0.1240871996418926
14.614523999999998,4.054037191394135,0.1238258898429826
14.616908,4.064886312887381,0.1235134039805386
14.619303999999998,4.076806369567265,0.1231751995344523
14.621691999999998,4.093801562926622,0.1227208373402887
14.624072,4.10972582109934,0.1222979539081652
14.626467999999996,4.12923497188431,0.1218212351422085
14.628856,4.144460381922727,0.1214608145134514
14.631236,4.158475087147644,0.1211491021868623
14.633639999999998,4.177425159425174,0.1207301004083024
14.636027999999998,4.196095692448985,0.1203323283624126
14.638408,4.209271779912741,0.1200916064198432
14.640803999999996,4.218955522562861,0.119967240082685
14.643191999999996,4.231852070772898,0.1197594111914849
14.645576,4.248752820475768,0.1194657354093564
14.647971999999998,4.26486217424572,0.1191810426625494
14.650359999999996,4.287397139135503,0.118741007801514
14.652736,4.313424448838922,0.1182134772932463
14.655143999999998,4.340243154475259,0.1176816829969858
14.657527999999996,4.367061860111597,0.1171440271385682
14.659912,4.394160105001655,0.1165830747076819
14.662311999999998,4.4163229828391,0.1161214457692122
14.664699999999998,4.435692363997211,0.1157056058776929
14.66708,4.451848939595405,0.1153691095840147
14.669475999999998,4.463721774447047,0.1151412984898936
14.67186,4.475594609298687,0.1149134873957725
14.674244,4.484813717097853,0.1147180849768972
14.67664,4.497245630456936,0.1144447335760455
14.679024,4.507163586390402,0.114192939176296
14.681423999999998,4.516150376764092,0.1139582234822788
14.68382,4.529420907884335,0.1136259250425761
14.686208,4.5441816830717965,0.1132303145286583
14.688587999999998,4.55228452971395,0.1129410239200026
14.712483999999998,4.512576859299054,0.1128714505186442
14.714871999999998,4.511041289261461,0.1128121686794651
14.717256,4.506991761798253,0.1127707926719733
14.719651999999998,4.507365744708459,0.1126217403941241
14.722039999999998,4.5094622891113625,0.1124575581603093
14.724423999999996,4.507694401648292,0.1123562520126823
14.726819999999998,4.505507205304642,0.112287734142907
14.729207999999998,4.502388843401214,0.1122323466716405
14.731588,4.497128611124506,0.1122241601850137
14.733983999999998,4.493590940340495,0.112201160631777
14.736371999999998,4.495780032542016,0.1120894095886625
14.738768,4.499971225489953,0.1119416472926372
14.741168,4.4985754250792205,0.1118709628884654
14.743552,4.500392430228403,0.1117288603625289
14.745931999999998,4.503000831310504,0.1115835557987729
14.748328,4.509613433885439,0.1113593979279497
14.750716,4.517948597953071,0.111121225008076
14.753099999999998,4.52055699903517,0.1109746253899855
14.755496,4.526517975304047,0.1107448652027379
14.757879999999998,4.53434128269248,0.1104923141510798
14.760263999999998,4.540442028588216,0.1102561396136081
14.76266,4.544820212991258,0.1100354542571932
14.765047999999998,4.5547853907529685,0.1097395980379881
14.767428,4.558185187767988,0.1095963197366862
14.769823999999998,4.560933358476948,0.1094444890956398
14.772211999999998,4.569687831425159,0.1091875036066879
14.774596,4.583796980306564,0.1088203081101617
14.776987999999998,4.597906129187967,0.1084539807617024
14.779379999999998,4.609221781390037,0.1081233698298079
14.781776,4.623890008778883,0.1077219960221636
14.784172,4.637627070607948,0.1073333964131466
14.78656,4.647639470197904,0.1069918466424101
14.788944,4.663658172027107,0.1065485094655328
14.79134,4.677535003483034,0.1061524349512868
14.793728,4.693553705312238,0.1057126150905408
14.796107999999998,4.711854047141579,0.1052202305493398
14.798508,4.72563833079889,0.1047736213289604
14.800896,4.7430075070684525,0.1042895591744834
14.803276,4.7571638777781,0.1038738115705907
14.805676,4.765593485502217,0.1035367328651789
14.80806,4.774023093226335,0.103200227681166
14.810444,4.782964557629649,0.1028836853947334
14.81284,4.788972755726769,0.1026134080374678
14.815224,4.797122824197165,0.1022982290326565
14.817607999999998,4.80592451897362,0.1019939924769043
14.820004,4.813515508936575,0.1017260403824104
14.822387999999998,4.813889491846783,0.1015849157102968
14.824771999999998,4.815054870689907,0.1014436543700363
14.827176,4.817942811025729,0.1012907126663595
14.82956,4.814684679495438,0.1012421584853597
14.831943999999998,4.812916792032367,0.1011428734029769
14.83434,4.813011235688854,0.1010224996152206
14.836728,4.814688471211179,0.1009034028938698
14.839107999999998,4.815993619681163,0.1007546305503321
14.841504,4.815296667404732,0.100635817725604
14.843892,4.816182506994136,0.1005180524450138
14.846275999999998,4.821584404755572,0.100361082888623
14.848672,4.831130273636701,0.1001399341042637
14.851055999999998,4.843609408824026,0.0998816183349677
14.853456,4.863165781437241,0.0995212820507099
14.855852,4.880720053304037,0.0991878402533406
14.85824,4.899345260357474,0.0988367876254936
14.860624,4.919181172224408,0.0984591394860068
14.86302,4.9392966233450615,0.0980632600776805
14.865408,4.9595518440925765,0.0976605321063074
14.867788,4.976873798533896,0.0972962726333271
14.870188,5.000062285587607,0.096858243485715
14.872572,5.020457275961983,0.096446461249642
14.874956,5.042714597455914,0.0960187642816659
14.877352,5.069907286002459,0.0955291484643155
14.87974,5.095330191228063,0.0951079843598661
14.882124,5.11861122608039,0.0947213958566318
14.88452,5.136956893880106,0.0944015353703437
14.886908,5.155395109478438,0.0941293614154615
14.889292,5.177046130636685,0.0938046894124544
14.891688,5.194832719928959,0.0935266140146263
14.894076,5.213038618101815,0.0932251642620203
14.89646,5.221234012542586,0.0930551216879385
14.898856,5.228498241423578,0.0928951128023623
14.901244,5.23054756399824,0.0928141811593623
14.903624,5.238742958439009,0.0926494953259385
14.906024,5.251082323999474,0.092430340294021
14.908412,5.26221098474644,0.0922377807737433
14.910792,5.273339645493405,0.092046170643764
14.913188,5.284747845494092,0.0918388586474274
14.915576,5.298297915868055,0.0915994269084381
14.91796,5.307052388816267,0.0914069177443473
14.920356,5.319019667324393,0.0911659089660995
14.922744,5.331266485086241,0.0909103210228107
14.925124,5.339369331728396,0.0907110940497274
14.927524,5.348962422437768,0.0904705170762409
14.929912,5.363770419453473,0.0901606755627233
14.932292,5.378857955722899,0.0898320340983694
14.934696,5.395295966432683,0.0894706632096957
14.937084,5.41052327232897,0.0891374506635815
14.939464,5.426961283038754,0.0887798779766161
14.941864,5.4403262578154825,0.0884625271973014
14.944248,5.462910340391378,0.088030945349873
14.946632,5.480559055914661,0.0876487342215057
14.949028,5.500349641811222,0.0872360403400204
14.951416,5.51385438621481,0.0869107453881128
14.9538,5.518140022819234,0.0866992853630447
14.956196,5.522705198677379,0.0864710282827335
14.958584,5.528992936028218,0.0862391671991607
14.960968,5.5351409037522,0.0860174427943733
14.963364,5.540078166662682,0.0858197582897224
14.965752,5.551161501439274,0.0855515698023854
14.968136,5.561965296962145,0.0853020762706688
14.970532,5.569044430245904,0.0850784058133798
14.97292,5.57775357722374,0.084807120581889
14.9753,5.587673429015077,0.0845161607566286
14.9777,5.594380475246497,0.0842699399901878
14.980088,5.604300327037834,0.083983045954018
14.982468,5.616362049202448,0.0836717248392057
14.984868,5.628843080247642,0.0833388724654692
14.987256,5.642906903158672,0.0830126766816482
14.989636,5.662045862749176,0.0826388730813811
14.992039999999998,5.674898980846708,0.0823392245472551
14.994427999999996,5.694689566743268,0.0819780008063815
14.996808,5.712478051893411,0.0816363882729622
14.999204,5.735621212976747,0.0812307963358719
15.001592,5.763979280366416,0.0807642098215753
15.003976,5.792197578129224,0.0803070195249443
15.006372,5.819624479959114,0.0798516669243885
15.00876,5.84383857622909,0.0794350324559542
15.01114,5.870194542872342,0.0789950699475802
15.01354,5.891195833582401,0.0786233605056028
15.015924,5.913268059479099,0.0782423768851773
15.018308,5.936131681308715,0.0778629139528632
15.020704,5.956434123884472,0.0775316827043665
15.023092,5.973244221646596,0.0772554484237406
15.025476,5.989682232356379,0.0769537848439515
15.027872,6.00197627194647,0.0766957464047346
15.03026,6.009474714110809,0.0764704103097977
15.032644,6.0144119770212905,0.0762930223916349
15.03504,6.018185756946516,0.0760878913416844
15.037428,6.014742529818992,0.0759526623715699
15.039812,6.012649777131827,0.0757895215370301
15.042211999999996,6.0100451677654645,0.0756094550269725
15.044599999999996,6.010513594332158,0.0754018392433343
15.046984,6.006977819406018,0.0752268351540038
15.049392,6.0025108789200985,0.0750561864514278
15.051784,6.001256743994095,0.0748519977921056
15.054163999999998,5.9990714435083135,0.074652203762598
15.056564,6.001169883769085,0.0744073602084667
15.058956,5.998332956977246,0.0741965995070402
15.06134,5.996986274252626,0.0739522747224637
15.063732,5.990704224475394,0.0737418497437202
15.066116,5.988286606564135,0.0735092455252366
15.068495999999998,5.992154830145847,0.0732182913109619
15.070892,5.994440261861722,0.0729184565041
15.073275999999998,5.999099881376353,0.0726301964043524
15.075656,6.007484163130095,0.0723272101030157
15.07806,6.014517970443481,0.0720476438792832
15.080443999999998,6.023833417757001,0.071738619021147
15.082824,6.031518851376443,0.0714704434163191
15.085219999999998,6.042417090555802,0.0711676326155758
15.087607999999998,6.056248596041356,0.0708479627026865
15.089988,6.064725425593715,0.0705838351221901
15.092391999999998,6.069198053653243,0.0703493310508413
15.094775999999998,6.075393243205466,0.0701153972929556
15.097156,6.084661468690744,0.0698585821726454
15.099551999999996,6.086712687123273,0.069662013273554
15.101936,6.090626236675359,0.069459676059386
15.104331999999998,6.089464649547973,0.0692955159778953
15.106728,6.096451235033114,0.0690701669705202
15.109111999999998,6.103298050891395,0.0688526602343004
15.111492,6.1144286074962295,0.0685935835174559
15.113896,6.120763566675313,0.068358241175371
15.116283999999998,6.121092223615146,0.0681638317540114
15.11866,6.124354146861173,0.0679524776436344
15.121064,6.12868700529384,0.0677330387578533
15.123452,6.132368237420449,0.0675038494614722
15.125831999999996,6.144197642159585,0.0672180598238266
15.128236,6.156027046898722,0.0669340154978112
15.130624,6.168927386824497,0.0666399441623561
15.133003999999998,6.179685856376994,0.066364809020248
15.135408,6.187511059623297,0.0661060874572925
15.137792,6.198269529175795,0.0658311312685301
15.140171999999998,6.208748459474573,0.0655684066897794
15.142576,6.216294123467154,0.0653206710952781
15.144964,6.217553945966765,0.065124712041466
15.147344,6.224959840332487,0.0648839276247738
15.149748,6.227430367645598,0.0646705129288341
15.152132,6.237257671638317,0.0643975181251865
15.154512,6.239076572645367,0.0641745562767389
15.156908,6.238893372906004,0.0639631046324448
15.159296,6.238290864286059,0.063773393216069
15.161675999999998,6.241692557158945,0.063560411536995
15.164072,6.247887746711169,0.0633401623698882
15.166455999999998,6.260229008129502,0.0630820136510275
15.168836,6.263910240256111,0.0628569409753416
15.17124,6.265729141263163,0.0626367591320364
15.173628,6.260750344098047,0.0624462238052459
15.176007999999998,6.254048985440233,0.0622528849516292
15.178412,6.24855833159592,0.0620441499019256
15.1808,6.247351418498159,0.0618005232749011
15.183179999999998,6.249077771706596,0.0615450502487449
15.185576,6.253085764915167,0.0612669242942548
15.18796,6.260446333310516,0.060956274964263
15.190339999999996,6.273952973571973,0.060609770504909
15.192744,6.291743354579986,0.0602286965409929
15.195128,6.30860257002822,0.0598527532023602
15.197511999999998,6.329605756596149,0.0594496399285423
15.199908,6.342972627230747,0.0591130280498263
15.202291999999998,6.359272764171541,0.0587639673337894
15.204688,6.37971687223203,0.0583898899761107
15.207091999999998,6.398298649172959,0.0580195132673073
15.209476,6.415949260554112,0.0576539963391899
15.21186,6.4328084760023465,0.0572846926644891
15.214256,6.439377648464776,0.0569773455931328
15.21664,6.453535915032293,0.056650686998256
15.219024,6.467274872719228,0.0563434448396688
15.22142,6.484738492645278,0.0560317374069957
15.223808,6.500851638130968,0.0557404219374735
15.226188,6.51482291324338,0.0554657360892015
15.22858,6.5262330091019365,0.0552277592464737
15.230968,6.535361464960356,0.0550129737516214
15.233347999999998,6.541928741564916,0.0548340512166967
15.235752,6.547285313355978,0.0546698747357023
15.23814,6.547566748467567,0.0545313798638795
15.240519999999998,6.548499809885215,0.0544054107535558
15.242924,6.548222166489365,0.0542934720467254
15.245308,6.547664983839794,0.0541946298643282
15.247687999999998,6.553533412310053,0.0540524060860926
15.250088,6.560984632646148,0.0539216691360552
15.252472,6.56401234260883,0.0538261604393574
15.254851999999998,6.572766815557042,0.0537202392832947
15.257252,6.579239648505116,0.0536349746732846
15.259636,6.586503877386109,0.0535555647045104
15.262032,6.598703473319713,0.0534594604278778
15.264428,6.607038637387345,0.053372760430062
15.266816,6.616304967014754,0.0532851779029541
15.269196,6.622498260709108,0.0532126574830334
15.271599999999998,6.633487151829213,0.0531304673593794
15.273987999999996,6.647269539628653,0.0530465383026372
15.276368,6.663473337055091,0.0529369313903779
15.278771999999998,6.679956673735249,0.0528152463477152
15.281155999999998,6.69592815373621,0.0526755584960485
15.283536,6.715112439297085,0.0525169965093115
15.285935999999998,6.734156955231102,0.0523643653825776
15.28832,6.7505477441126445,0.0522081486699723
15.2907,6.767869698553965,0.0520519661013552
15.293096,6.785471192249006,0.0518847275308596
15.295484,6.794784743704659,0.0517583337387922
