Time,Force,Position
13.399912,1.966186033027478,0.1744149487612878
13.402296000000002,2.0422884370672616,0.1739243822424695
13.4047,2.1147606225244178,0.1735503953989691
13.407088,2.1832305023466096,0.173071016886469
13.409468,2.2481173854144174,0.1723352627443641
13.411864,2.3066277750485065,0.1717064105317909
13.414252,2.364488434234408,0.1706397314317923
13.416636,2.4169963133449848,0.169626692259162
13.419032,2.4632202468204603,0.1686716867150877
13.42142,2.5054418746609715,0.1676149085483554
13.423799999999998,2.5447321320531566,0.1665131898716315
13.4262,2.576527738996741,0.1655992317935805
13.428584,2.6006417040366223,0.1650163914121981
13.430967999999998,2.6195879845984136,0.1646495520870008
13.433364,2.633087041428396,0.1645191903928469
13.435752,2.6490075078853743,0.164203980515271
13.438135999999998,2.664276348036296,0.1638891490588801
13.440532,2.677543087440801,0.1636902753573149
13.44292,2.6895991220318063,0.1635818908914409
13.4453,2.704169114048426,0.1633819503607149
13.4477,2.721392833117521,0.1630677289195393
13.450088,2.740339113679313,0.1627060525893756
13.452468,2.7557005016288514,0.1624958653291912
13.454864,2.7705500328991928,0.1622726298796585
13.464424,2.8114173945836054,0.1622678310105562
13.466804000000002,2.8238927380551915,0.1621129567459441
13.471588,2.848890646826608,0.1617295269170269
13.473971999999998,2.8591315721263,0.1616202998962984
13.476368,2.8710025111200723,0.1613784824599399
13.478756,2.885714168621422,0.1609421170441457
13.481152,2.901124674257073,0.1604056469103387
13.483548,2.917373797653885,0.1597612339424548
13.485936,2.937394805118053,0.1589081573822685
13.488316,2.955041624783467,0.158096515670848
13.490712,2.9760410196356584,0.1571383848268606
13.4931,3.0016036944881224,0.1559634278620459
13.495484,3.0287963830346665,0.1546829174466136
13.49788,3.056268610834931,0.1534059265327952
13.500264,3.0822978163962187,0.1521265477770708
13.502643999999998,3.1079077130769264,0.1509146900929877
13.505044,3.132958531250193,0.1497847524809076
13.507428,3.168019853155545,0.148277031352313
13.509811999999998,3.200287678381561,0.1468671949945482
13.512208,3.232555503607577,0.1454573586367833
13.514596,3.2629609977140364,0.1441383311472561
13.516992,3.287360189581245,0.143069553810061
13.519388,3.3193484755535407,0.1417575440653998
13.521776,3.351848618205034,0.1404847586147916
13.52416,3.3856520134686434,0.1392481554881467
13.526556,3.4166146902246743,0.1382044161082881
13.528944,3.4503708636600403,0.1371023304494865
13.531328,3.488084016759996,0.1359932641842076
13.53372,3.521745746538876,0.1351251097111584
13.536104,3.561646095982484,0.1341381456940427
13.641239999999998,3.924683295726624,0.1337651916948925
13.643628,3.928360736137494,0.1337607512556079
13.646008,3.9397670402803113,0.1335792193477484
13.648404,3.95596894184888,0.1332878089568304
13.650788,3.972310613044309,0.1329798069060133
13.653172,3.983856686813987,0.1327779535173806
13.655568,3.9947511342776063,0.1325674603751815
13.657956,4.002060689128973,0.1324230749102134
13.665136,4.001409062822915,0.1324175228157944
13.667516,4.0026669894646565,0.1322960379161286
13.66992,4.002714211292901,0.132222156176589
13.672308,4.00490330349442,0.132082133879279
13.674688000000002,4.011376136442494,0.1318115063672595
13.677084,4.019059674204068,0.1314965219723203
13.679467999999998,4.026371124913302,0.1311508872294987
13.681848,4.037035150809314,0.1306932157303923
13.684247999999998,4.043183118533293,0.130323840889007
13.686632,4.049890164764715,0.1299030989522439
13.689012,4.05529395838402,0.1294694985762953
13.691408,4.052177492338459,0.1292189453903707
13.693796,4.042123558493871,0.1291349858707361
13.696191999999998,4.030626602410306,0.129047581167288
13.698588,4.021411286326878,0.1288854272161704
13.700976,4.017410876549783,0.1285816520165734
13.703356,4.0127588404666295,0.128268835086616
13.705752,4.009969135503034,0.1279182579221037
13.708139999999998,4.011043862405411,0.1274795010275676
13.71052,4.019056057106817,0.1268728890987066
13.712915999999998,4.030932683674196,0.1261813252422721
13.715304,4.041319066174356,0.1255639911736841
13.717684,4.051705448674516,0.1249466571050961
13.720083999999998,4.059018795241622,0.1244117706336037
13.722472000000002,4.060046300315756,0.1240484999197792
13.724852,4.062004970949668,0.1236710032389044
13.727248,4.063264793449279,0.1233571709278745
13.729636,4.063453680762252,0.1230742832136082
13.732031999999998,4.064154424754422,0.1228113709905041
13.734428,4.06536702542579,0.1225699432812515
13.736816,4.064809842776218,0.1224198156510634
13.739196000000002,4.068908487925539,0.1221833264651773
13.7416,4.074729694567555,0.1219207840961575
13.743988,4.07999182270213,0.1217099176531199
13.746368,4.084834641956125,0.1215392355164306
13.748764,4.089118382702679,0.1214205393542023
13.751152,4.0996407431139605,0.1212108915993342
13.753531999999998,4.109743794644662,0.1210383281060364
13.755928,4.120917781362001,0.1208403528329087
13.758316,4.130601524012123,0.1207130089922066
13.760696,4.1372122307291885,0.1206587987929115
13.7631,4.14461433337917,0.1206010114409257
13.765488,4.151085270469377,0.1205587127753142
13.767867999999998,4.159418538679138,0.1204846183840032
13.770264,4.173897878755011,0.1202664968586796
13.772652,4.183022542897691,0.1201878123845213
13.775032,4.191355811107452,0.120112214846454
13.777432,4.199409540063493,0.1200610238730003
13.779816,4.209465369765952,0.1199662788138308
13.782196,4.21966096909527,0.1198609544548637
13.7846,4.23493170510406,0.11964068522039
13.786988,4.246989635552937,0.1195044121814023
13.789368,4.259327105255532,0.1193416176296268
13.791764,4.270453870144628,0.11921686932699
13.794152,4.280509699847086,0.1191207353358198
13.810876,4.315703207947821,0.1189884243300035
13.818044,4.329668795486627,0.118949740424031
13.820436,4.336559041457413,0.1188757495712055
13.822824,4.345311618547756,0.1187715813548145
13.825204,4.355414670078456,0.118618310768519
13.8276,4.3648660953031,0.1184593721354546
13.829987999999998,4.371244484594689,0.1183673225142312
13.832384,4.376691708326497,0.1182921184997651
13.83478,4.385631276871942,0.1181175504219286
13.837168,4.39964598209686,0.1178414172976287
13.839548,4.418503506575774,0.1174226276823443
13.841944,4.439642671054823,0.1169461160255211
13.844328,4.454635763667763,0.1166006267261875
13.846711999999998,4.479918899266507,0.116041211126437
13.849108,4.5045504085591945,0.1154820849472591
13.851496,4.529880765986181,0.1148688046382202
13.853876,4.556561597853527,0.1142120542312433
13.85628,4.581519868228177,0.1135759432032693
13.858664,4.61020280084194,0.1128929538116415
13.861047999999998,4.635021301589729,0.112277845345576
13.863444,4.6610505071510175,0.1116374228329686
13.865832,4.6972299860712505,0.1108176496475353
13.868212000000002,4.734620169804981,0.1099888255709745
13.870608,4.774291993538851,0.1091185537117833
13.872996,4.814755213205637,0.1082579326717768
13.875392,4.8522851665662285,0.1074431895495708
13.877792,4.89689235735271,0.1065165913938097
13.88018,4.937774885900077,0.1056383754300244
13.88256,4.975444608887528,0.1048303010607714
13.884956,5.012183166315202,0.1040554256913702
13.887344,5.047431479675657,0.1033466617333939
13.889724,5.079886296356777,0.1026745272806957
13.89212,5.116764623411312,0.1019151798946298
13.894508,5.1468452522936765,0.1012572957403399
13.896892,5.1767861115491804,0.1006161685347107
13.963796,4.697481611312397,0.1003869464235354
13.966184,4.696737437207721,0.1003279293786059
13.968568,4.6983674509018005,0.1002693965726823
13.970964,4.700509321275078,0.1002310298797713
13.973352,4.712102616872997,0.1000884902816739
13.975732,4.724859395456174,0.0999768238370044
13.978132,4.733332433292795,0.0999408330827204
13.980516,4.750465500421143,0.0997979032363457
13.982912,4.7782606975876325,0.0995191640674608
13.985307999999998,4.81257405367257,0.0991738422835459
13.987696,4.847958344944147,0.0988067664185762
13.990076,4.882691009909665,0.0984355067542967
13.992472,4.920636480435099,0.0980084086366693
13.99486,4.959513116520311,0.0975701383468587
13.99724,5.000112314098218,0.0971252098097053
13.999636,5.043412460556845,0.0966079271513148
14.002024,5.077912808096886,0.0962115162794784
14.004408,5.111202450823429,0.0958474950533493
14.006804,5.137973934631523,0.0955546663867078
14.009192,5.165956123253116,0.0952330561834164
14.011572,5.195428555941927,0.0948695979244566
14.013968,5.218522599339152,0.0945631897949224
14.016356,5.241104786057178,0.0942389761387933
14.018752,5.261452554603311,0.0939051091069418
14.021147999999998,5.277284264977411,0.0936090978806054
14.023535999999998,5.289950391619838,0.0933094590668959
14.02592,5.305969093449043,0.0929461661140291
14.02832,5.318682441919715,0.092591190424481
14.030708,5.324598092218218,0.0923135550728507
14.033091999999998,5.3259976843446895,0.0920684022928755
14.035488,5.32753704609802,0.09181438130938
14.037876,5.329076407851352,0.0915616743741733
14.040256,5.327542733671629,0.0913504434105945
14.042656,5.325357433185846,0.0911288372226333
14.045039999999998,5.321170031953647,0.0909314534442998
14.047424,5.312698889974895,0.0907997948031699
14.04982,5.307161014302337,0.0906358322693793
14.052207999999998,5.303253152323859,0.0904206231754839
14.054588,5.299996916651439,0.0902152609230608
14.056983999999998,5.299813716912074,0.0899711854746603
14.059376,5.297348877172572,0.0897688548827666
14.061756,5.2958152029928485,0.0895589765753362
14.064151999999998,5.294141759186264,0.0893579122268648
14.066539999999998,5.292049006499099,0.0891825020211206
14.06892,5.2887455489984365,0.0890315351518444
14.071316,5.289306523363747,0.0888433339074202
14.073704,5.294011468848751,0.0886033851019559
14.076088,5.300299206199592,0.0883675455863202
14.078484,5.308728813923707,0.088100063117451
14.080872,5.321302392767518,0.0877820396097541
14.083256,5.332153410118634,0.0874683101661792
14.085652,5.341002326723332,0.0871772961161962
14.08804,5.351061948141528,0.0868622322463503
14.09042,5.36284413105242,0.0865432403679531
14.092816,5.376488645082871,0.0862109931432046
14.095204,5.393206195046375,0.0858415267697791
14.097588,5.414067716129575,0.085425764456734
14.099984,5.431716431652857,0.0850576763658855
14.102372,5.446711420123666,0.0846981295678071
14.104756,5.455560336728364,0.0844114123084546
14.10716,5.462686691840366,0.084127923736847
14.109544,5.470092586206088,0.083828150212047
14.111928,5.476707084638892,0.0835261180187823
14.114323999999998,5.485463453444972,0.0831949369612045
14.116712,5.494219822251053,0.0828624057391268
14.119092,5.5008343206838575,0.0825614663474777
14.121496,5.502885539116386,0.0823381468661642
14.123884,5.506799088668472,0.0821047881472127
14.126264,5.511643803780336,0.0818665094646001
14.128659999999998,5.512204778145647,0.0816855896535285
14.131052,5.515419479563431,0.0814956840248078
14.133432,5.519565346540994,0.0812999282041931
14.135827999999998,5.522640278331919,0.0811180634901847
14.13822,5.526646375682622,0.0809318180131752
14.1406,5.527998745980851,0.0807538313419338
14.142995999999998,5.530142512211997,0.0805796633493927
14.145383999999998,5.5237187969500345,0.080514591953942
14.147764,5.51915741280763,0.0804384836256043
14.15016,5.519112086837255,0.0803431897371576
14.152548,5.525073063106131,0.0801908261269813
14.154932,5.538762903106956,0.0799815214777229
14.157328,5.553895765346756,0.0797875932124555
14.159712,5.569400714638893,0.0796202233254683
14.162112,5.583694959117532,0.0794751026612679
14.164508,5.599060138782808,0.0793165822712487
14.166896,5.615356484007863,0.0791538161463204
14.16928,5.6308614333,0.0789875015959516
14.171676,5.641570785166385,0.0788557098288676
14.174064,5.650929662592412,0.0787535780041907
14.176443999999998,5.660288540018438,0.0786509371940259
14.178848,5.67258068375066,0.0785269759571791
14.181236,5.68552445378894,0.0784141972384771
14.183616,5.7012617205065546,0.0782872071347449
14.186012,5.714205490544834,0.0781758501276229
14.1884,5.732876023568643,0.0780286724223535
14.190779999999998,5.747682124726479,0.0779090337604896
14.193176,5.769984772190785,0.0776995001109804
14.195568,5.792147650028231,0.0774992339270711
14.197947999999998,5.813658901559619,0.0772903518166145
14.200344,5.829303620478616,0.0771261600464351
14.202732,5.836148540479027,0.0770288184148214
14.205112000000002,5.841410668613603,0.0769258795387148
14.207512,5.850304911188674,0.0767643208051102
14.2099,5.859478693017467,0.0765877835129075
14.212279999999998,5.872936215592813,0.076365890401702
14.214676,5.886393738168159,0.0761453377434848
14.217064,5.904926397422977,0.0758831276183828
14.219447999999998,5.926811631864571,0.0755789482245069
14.221844,5.952049441492941,0.075235046662672
14.224232,5.980500056681228,0.0748583689709535
14.226615999999998,6.002432512951065,0.0745125665431936
14.229012,6.025063817355204,0.074132309270913
14.2314,6.0441102291470905,0.0737615511151641
14.233783999999998,6.065438280939113,0.0733625905524537
14.236192,6.082529813812825,0.0729652472436785
14.23858,6.104556713739148,0.0725360451220519
14.24096,6.122858951426358,0.0721250997040348
14.24336,6.139718166874593,0.0717006440744163
14.245748,6.1588590223229644,0.0712528126455926
14.248132,6.184006180010587,0.0707638400979305
14.250528,6.212366143258125,0.0702415436052325
14.252916,6.241797041692301,0.0697118776720953
14.2553,6.268154904193423,0.0692118829159449
14.257696,6.295304162627463,0.0687178190113612
14.260088,6.316167579568531,0.0682816862262955
14.262468,6.336239600576681,0.067843412856293
14.264867999999998,6.347511822666245,0.0674540049645442
14.267256,6.35743357031545,0.0670901714622634
14.269636,6.363630655725544,0.0667402794490121
14.272032,6.366754705202579,0.0664138535823866
14.274423999999998,6.374534582478509,0.0660732727722681
14.276804,6.3800328197543,0.0657596597602101
14.2792,6.388184784082567,0.065444607262169
14.281588,6.394846504343613,0.0651608080704137
14.283972,6.402811477216776,0.0648999251467481
14.286371999999998,6.406120622291048,0.0646528916752434
14.288759999999998,6.412083494417795,0.0644059369043045
14.291144,6.421771028783654,0.0641506957165724
14.293552,6.428245757589598,0.0639249092247112
14.29594,6.432718385649124,0.0637122643598325
14.298324,6.438913575201346,0.0635029232027398
14.300731999999998,6.442966894380293,0.063311536965645
14.303119999999998,6.4458095087457385,0.0631353822781053
14.3055,6.44772095755141,0.0629617408159685
14.307904,6.451494737476635,0.0627833257607119
14.310292,6.453126647028583,0.0626220201269639
14.312676000000002,6.4615562547527,0.0624319391370166
14.31508,6.470265401730537,0.0622290949168054
14.317468,6.477484304641155,0.0620542836769054
14.319848,6.486565538671331,0.0618755681428347
14.322244,6.494436067888007,0.0617132395597572
14.324632,6.5041689282242405,0.0615471276279473
14.327011999999998,6.511759918187198,0.0613982570718899
14.329412,6.518419742590376,0.0612511596281028
14.331796,6.522797926993415,0.0611278781835473
14.334179999999998,6.529969608075791,0.0609987357037554
14.336576,6.53406825322511,0.0608890986369486
14.338964,6.533883157627876,0.0608139650513637
14.341347999999998,6.530205717217005,0.060777422042917
14.343748,6.526668046432996,0.0607342339108334
14.346136,6.52019710934279,0.0607031485566138
14.348515999999998,6.514517568185503,0.0606766965153896
14.350916,6.512190602214993,0.0606184453194774
14.3533,6.512145276244618,0.0605372514647676
14.355683999999998,6.513590194341464,0.0604285578354009
14.358088,6.518108148371366,0.0603017050096148
14.360484,6.521834706468347,0.0601709575109279
14.362864,6.527283826058026,0.0600441885342649
14.365276,6.537947851954039,0.059884352362992
14.367664,6.5488914171037695,0.0597127951128124
14.370043999999998,6.559462895201165,0.0595180894355536
14.372456,6.568451581432722,0.0593141186939165
14.374844,6.582283086918275,0.0590554750526359
14.377224,6.596254362030687,0.0587899029453943
14.37962,6.610924485277403,0.0584919642998401
14.382008,6.626665543710756,0.0581887285426345
14.384388,6.642686141397829,0.0578723607495931
14.386784,6.657403486472787,0.0575317323710105
14.389172,6.675892715615101,0.0571411644062721
14.391556,6.691308908824359,0.056767674850186
14.393968,6.708727202780034,0.0563859807234398
14.396356,6.728706675989567,0.0559725259093268
14.398752,6.745613113266045,0.0555774356714746
14.401148,6.7603776801692455,0.0551996875949283
14.403536,6.770998275952753,0.0548449422708147
14.405916,6.779756540616703,0.054492891956476
14.408312,6.786372934907376,0.0541559050843276
14.4107,6.79219793326513,0.0538156905409074
14.41308,6.792156399010494,0.0534935870476271
14.415484,6.791043929569221,0.0531792614918409
14.417872,6.787649820127809,0.0528844626442446
14.420252,6.784907336992456,0.0526010163329357
14.422648,6.778532739416606,0.0523578455811934
14.425036,6.778583752960589,0.0520758499537619
14.42742,6.780497097624128,0.0517931148097903
14.429816,6.780408341541249,0.0515185685636401
14.432204,6.781250751018148,0.0512434028451282
14.434584,6.785678053107301,0.0509721305665632
14.43698,6.790756981502511,0.050713464105265
14.439368,6.797698241017279,0.0504535459147581
14.441748,6.800635299039211,0.0502066466525318
14.444148,6.796075810754676,0.0500036841274293
14.446536,6.793378653589696,0.0498001485315852
