Time,Force,Position
13.664552,2.3190571804180227,0.1643464785846869
13.66694,2.424258034236411,0.1624430602106149
13.66932,2.521779142008965,0.1607346657954357
13.67172,2.607895841496571,0.1592512454067609
13.674103999999998,2.6832125371770443,0.1581950906076961
13.676484,2.751965747968695,0.1573252397542748
13.67888,2.8161575746179404,0.1565298973026676
13.681268,2.8712719589527493,0.1559374356490502
13.683648,2.919218453920921,0.1553319723378114
13.686051999999998,2.9594852028432586,0.1546970379961047
13.688439999999998,2.996448494264932,0.1538485442603649
13.690816,3.0263364441185856,0.1530877483602616
13.693216,3.051523240202974,0.1523602263185391
13.695604,3.080017285503765,0.1513465943821355
13.697984,3.098455501102097,0.1505796389722791
13.70038,3.11130672334176,0.1500119726535104
13.702768,3.114751846327153,0.1499297540147435
13.76728,3.182434121932165,0.1495854058475087
13.78878,3.1936062127916367,0.1494985325332522
13.791175999999998,3.196958787978412,0.1493462626373368
13.793572,3.201382298351826,0.1491494598088123
13.795956,3.2127432765242694,0.1487056907386477
13.79834,3.2275493776821054,0.1481803197268443
13.800736,3.244869436265556,0.147577991438158
13.803124,3.260187394102589,0.1470394049889133
13.805508,3.274853725633565,0.1465072527454356
13.807904,3.292593093097596,0.1458542993815422
13.82462,3.3014854398148,0.1456024976826679
13.827004,3.304698245374716,0.1454715943446097
13.829399999999998,3.310704547613966,0.1452578931259875
13.831791999999998,3.3147087491068,0.1451157113780479
13.834172,3.3180613242935757,0.1449672318442502
13.836567999999998,3.3266288057866835,0.1446168382798595
13.838956,3.3327748776527937,0.1443931704826292
13.841347999999998,3.339852115078682,0.1441467073408619
13.843744,3.3422735247056794,0.1440323933006092
13.846132,3.3444626169072,0.1438665000517619
13.848512,3.3535891769077493,0.1434826048650828
13.850908,3.3676511039609105,0.1429411322785017
13.853291999999998,3.380362556573713,0.1424743546704234
13.855676,3.3910719084400984,0.1420768945393256
13.858071999999998,3.4028521954931223,0.1416461985230989
13.860459999999998,3.4211506414645942,0.1410421581412594
13.862844,3.4422425841154016,0.1403616588590605
13.865239999999998,3.4653366275126256,0.1396105934587642
13.867627999999998,3.493366037962461,0.1387082129384361
13.870024,3.5186019517329625,0.1378871954728306
13.87242,3.544769031063242,0.1370456924162836
13.874808,3.5657212040871884,0.1364053597417321
13.877188,3.582948714872022,0.1358538026564036
13.879592,3.6029697223361903,0.1352340399998472
13.88198,3.629508888718807,0.1344698884899224
13.884364,3.6537664151012863,0.133810712660731
13.88676,3.676813236670268,0.1332039964982629
13.889148,3.697857957492831,0.1326610279190807
13.891528,3.719414534994592,0.1321357739472077
13.893924,3.738689472496216,0.1317017679207928
13.896312,3.755031143691645,0.1313623496381264
13.898692,3.771093275633354,0.1310580346640178
13.901088,3.78915750832148,0.1307008834473098
13.903476,3.806942201755884,0.1303701053332414
13.90586,3.822585024817013,0.1301118645344307
13.908256,3.8375762215720832,0.1298536001119526
13.910644,3.852427648700293,0.1296111275154027
13.913023999999998,3.8699328028809776,0.1293279636467677
13.915424,3.886506791501884,0.1290729170165263
13.917812,3.905594737548405,0.1287888072443127
13.920191999999998,3.9245429139680654,0.1285203014593431
13.922588,3.9424201552010887,0.1282803523334578
13.924976,3.963882289046365,0.1279730384868933
13.927359999999998,3.9844132573318616,0.1276900424524434
13.929756,3.996004657071913,0.1276317994575058
13.932144,4.005873495319268,0.1275975795401768
13.934527999999998,4.01802397356676,0.1274877297227732
13.936932,4.034458192560806,0.1272574588235311
13.939316,4.052242885995211,0.1269710266347712
13.9417,4.075614572788286,0.1265827295840126
13.944096,4.098055094021582,0.1262178443715471
13.946484,4.115839787455988,0.1259387116922178
13.948864,4.130830984211059,0.1257141322765163
13.95126,4.148243590593125,0.1254064712810946
13.953648,4.165004570669135,0.1250898130406973
13.956032,4.17883228443895,0.124840321109827
13.958436,4.19480186858204,0.1245361235697633
13.96082,4.2089091216055765,0.1242710249205398
13.963204,4.219943338696057,0.1240819880922359
13.9656,4.2281840591072015,0.1239433764156602
13.967988,4.237915023585565,0.1237422836379858
13.970372,4.251138332877564,0.1234327571909495
13.972764,4.2646411814232845,0.123101559254754
13.975152,4.278423569222725,0.122749905622746
13.977536,4.298491798515137,0.1222410642666206
13.979932,4.316418157434272,0.121780475885826
13.98232,4.332482185233849,0.1213571674488329
13.984699999999998,4.343471076353955,0.1210556051698339
13.9871,4.3543201978472,0.1207683597637847
13.989488,4.358790930048857,0.1205813970658569
13.991867999999998,4.361678870384679,0.1204022865275426
13.994268,4.370712882586611,0.1200843853074725
13.996656,4.380817829975181,0.1197386746019865
13.999035999999998,4.389060446244196,0.1194270465942949
14.001432,4.399956789565684,0.1190829573410094
14.00382,4.4109929025140335,0.1187254099222273
14.006216,4.417373187663491,0.1184451821454594
14.008612,4.420820206506754,0.118220942193956
14.011,4.422404894230459,0.1180248801609534
14.013384,4.426271221954302,0.1177628263701055
14.01578,4.42585380893159,0.1176095423852505
14.018168,4.423294525535601,0.1175105377709854
14.020552,4.423808278072668,0.1173450363368946
14.022948,4.42124899467668,0.1172463080392746
14.025336,4.41389411385494,0.1172317127048593
14.027716,4.416037880086086,0.1169970729422517
14.030112,4.418321415944092,0.1167515244176876
14.0325,4.418742620682543,0.1165324162037199
14.03488,4.419443364674712,0.1162917455820302
14.03728,4.4198645694131615,0.1160718446139343
14.039668,4.42093740045767,0.1158600818326423
14.042048,4.418937195569123,0.1157153402038166
14.044444,4.418147695494073,0.1155342388309323
14.046832,4.41307445467247,0.1154542607220251
14.049212,4.404276551611753,0.1154312309345315
14.051608,4.401065641909707,0.1153231896946982
14.053996,4.399577293700357,0.1151981139754901
14.05638,4.401022211797203,0.1150190997728129
14.058776,4.406331561760022,0.1147706086245893
14.061164,4.415505343588813,0.1144608761111675
14.063548,4.426820995790882,0.1140988418697216
14.065952,4.43892804392587,0.1137357174619739
14.06834,4.443818085008108,0.1135264441383043
14.07072,4.45257255795632,0.1132513146755277
14.073116,4.463980757957007,0.112945612129819
14.075504,4.469103116464723,0.1127827269459551
14.077884,4.473945935718717,0.1126421849423524
14.080284,4.482653186838685,0.1124369437953176
14.082672,4.491220668331794,0.112244847541911
14.085052,4.504071890571456,0.1119573735185616
14.087448,4.518925213557536,0.1116354893065253
14.089836,4.5347097021033935,0.1113027776735397
14.09222,4.547001845835615,0.1110623368691927
14.094616,4.566371226993725,0.1106871789462956
14.097004,4.589744809644669,0.1102398143015607
14.0994,4.605529298190526,0.1099090074134384
14.101795999999998,4.624666361923161,0.1095029925692382
14.104183999999998,4.643291568976596,0.1090802339519026
14.106564,4.661265149723973,0.1086508426373688
14.108964,4.6704389315527655,0.1083650811718434
14.111351999999998,4.67868154782178,0.1080911628937829
14.113736,4.688134868904292,0.1077871182252254
14.116132,4.696936563680747,0.1074672412586676
14.118519999999998,4.702013596218089,0.1071967821912142
14.1209,4.705368067262733,0.1069401652736386
14.1233,4.7033678623741855,0.1067966328970234
14.15436,4.56017431620212,0.1067795772122013
14.156743999999998,4.550957104260824,0.1067699246724926
14.159144,4.5457440938123606,0.1066930743276232
14.161532,4.536526881871064,0.1066817916683921
14.163911999999998,4.536249238475213,0.1065282488336392
14.166312,4.539836026945334,0.1063204050023462
14.1687,4.547566786535151,0.106040109979649
14.171084,4.565867128364493,0.1055591032070409
14.17348,4.589382376500167,0.104990068924075
14.175868,4.617181365382394,0.1043441304765359
14.178252,4.644188958331704,0.1036975030586088
14.180648,4.671196551281014,0.1030560945920883
14.183036,4.695782734603327,0.1024693331275389
14.185415999999998,4.72036891792564,0.1018791614384383
14.187816,4.744675561994232,0.1013108829850707
14.190204,4.768842436435962,0.1007535307506796
14.192583999999998,4.798084447557165,0.1001204558817565
14.194988,4.826767380170928,0.0995280324515983
14.197376,4.86224801095686,0.0988439893290558
14.199756,4.895447001742655,0.0982161355816823
14.202152,4.925433186968532,0.0976520706463029
14.204536,4.951135631447857,0.097169085509561
14.206916,4.974416666300185,0.0967530012693439
14.20932,5.0035642337649024,0.0962616335648826
14.211708,5.029359226042844,0.0958510979292067
14.214088,5.050730707947372,0.0955265843982229
14.228416,5.101708704593967,0.0953135871557129
14.230816,5.115349426908677,0.095259748314185
14.233199999999998,5.134716912208917,0.095147659241662
14.235584,5.157157433442214,0.0949946532090739
14.23798,5.182670990608567,0.0948016457047802
14.240367999999998,5.203900807028365,0.0946806451428285
14.242748,5.226481097888522,0.0945248927229707
14.245143999999998,5.246267892069343,0.0943966073143556
14.247532,5.269267491810081,0.0942205242496417
14.249928,5.295200357857013,0.0940125581646093
14.252324,5.324346029463861,0.0937534299403405
14.254708,5.351769139578013,0.0935006363944145
14.257091999999998,5.372115012266277,0.0933385125196212
14.259488,5.3885964530885655,0.0932160109873229
14.261872,5.407499303537852,0.0930408660891067
14.264252,5.424679592494444,0.0928705787477446
14.266652,5.445212456637809,0.0926414278563463
14.269035999999998,5.467095795221535,0.0923739614519481
14.302488,5.389352002340456,0.0922944277833144
14.304875999999998,5.38027456002602,0.09225341061464
14.307256,5.376551793644775,0.0921334202379279
14.309656,5.376972998383225,0.0919605666211541
14.312043999999998,5.382748879054869,0.0917114026108512
14.314428,5.385731263047177,0.0914839181649715
14.316824,5.3919264525994,0.0912117408792585
14.319211999999998,5.401334447711539,0.0908954209797113
14.321608,5.42168411211554,0.0904606481689234
14.324004,5.44324448133304,0.0900021351504394
14.326392,5.459869483497927,0.0895943015868767
14.328772,5.475144011222456,0.0892185710839676
14.331168,5.4941904230143415,0.088764004479925
14.333556,5.5127249781270296,0.0882883456019749
14.335935999999998,5.534612108426493,0.0877591562089696
14.338336,5.553565972419761,0.0872589457375754
14.340724,5.575173563465507,0.0867439443294843
14.343104,5.599854190444304,0.0861887622610888
14.3455,5.624395047796242,0.0856447274098507
14.347888,5.648284278842122,0.0850937438244916
14.350272,5.665236042088974,0.0846171375095838
14.352672,5.67324823679038,0.0842320914272453
14.35506,5.675114359625675,0.0839206239022583
14.35744,5.674047216154775,0.0836397433636885
14.359836,5.667904936004402,0.0834152493738243
14.362224,5.659481015853894,0.0832269658769125
14.364603999999998,5.649054994956966,0.0830592336355526
14.367,5.634624772567206,0.0829317732703916
14.369388,5.61847198868475,0.0828068797967101
14.371784,5.60446107517557,0.0826532639935413
14.37418,5.593523197599447,0.0824655550369403
14.376568,5.58486696002346,0.0822417859892219
14.378948,5.572718377633836,0.0820748455531412
14.381344,5.56257189599063,0.0818876333376596
14.383732,5.551074939907065,0.0817299132900997
14.386112,5.543582185316335,0.0815338205541389
14.388512,5.53865060997946,0.0812871425114499
14.390896,5.533579265015726,0.0810484575947882
14.39328,5.530370251171551,0.0808000433397795
14.395676,5.527952633260291,0.0805549312524557
14.398064,5.531541317588283,0.0802557486528793
14.400448,5.543650261581139,0.0799011547432297
14.402844,5.557761306320414,0.0795256478968175
14.405232,5.5663779054996345,0.0792224398589053
14.407612,5.579929871731467,0.0788787924799564
14.410012,5.597625809082994,0.0784890942222208
14.4124,5.615181976807659,0.0781085139674638
14.41478,5.636462806771439,0.077708146937237
14.417176,5.655322227108221,0.0773532060289811
14.419564,5.672691403377783,0.0770386361664603
14.421948,5.691922910766904,0.0767170232510809
14.424344,5.70579974222283,0.0764576429892994
14.426732,5.72447217110451,0.0761670560013369
14.429116,5.748591823717997,0.0758616796280892
14.431512,5.772571706704626,0.0755645335606771
14.4339,5.796411820064394,0.0752797856351221
14.436279999999998,5.818482150103224,0.0750490938313169
14.438676,5.84162341532869,0.0748079336223166
14.441068,5.860900248688184,0.0745928203934881
14.443464,5.876033110927984,0.0744173886891462
14.445863999999998,5.885019901301671,0.0742988564177991
14.448251999999998,5.892284130182664,0.0741825625685344
14.450636,5.903552560556488,0.0740356358590219
14.453027999999998,5.920315436490368,0.073821338672454
14.455416,5.934005276491193,0.0736368020750678
14.457796,5.947695116492016,0.0734539027445481
14.460192,5.961524726119699,0.07326415631896
14.46258,5.970698507948492,0.0730941758538778
14.46496,5.980012059404146,0.0729168561202739
14.467356,5.987603049367102,0.0727400327268021
14.469744,5.993331708210501,0.0725720840931787
14.472124,6.005346208546872,0.0723431583855742
14.474528,6.0137758162709885,0.0721234511556893
14.476916,6.01461632989002,0.0719427770099078
14.4793,6.016947087576269,0.071729560385631
14.481696,6.012340377463489,0.0715631302072844
14.484084,6.004288544365318,0.0713961233505828
14.486468,5.994094840893868,0.0712510961076562
14.488864,5.988836504475032,0.0710731690138819
14.491252,5.989864009549165,0.0708370154804769
14.493632,5.99731712574313,0.0705359295787434
14.496028,6.002768141190678,0.0702496360898778
14.498416,6.00621705589181,0.0699799215372191
14.500796,6.011528301712498,0.0697060242021595
14.503196,6.015768612346547,0.0694422841353369
14.505584,6.021079858167235,0.0691700280122418
14.507964,6.030395305480757,0.0688737797685334
14.51036,6.045437515779808,0.068552684749608
14.512748,6.06061949570572,0.0682252401448685
14.515144,6.076872410818271,0.0678878894698714
14.51754,6.092985556303962,0.0675584087612822
14.519927999999998,6.109238471416512,0.0672259907499
14.522308,6.128284883208398,0.066886780312775
14.524703999999998,6.148262460560063,0.0665435622417913
14.527091999999998,6.167680959404286,0.0662306930933543
14.529472,6.196039026793954,0.0658652295204059
14.531876,6.229052921982515,0.0654861838929059
14.534264,6.267281723477407,0.0650697567729039
14.536644,6.3013665538526045,0.0646878292313332
14.539039999999998,6.334100909787445,0.0643348253391276
14.541427999999998,6.363342920908648,0.0640273321343445
14.543812,6.393516097589631,0.0637176049432949
14.546207999999998,6.424480670203532,0.0634151364506676
14.548595999999998,6.451301271697737,0.0631445140214681
14.550976,6.481194909125,0.0628546984056719
14.553372,6.509598302485042,0.0625962332025144
14.55576,6.530784688792334,0.0623881310724238
14.55814,6.549037808793432,0.0621950164648522
14.560536,6.566080223981033,0.0620174129148536
14.562924,6.586055905474827,0.0618289872303385
14.565308,6.608033687715038,0.0616313187057228
14.567704,6.627729829955112,0.0614591666031123
14.570088,6.644492705888992,0.0613003202248403
14.572487999999998,6.662186747382649,0.0611396784842368
14.574884,6.677227061823832,0.0609782006025258
14.577272,6.691475980332097,0.0608152489120876
14.579652,6.702140006228108,0.0606535198432684
14.582048,6.706657960258009,0.0605287643101137
14.584435999999998,6.713457554288047,0.0603816842740558
14.58682,6.713459450145916,0.0602587372719433
14.589216,6.712530180444007,0.0601373338196003
14.591608,6.713603011488514,0.0600065702754243
14.593988,6.710811410667048,0.0598889046074166
14.596384,6.71016168021886,0.0597551775424253
14.598772,6.705647517904699,0.0596343740173633
14.601152,6.701692434097977,0.0594884622536691
14.603552,6.699879220664532,0.0593257808872651
14.60594,6.699416481671448,0.0591427604212152
14.60832,6.698162346745443,0.0589541881444877
14.610715999999998,6.692904010326607,0.0587850368142632
14.613103999999998,6.682710306855157,0.0586358655316255
14.615488,6.671585437823929,0.0584878629862924
14.617883999999998,6.661531503979341,0.0583316220684089
14.620271999999998,6.654550606067807,0.0581588163037935
14.622656,6.652505075208885,0.0579666148352176
14.625051999999998,6.64617580360341,0.0578054747827568
14.627439999999998,6.643710963863907,0.0576327836995519
14.629824,6.64459869931118,0.0574310712087082
14.632219999999998,6.6434843340120375,0.0572382920816385
14.634607999999998,6.65158907651206,0.056997180123732
14.636992,6.66318616382572,0.0567224416304259
14.639388,6.674131624833321,0.0564385738655602
14.641775999999998,6.689360826587476,0.0561263910200789
14.64416,6.705009337222212,0.0557980744172194
14.646556,6.723730883790004,0.0554549296034365
14.648943999999998,6.742871739238376,0.0550965797396341
14.651328,6.766016796179581,0.0547246417182761
14.653732,6.786740443493789,0.0543797646608954
14.656116,6.810676896367912,0.0540151080034503
14.658496,6.835544514801815,0.0536497322924725
14.6609,6.863764708422493,0.0532573484736845
14.663288,6.891053736483392,0.0528646701756478
14.665667999999998,6.916340663797874,0.0524793911075214
14.668064,6.934829892940188,0.0521117442231184
14.670452,6.945310719096835,0.0517732228142217
14.672831999999998,6.952858278947287,0.0514402838455321
14.675236,6.9562618676780446,0.0511287376121449
14.67762,6.9563128812220265,0.0508435272600444
