Time,Force,Position
12.963676,3.2053851624025245,0.1523143541105287
12.966064,3.204967749379813,0.1521141605203806
12.968448,3.202128926730104,0.1520401640753383
12.970844,3.2074382766929226,0.1516429883126666
12.973232,3.217171137029155,0.1510471674867578
12.975611999999998,3.230116802925304,0.1503077188577335
12.978016,3.2391980369554787,0.1497097928846814
12.980404,3.24958252359777,0.1491295420789077
12.982784,3.25940793173262,0.1486117070683171
12.98518,3.274028937293222,0.1479318052166937
12.987568,3.287718777294046,0.1472778569310474
12.989952,3.295262545428759,0.1468749652314567
12.992348,3.3066707454294457,0.1463429014525485
12.994736,3.3170080102434936,0.1458646804451164
12.997115999999998,3.3304183109905967,0.1452823683891971
12.999512,3.336099748005753,0.1449423601967102
13.0019,3.344295142446524,0.1445636759639093
13.004279999999998,3.354352868006851,0.144131907562992
13.00668,3.3662729246867342,0.1436408301376297
13.009068,3.376610189500782,0.1431725783728982
13.011447999999998,3.384805583941553,0.1427960842514221
13.013844,3.393140748009184,0.142395911967787
13.016232,3.40426940875615,0.1419110404379002
13.018628,3.409903623943064,0.1416625361374534
13.021023999999995,3.4112540983834223,0.1415876184670655
13.028188,3.4103701546518868,0.1415281350645713
13.030576,3.414142038719244,0.1413394392223098
13.032956,3.416703217973101,0.1412103330952551
13.035352,3.420195562786737,0.1410552734022234
13.03774,3.4279716483469267,0.1407392275488263
13.040124,3.4337456331607,0.1404914937434433
13.04252,3.4392400787207533,0.1402767477064003
13.044908,3.440311013907392,0.1402373156012304
13.047287999999998,3.4511129135723944,0.1399077205456735
13.049684,3.456699906931064,0.1397633725045272
13.052072,3.4633578354763723,0.1395828359739987
13.054451999999998,3.474299504768235,0.1392546731063685
13.056852,3.486684196299074,0.1389256469079927
13.05924,3.500511910068888,0.13859794229701
13.061636,3.520066386824233,0.1381236390916912
13.064031999999996,3.537898302086881,0.1376790988682784
13.066419999999995,3.5577323180959466,0.137166090124594
13.0688,3.5784974996647905,0.1366250134249755
13.071195999999995,3.599122911606774,0.1361053523726684
13.073587999999996,3.624543920974508,0.1354503587793505
13.075968,3.646891894409188,0.1348900960074401
13.116595999999998,3.744970184831313,0.1348242098713386
13.118976,3.749439021175101,0.134812357002799
13.121379999999998,3.75404762714575,0.1347882185083442
13.123767999999998,3.76494207460937,0.1345806362334909
13.126147999999995,3.776116061326709,0.1343430533579315
13.128543999999998,3.78756958729777,0.1340750165342941
13.130927999999995,3.801164983642107,0.1337383267150777
13.133312,3.820906451852556,0.133228272707679
13.135707999999996,3.8398565241300857,0.132727842296545
13.138095999999996,3.8620194019675314,0.1321249137831071
13.140476,3.88231994868542,0.1315622924302597
13.142871999999995,3.9030398042838894,0.130963000430597
13.14526,3.9202673150687226,0.1304938789821259
13.14764,3.929114335815551,0.1301981421918343
13.150039999999995,3.9456902202943263,0.1297144339506628
13.152424,3.961055399959604,0.129279867769035
13.154808,3.9773517451846585,0.1288286318118036
13.157204,3.994579255969493,0.1283498854998417
13.159588,4.011946536381187,0.1278680867337368
13.161987999999996,4.021445183434072,0.1275837696059481
13.164383999999998,4.032945931233376,0.1272508842056321
13.166767999999998,4.03858014642029,0.1270624188520783
13.169152,4.045425066420701,0.1268338646107677
13.171547999999998,4.0490571808611975,0.1267029521454545
13.173935999999998,4.055622561607889,0.1265060746638622
13.176319999999995,4.067123309407193,0.1261984008621375
13.178715999999998,4.08290779795305,0.1257815708715226
13.181103999999998,4.094036458700015,0.1254546078131517
13.183484,4.104094184260343,0.1251560237594407
13.185876,4.112801435380311,0.1249123843740966
13.188264,4.124441952806476,0.1246079736705953
13.190659999999998,4.137013635792417,0.1242914814437934
13.193064,4.153077663591995,0.1238675013761499
13.195452,4.178872655869937,0.1232401938625467
13.197827999999998,4.2028053170283215,0.1226607929557744
13.200228,4.227948683000205,0.1220437315607149
13.202611999999998,4.252812509718369,0.1214549482632205
13.204991999999995,4.281960077183087,0.1207624769553758
13.207387999999998,4.307755069461029,0.1201663757757792
13.209771999999996,4.34076706879172,0.1194004218403437
13.212152,4.36749322662944,0.1187819131847642
13.214555999999998,4.396501024467298,0.1180921320935914
13.216943999999998,4.421364851185461,0.1175085857397465
13.219324,4.444226577157208,0.1169672386523158
13.286247999999995,4.388368018717724,0.1166136631860933
13.288632,4.387484074986189,0.1165622287857871
13.291011999999998,4.386041052747213,0.1165568581658434
13.295807999999996,4.381851755657145,0.1165296102353498
13.298188,4.380036646365832,0.1164925375589123
13.302975999999996,4.371890369611173,0.1164803612890396
13.307751999999995,4.360206422072505,0.1164458890419172
13.310143999999998,4.353503167556822,0.1164365468622648
13.312524,4.351875049720612,0.1163224846857822
13.314919999999995,4.3556016078175945,0.1160812328227337
13.317307999999995,4.361330266660994,0.115800759805215
13.319688,4.365987990317755,0.1155451778051979
13.322087999999995,4.37520899397479,0.1151708140405678
13.324475999999995,4.387503033564881,0.1147408770025737
13.326856,4.402730339461168,0.1142627458990415
13.329255999999996,4.4143727527452,0.1138285982793983
13.33164,4.429739828268348,0.1133401992702106
13.334024,4.44710900453791,0.1128193052338676
13.336427999999998,4.461964223381859,0.1123149947975466
13.338815999999998,4.478309686293026,0.1117521044340555
13.341196,4.494655149204194,0.1111903585919195
13.343595999999998,4.517006914354612,0.1105196277678482
13.345979999999996,4.537216809131753,0.1098982128834143
13.34836,4.562362070961506,0.1091982416488933
13.350755999999995,4.588950355030235,0.1085019994250062
13.353144,4.615119330218383,0.1078452935893441
13.355528,4.637563643167418,0.1072405365850422
13.357923999999995,4.658937020929815,0.1066580940906871
13.360312,4.674304096452961,0.1061839645098917
13.362696,4.688180927908888,0.1057711656529513
13.365091999999995,4.702197528991675,0.1053514314261984
13.367476,4.720078561940436,0.1048762157338451
13.369856,4.732604918956004,0.1045187678159318
13.372256,4.7400561392921,0.1042538069612733
13.37464,4.743642927762222,0.1040452484999821
13.377024,4.749324364777378,0.1038543181878876
13.37942,4.757007902538951,0.103633485202297
13.381808,4.76054746918083,0.1034880073036063
13.384187999999998,4.766740762875185,0.1033196883723057
13.386595999999995,4.772794286942679,0.1031621904223764
13.388983999999995,4.777776875823534,0.1030256959495632
13.391364,4.781408990264031,0.102932692019447
13.39376,4.788114140637582,0.1027880655292626
13.396148,4.790023693585381,0.1027074306272162
13.398532,4.791421389853984,0.1026069629644792
13.400935999999998,4.78988581981639,0.1025477985924203
13.403319999999995,4.794077012764327,0.102416593800237
13.405704,4.799059601645182,0.1022845384635936
13.408108,4.809117327205509,0.1020698289428057
13.410495999999998,4.81717295201942,0.1018858698095192
13.412875999999995,4.822946936833194,0.1017532097565053
13.415271999999998,4.82671882090055,0.1016527020267922
13.417659999999998,4.832353036087463,0.1015316750081962
13.42004,4.836916316087738,0.1014298717305709
13.422435999999998,4.845064488700266,0.1012966987471843
13.424823999999996,4.8544233661262925,0.1011341313260494
13.427204,4.86271130836568,0.100994692851571
13.429599999999995,4.875934617657679,0.1007859191160493
13.431987999999995,4.890740718815516,0.1005795240608659
13.434372,4.908060777398966,0.1003652209366809
13.436767999999995,4.929245267848391,0.1001043522643077
13.439155999999995,4.949778131991756,0.0998375005523199
13.441536,4.968169125761846,0.099611262902936
13.443939999999998,4.988282681024633,0.0993761254491236
13.446327999999998,5.011981128899671,0.0991161991759526
13.448708,5.039823547894403,0.0987911654339183
13.451103999999996,5.061008038343827,0.0985428911394666
13.453491999999995,5.08368277286047,0.098249653280196
13.455876,5.106077968123393,0.097979747011835
13.458271999999996,5.132756904132871,0.0976400393466331
13.460659999999995,5.160506775328986,0.0972804563389263
13.46304,5.18960712096546,0.0968895378058793
13.465439999999996,5.219126775482514,0.0964753100081505
13.467827999999995,5.254001105932764,0.0959753548901384
13.470208,5.287152874890314,0.0954870429441487
13.472603999999995,5.320444413474725,0.0949959677358131
13.474992,5.351873620939579,0.0945256686366056
13.477376,5.377715835045765,0.0941061392282524
13.479771999999995,5.402115026912973,0.0936811768128812
13.48216,5.4241400309814285,0.093257499763641
13.48454,5.444302703930326,0.0928546171531548
13.486939999999995,5.462183736879088,0.0924939699810064
13.489327999999997,5.480204539454708,0.0921249751835846
13.491708,5.496502780537631,0.0917631567092824
13.494107999999995,5.509867755314361,0.0914358604948541
13.496495999999995,5.520299463784896,0.091141521138807
13.498876,5.532174194494407,0.0908550699336697
13.501275999999995,5.546562882629531,0.0905676598104542
13.503663999999995,5.559229009271959,0.0902881956200221
13.506048,5.570824200727749,0.090028915449738
13.508443999999995,5.583630096997037,0.0897466709170783
13.510831999999995,5.593362957333271,0.0895041318201208
13.513212,5.6036076743487016,0.0892818640470053
13.515615999999998,5.610360046550497,0.0891235838696856
13.518003999999998,5.616041483565652,0.0889802198995096
13.520384,5.618138027968556,0.0888560580381391
13.522779999999996,5.617021766811543,0.0887767050126892
13.525167999999995,5.620701103080282,0.0886547240344692
13.527548,5.623449273789243,0.0885400842192699
13.529951999999998,5.626197444498204,0.0884257207920109
13.532339999999998,5.62615211852783,0.0883313207547308
13.53472,5.629319598117371,0.0881923524126132
13.537115999999996,5.631276372893415,0.0880763559051758
13.539503999999996,5.635886874721933,0.087949004445013
13.541884,5.64049737655045,0.0878216529848502
13.544283999999998,5.647761605431443,0.0876831222805794
13.546668,5.660660049499348,0.0874561209081782
13.549052,5.667691960954865,0.0872852000293547
13.551447999999995,5.674863642037241,0.0871065585385441
13.553835999999997,5.676960186440142,0.0869841919334739
13.556216,5.678916961216186,0.0868705676515607
13.558615999999995,5.680733966365368,0.0867647254233496
13.561,5.679897244462076,0.0866699218205537
13.563395999999996,5.678408896252726,0.0865650223187757
13.5658,5.6789226487897935,0.0864393724300763
13.568188,5.682090128379334,0.0863028972545093
13.570567999999998,5.694336946141182,0.0860708306353433
13.572964,5.705512828716391,0.0858551352833841
13.575352,5.713475905731685,0.0856809586644643
13.577731999999996,5.723441083493396,0.0854881581596645
13.580132,5.737270693121079,0.0852638460926924
13.58252,5.74616493569615,0.085085580009402
13.584899999999998,5.758551523084858,0.0848503939867567
13.5873,5.767632757115033,0.0846155277884952
13.589688,5.774060264092734,0.0843892035174988
13.592067999999998,5.780115684018098,0.084138712272342
13.594472,5.781887363196906,0.0839450808099337
13.596856,5.785289056069794,0.0837054418955687
13.599235999999998,5.788970288196403,0.0834506462269873
13.601627999999998,5.797866426629344,0.083136133839322
13.604015999999998,5.801966967636534,0.0828560774219577
13.606396,5.808209379017001,0.0825492320677337
13.6088,5.813520624837687,0.0822466502248445
13.611188,5.819902805845014,0.0819304079198159
13.613564,5.824702194986504,0.0816099956499851
13.615972,5.828570418568216,0.0812959227979986
13.618356,5.824058152111923,0.0810323216152507
13.620739999999998,5.815541684162796,0.0808052067257961
13.62314,5.812379892146862,0.0805114382030596
13.625528,5.805074129011234,0.0802626048894133
13.627907999999998,5.79497486919627,0.0800296280726245
13.630304,5.79009051568764,0.0797387007037095
13.632692,5.781993356619095,0.0794869802492194
13.635071999999996,5.776689694229884,0.0792195245738091
13.637476,5.775390233333506,0.0789155567540813
13.639864,5.769807031690576,0.078662169676583
13.642243999999998,5.759148693368172,0.0784561382028146
13.644644,5.747139880605409,0.0782777552717697
13.647032,5.733501054148567,0.07814353571934
13.649411999999998,5.715718256572031,0.0780526250583205
13.651816,5.703941761234746,0.0779072846102054
13.654204,5.691234100337683,0.0777664826783652
13.656584,5.681599475373675,0.0775945495136267
13.658987999999995,5.673035785596305,0.0774096965110434
13.661372,5.668196758058049,0.0772061657480416
13.663752,5.661635169027097,0.0770034938903777
13.666152,5.657587537421758,0.0768015923205815
13.668536,5.657963416189834,0.0765410764825438
13.67092,5.656197424584633,0.0763065610076057
13.673316,5.656573303352708,0.0760465976285932
13.675704,5.6558782469341455,0.0757979756522906
13.678083999999998,5.650899449769029,0.0755989473830743
13.68048,5.647131357417411,0.0753793849904039
13.682872,5.6430837258120725,0.0751761319389273
13.685251999999998,5.637033993460317,0.0749892214675284
13.687655999999995,5.636990563347814,0.0747533590229503
13.690044,5.646306010661334,0.0744246555329183
13.692424,5.65948588984083,0.074071973473877
13.694827999999998,5.674016243460682,0.0736912716419673
13.697215999999996,5.6920389418941735,0.0732598117613538
13.699596,5.711412114768021,0.0728085124065707
13.701991999999995,5.73078528764187,0.0723586840715247
13.704379999999995,5.746805885328944,0.0719512372564732
13.70676,5.761615778202518,0.0715649574745146
13.709156,5.773492404769898,0.0712010530083794
13.711544,5.7881625280166125,0.0708263890218866
13.713924,5.803763816823105,0.0704493219954403
13.71632,5.818945796749017,0.0700977099340447
13.718712,5.83291707186143,0.0697646333271648
13.721087999999998,5.845677642160344,0.069450079851754
13.723495999999995,5.862442413952094,0.0691074870676181
13.72588,5.879346955370702,0.0687550104173811
13.72826,5.897974058282006,0.0684060412953024
13.730663999999996,5.916880700447032,0.068044693755455
13.733051999999995,5.938301300037671,0.0676896359568318
13.735432,5.956648863695255,0.0673626479328418
13.737835999999998,5.970572916979427,0.0670889608686069
13.740219999999995,5.98263463914404,0.066823337541427
13.742604,5.99627915317449,0.0665676120508182
13.745008,6.010295754257277,0.0663406089340047
13.747391999999998,6.023473737578904,0.0661602108452611
13.749772,6.034509850527253,0.0659994025339347
13.752167999999998,6.0478276034757394,0.0658110706043028
13.754555999999996,6.063147457170642,0.0656114151427456
13.756936,6.076045901238547,0.0654451757409736
13.759339999999998,6.086802474933176,0.0652990870210031
13.761727999999998,6.096907422321746,0.0651423228837242
13.764108,6.106360743404258,0.0649748667198443
13.766503999999998,6.1219601363528815,0.0647657043456903
13.768891999999996,6.145567932287172,0.0645120577839451
13.771272,6.165683383407827,0.0643013787731955
13.773667999999995,6.189383727140735,0.0640881724129348
13.776055999999995,6.213084070873642,0.0638778433988739
13.778436,6.23650487535283,0.0636832840248573
13.780832,6.260484758339459,0.0634641327871952
13.78322,6.284604410952948,0.0632390946829958
13.7856,6.309934768379935,0.0629993172294991
13.787996,6.336987687299619,0.0627638539057835
13.790384,6.36674155510002,0.062488751165404
13.792763999999998,6.392630991034448,0.0622288772052942
13.79516,6.412933433610206,0.0619812171877517
13.797548,6.439242178425214,0.0617032711397375
13.799927999999998,6.468344419919559,0.0614222425716616
13.802332,6.494513395107707,0.0611550978708139
13.80472,6.523243549549713,0.0608504738596555
13.807099999999998,6.556257444738274,0.0605144928288279
13.809496,6.589922966232892,0.0601920076938145
13.811884,6.62316917884693,0.0598904200319803
13.814263999999998,6.647475822915522,0.0596327779140111
13.81666,6.660980567319111,0.059421955827863
13.819048,6.679188361349835,0.0591606300824663
13.821444,6.698886399447779,0.0588751148762761
13.823839999999995,6.712578135306472,0.0586176469765184
13.826228,6.722265669672331,0.0583785535403038
13.828608,6.728740398478274,0.0581643124562925
13.831004,6.738148393590412,0.0579407999608844
13.833392,6.747835927956272,0.0577061127033269
13.835772,6.756871836016073,0.0574617959477858
13.838175999999995,6.760553068142682,0.0572570860702553
13.84056,6.769449206575623,0.0570218808960467
13.842944,6.78155815056848,0.0567636307915726
13.84534,6.787940331575808,0.0565202223827888
13.847728,6.791668785530659,0.0562755651794751
13.850108,6.797539109858788,0.0560167523245257
13.852504,6.80727386605289,0.055749945826025
13.854892,6.812864651127298,0.0555067058654019
13.857271999999998,6.818874745082288,0.0552464694347718
13.859668,6.828237414224051,0.0549610059985243
13.862056,6.843466615978207,0.0546577188110736
13.864435999999998,6.861629084038556,0.0543437520306021
13.866836,6.876578746538991,0.0540532256956162
13.869224,6.887524207546592,0.0537796729375575
13.87162,6.904615740420304,0.0534771274292489
13.874015999999996,6.926922179600349,0.0531467900265033
13.876403999999996,6.952301654713449,0.0528038063590883
13.878784,6.972745762773936,0.0524778222839233
13.881179999999995,6.9887663604610095,0.0521842029133721
13.883568,7.003576253334584,0.0519043302982705
13.885948,7.016384045461742,0.0516302978063188
13.888344,7.023976931282567,0.0513840694835907
13.890732,7.03343214822295,0.0511381698713827
13.893112,7.040605725163193,0.0509093848732791
13.895508,7.047359993222857,0.0506988880016537
13.897896,7.050901455722606,0.0505077575270095
13.900292,7.049367781542882,0.0503376751615512
