Time,Force,Position
15.305219999999998,3.274418087066383,0.1456873224725448
15.307616,3.279495119603724,0.145243951127181
15.310004,3.2806604984468493,0.1450211020001095
15.312383999999998,3.2804754028496146,0.1448768827288788
15.314784,3.277357040946185,0.1448332497042369
15.317172,3.2750300749756738,0.1447782745880088
15.319551999999998,3.278988950498134,0.1444701384141631
15.321956,3.27894362452776,0.1443082901150832
15.324344,3.2815520256098614,0.1440798147816292
15.326724,3.288024858557936,0.1437231933186115
15.32912,3.291517203371572,0.1435600518660315
15.331508,3.2967321096779045,0.143356870602122
15.333892,3.304460973409852,0.1431085014327778
15.336295999999995,3.314564024940553,0.1428292622650358
15.33868,3.3198242572172587,0.1427923907994198
15.341064,3.328529612479357,0.1426871226865368
15.34346,3.337467285166934,0.1426342590237309
15.345848,3.351619864160843,0.1424030461765268
15.348228,3.363910112035195,0.1422197366819093
15.350624,3.3808561877084387,0.1419206826909958
15.353012,3.395148536329208,0.1416812788996913
15.355391999999998,3.415447187189228,0.1412525567639171
15.357795999999995,3.437887708422525,0.1407402054323961
15.36018,3.460467999282682,0.1402112705035594
15.362559999999998,3.4886352835015084,0.1395323504185806
15.36496,3.5188046684667524,0.1387950631401976
15.367348,3.543619377498804,0.1382674325014303
15.369732,3.57122758321019,0.137661633092657
15.372128,3.596833688175159,0.1371244837667567
15.374516,3.620297922766851,0.1366710169132003
15.3769,3.644041696612263,0.1361907035394585
15.379296,3.6699273408309527,0.135639595185835
15.381684,3.6923678620642497,0.1351571679842613
15.384064,3.7104320947523752,0.1347559886912989
15.38646,3.727565161880722,0.1343766012407125
15.388848,3.737900530836901,0.1341865467843203
15.410352,3.7713242556166966,0.133974259322156
15.412736,3.772115651549615,0.1339675932643856
15.415139999999996,3.776259622669308,0.1338451444034608
15.417527999999995,3.779612197856084,0.1337296050292704
15.419908,3.7872485137894154,0.1334828880470735
15.422307999999996,3.79809763528266,0.1331407025491928
15.424692,3.807363964910069,0.1328116650171834
15.427076,3.817561460097256,0.1324706679319426
15.429475999999998,3.831064308642977,0.1320958882667092
15.431863999999996,3.850945546480285,0.1316035325941751
15.434244,3.870314927638396,0.1310877662329998
15.436639999999995,3.895550841408896,0.1304238459569464
15.439027999999997,3.9215781511123153,0.1297612340430615
15.441408,3.9499796486144887,0.1290682059030424
15.443804,3.9794520813033007,0.12836151334455
15.446192,4.008272887686055,0.1276505904667872
15.448572,4.038676485934645,0.1269317295175992
15.450968,4.069871480116154,0.1262064257702365
15.453356,4.099715999857303,0.125548943343513
15.455735999999998,4.128629354038674,0.1249127509910089
15.458132,4.1591255000858816,0.1242790415328777
15.46052,4.187851862812149,0.1237420241015769
15.462903999999998,4.211223549605224,0.1233547280645204
15.4653,4.238739207517992,0.12286975962818
15.467688,4.261971124684208,0.1225136545392981
15.470071999999998,4.281850466663647,0.1222622704749359
15.472472,4.301170730135645,0.1220573878780072
15.47486,4.314344921741532,0.1220025084362313
15.477244,4.324353529615748,0.1219673067738419
15.47964,4.331848180064348,0.1219596656615993
15.482028,4.342136327192284,0.121903802278936
15.484407999999998,4.355497510253275,0.1217811080081788
15.486811999999995,4.3694177718217055,0.1216155152610734
15.4892,4.384968047084217,0.1213766899691438
15.49158,4.3991678479063685,0.1211930862033603
15.493979999999995,4.412156943915022,0.1210467859132436
15.496364,4.426636283990894,0.1208438654675516
15.498748,4.440463997760709,0.1206331046681074
15.501144,4.453360545970745,0.1204372341033866
15.503532,4.470121526046755,0.120175544702345
15.505912,4.483018074256791,0.1199845761086382
15.508308,4.497544636160907,0.1197238154634371
15.5107,4.518217269931133,0.1193303153307669
15.51308,4.53139335739489,0.1191171520150958
15.51548,4.54284688336595,0.1189198663005812
15.517868,4.557652984523786,0.1186370871248729
15.520248,4.573669790495121,0.1183154511658527
15.522644,4.592899402026371,0.1179103870267034
15.525032,4.610778539117263,0.1175506025776401
15.527427999999995,4.628937215461875,0.1171731585498646
15.529827999999998,4.644162625500292,0.1168528969731965
15.532215999999998,4.65259033736654,0.1166600720509094
15.534595999999995,4.658876178859511,0.1165200045537889
15.536991999999998,4.667024351472039,0.1163549487301424
15.539379999999998,4.671727401099175,0.1162233460093006
15.541763999999995,4.67657022035317,0.1160798067397393
15.544159999999998,4.678479773300969,0.1159900216035959
15.546551999999998,4.68080863512935,0.1158679018581895
15.548931999999995,4.683696575465171,0.1157026156892094
15.551327999999998,4.678995421695905,0.1156566415153393
15.553719999999998,4.678857547926913,0.1154923467633809
15.556099999999995,4.677508969344424,0.1153631265549316
15.5585,4.67364643333632,0.1152522843542422
15.560883999999998,4.672484846208932,0.1150502782283383
15.563267999999995,4.674396295014601,0.1147867790714856
15.565663999999998,4.6673681752748255,0.11468533919002
15.568051999999998,4.661410990721687,0.1145596697214613
15.570432,4.654662410235631,0.1144363546721999
15.572827999999998,4.65219757049613,0.1142164863993176
15.575215999999998,4.649453191502906,0.1140188178872695
15.577599999999997,4.6477797476963225,0.113796986542376
15.579995999999998,4.648248174263015,0.1135265444399165
15.582383999999998,4.645503795269794,0.1133269475906767
15.584767999999997,4.636753114037321,0.1132398266005259
15.587163999999998,4.628933598364625,0.1131391442759586
15.589551999999998,4.621114082691931,0.1130385131825407
15.591932,4.613434336646096,0.1129264660395706
15.594327999999996,4.608408317652736,0.1127850186174898
15.596719999999998,4.601100658659239,0.1127020611866881
15.5991,4.597657431531715,0.1125546023388693
15.601495999999996,4.589790694030777,0.1125143627995199
15.603883999999995,4.582203495783559,0.1124520404686726
15.606268,4.57633885902904,0.112373796244771
15.608663999999996,4.571405387834296,0.1122822887114324
15.611051999999995,4.564330046266277,0.1122376731799668
15.613436,4.563540546191228,0.1120606602663622
15.615831999999996,4.56195965018326,0.1118861429939855
15.618223999999998,4.561449689361932,0.1116875905634922
15.620604,4.561731124473522,0.1114894094934431
15.623003999999998,4.558287897345999,0.111340786302555
15.625391999999998,4.554984439845335,0.1111813250513475
15.627775999999995,4.552332608650729,0.1110310464787778
15.630171999999998,4.557037554135733,0.1107310087483219
15.632559999999998,4.564815535553792,0.1103699359875799
15.634943999999996,4.576318179210964,0.1099620216903479
15.637344,4.5890315276816365,0.1095200312504574
15.639727999999998,4.598532070592392,0.1091444119254596
15.642107999999997,4.601095145704119,0.1088875963302066
15.644512,4.608593587868458,0.1085484468952778
15.646895999999998,4.617023195592576,0.1081984772511967
15.649275999999997,4.6245216377569145,0.107858104543086
15.65168,4.6318803102943935,0.1075293255021667
15.654063999999998,4.631090810219344,0.1073514083097369
15.656443999999995,4.629230374957657,0.1071966233580588
15.658848,4.627509709322829,0.1070303975533045
15.661236,4.6284427707404765,0.1068390053445792
15.663611999999995,4.626023256971349,0.1067272145969432
15.666007999999998,4.6254660743217775,0.1065911696959575
15.668395999999998,4.620904690179373,0.1065255444897461
15.670776,4.6197884290223605,0.1064326980862307
15.67318,4.618392628611627,0.1063614002555998
15.675563999999998,4.617416137081474,0.1062581810210338
15.677944,4.610433343312072,0.1062577015556597
15.680348,4.605312880662225,0.1062333473457616
15.682735999999998,4.598469856519683,0.1062206124993505
15.685115999999995,4.593209624242977,0.1062056488303157
15.68752,4.593024528645744,0.1061033398469378
15.689904,4.602570397526873,0.105859166386038
15.692283999999995,4.605970194541892,0.1057231527670921
15.694679999999998,4.611372092303328,0.1055568702117165
15.697067999999998,4.61877609081118,0.1053576835151367
15.699448,4.626180089319034,0.1051589351930589
15.701852,4.6415924908125525,0.1048268346891836
15.704235999999998,4.660869324172047,0.1044436866560027
15.706615999999997,4.683870819770654,0.1040203577509414
15.709011999999998,4.704730444995984,0.1036453688408366
15.711399999999998,4.7306652069007855,0.1031841428046427
15.713796,4.755389263992089,0.1027595745387893
15.716192,4.779973551456532,0.1023417790733664
15.71858,4.806839478921112,0.1018786875075602
15.720955999999996,4.833845176012552,0.101406210186127
15.72336,4.858289693850135,0.1010057773784392
15.725748,4.884456773180414,0.1005923748771188
15.728127999999998,4.908761521391136,0.1002038660529862
15.730532,4.928922298482165,0.0998854664971303
15.732916,4.949642154080635,0.0995333952967286
15.7353,4.969430844119327,0.0991966905147384
15.737696,4.980699274493152,0.0989624010281386
15.74008,4.99732238080017,0.0986297761663528
15.742463999999998,5.009010120054577,0.0983670720289832
15.74486,5.023491355988319,0.0980784605973061
15.747243999999998,5.034899555989005,0.0978358696473186
15.749623999999995,5.049660331176467,0.0975335040804405
15.752028,5.06321040155043,0.0972640095788819
15.754416,5.07303580968528,0.0970325227618802
15.756795999999998,5.08286121782013,0.0968022276478731
15.759192,5.090964064462285,0.0965820716736914
15.76158,5.099206680731299,0.0963539269997684
15.763959999999996,5.111593268120007,0.0960649482703801
15.766355999999998,5.118113322896324,0.0958464520150965
15.768743999999998,5.127426874351976,0.0956044827061398
15.77114,5.141163936181044,0.0952848584414729
15.773543999999998,5.153830062823472,0.0949816779581403
15.775927999999997,5.1655650239061215,0.0946867750475494
15.778312,5.1793020857351895,0.0943623280260053
15.780704,5.192340299429954,0.0940877776783571
15.783092,5.201886168311083,0.0938832693386631
15.785472,5.214085764244689,0.0936611413397297
15.787868,5.225214424991655,0.0934596138845347
15.790256,5.240347287231454,0.0932072426712563
15.792635999999998,5.250684552045501,0.0930061269379225
15.795036,5.2670281190988,0.0927287030903845
15.79742,5.276946075032266,0.092557797555325
15.799799999999998,5.28421030391326,0.0924024713872733
15.802196,5.296270130220004,0.0922007465534146
15.804583999999998,5.305815999101133,0.0920046393639876
15.806976,5.31708442947496,0.0918035715088557
15.809379999999996,5.32649052872923,0.0916183405888768
15.811764,5.3321719657443865,0.0914650353204824
15.814144,5.343719935371933,0.0912493185617352
15.816547999999996,5.352474408320145,0.0910579191212614
15.818935999999995,5.354151643842467,0.0909531177063468
15.821316,5.359972850484484,0.0907934160888109
15.823711999999995,5.367516618619196,0.0906279297444353
15.8261,5.380135523433381,0.090402255096158
15.82848,5.389169535635313,0.0901965143540885
15.830876,5.400904496717963,0.089923284650714
15.833264,5.413850162614114,0.0896266995104693
15.835643999999998,5.424653958136986,0.089362300001668
15.83804,5.433455652913439,0.0891225300804885
15.840428,5.443048743622812,0.0888824578201627
15.842807999999998,5.450499963958909,0.0886761313830979
15.845212,5.459022119481642,0.0884535359876547
15.8476,5.469406606123933,0.0882172607294507
15.84998,5.476857826460028,0.0880133856117429
15.852383999999995,5.48589183866196,0.0878122286668763
15.854771999999995,5.491992584557696,0.0876407046443209
15.857152,5.503028697506045,0.087420465659778
15.859548,5.5116434008273965,0.0872457224590221
15.861936,5.515322737096136,0.0871223226708362
15.864316,5.516860202991598,0.0870289408051284
15.866712,5.5234728055665325,0.0868753165709156
15.8691,5.529154242581689,0.0867306173877051
15.871479999999998,5.5333926573578704,0.0865742259643846
15.873876,5.532695705081438,0.0864682621088404
15.876264,5.535071788738062,0.0863260475734157
15.878643999999998,5.538099498700743,0.0861946750055059
15.881048,5.537914403103509,0.0861073062951917
15.883436,5.542944213812606,0.0859560318874933
15.885815999999998,5.547182628588787,0.0858027363541099
15.888212,5.5578466544847975,0.0855652117831082
15.8906,5.56892998926139,0.0853048375299309
15.892996,5.578290762545286,0.0850474805931717
15.8954,5.587791305456041,0.0847836206138971
15.897783999999998,5.591425315754407,0.0845702074700979
15.900164,5.59734096605291,0.0843215097247491
15.902559999999998,5.606329652284468,0.084039590965393
15.904947999999996,5.6083808707169975,0.0838240021664499
15.907328,5.614855599522941,0.0835436151453193
15.909731999999998,5.627476400194995,0.0831979249342852
15.912119999999998,5.643589545680685,0.0827945195843089
15.9145,5.658491986352876,0.0824144901627916
15.916895999999998,5.668598829599317,0.0820710866197305
15.919283999999998,5.679357299151813,0.0817384675824006
15.921664,5.689975999077452,0.0814128787372184
15.924059999999995,5.70059469900309,0.0810895010339626
15.926447999999995,5.711213398928726,0.0807678505570786
15.928832,5.7270470051606965,0.0803879929415079
15.931224,5.737805474713195,0.0800624812443016
15.933612,5.749075800944891,0.0797550973806631
15.935992,5.753268889750697,0.0795186884250275
15.938388,5.756530812996725,0.079288456542038
15.94078,5.762726002548947,0.0790351319862315
15.94316,5.761983724302142,0.0788391533284294
15.945556,5.767387517921446,0.0785792352302529
15.947944,5.768787110047919,0.0783561530675245
15.950339999999995,5.768464140681695,0.0781362712116869
15.952735999999998,5.771214207248524,0.077884522369951
15.955123999999998,5.773684734561633,0.0776498179051602
15.957504,5.771219894822131,0.0774564513484019
15.959908,5.768335746202048,0.0772870658326997
15.962295999999998,5.766802072022324,0.0770900484758972
15.964675999999995,5.769132829708574,0.0768662415903557
15.96708,5.774396853701019,0.0766224748039252
15.969468,5.78287368325338,0.0763429591496781
15.971843999999995,5.7864151457531285,0.0761002563972818
15.974248,5.788373816387041,0.0758514529797499
15.976636,5.787538990341619,0.0756173677701025
15.979015999999998,5.788566495415752,0.075374778610182
15.981412,5.791084244557105,0.0750979839499777
15.983795999999998,5.7942536200045165,0.0748308256195588
15.986175999999997,5.798074621757984,0.0745755668486442
15.98858,5.801895623511452,0.0743216146201917
15.990963999999998,5.816378755303065,0.0739986775062012
15.993343999999995,5.830582347840954,0.0736931569706292
15.995743999999998,5.849441768177735,0.0733683923518543
15.998127999999998,5.869883980380354,0.0730532060616008
16.000511999999997,5.888184322209696,0.072760470607575
16.002907999999998,5.90569326810612,0.0724656568941305
16.005295999999998,5.921991509189043,0.0721887021767021
16.007672,5.9364274191524125,0.0719201333257033
16.010067999999997,5.949792393929141,0.0716646522039031
16.012456,5.961015498332594,0.0714322253409763
16.01484,5.9685139404969325,0.0712163755154384
16.017235999999997,5.976012382661271,0.0710029127563194
16.019624,5.990448292624639,0.0707422528706383
16.022019999999998,6.006466994453843,0.0704901918637609
16.024424,6.024068488148885,0.0702478254980398
16.026808,6.036734614791314,0.0700362771548503
16.029187999999998,6.048190036620242,0.0698440632997423
16.031595999999997,6.063137803262808,0.0696060019036956
16.033984,6.07315020285276,0.0693984074790969
16.036364,6.083162602442715,0.0691922520220107
16.038763999999997,6.089450339793553,0.069001953207584
16.041148,6.094806911584616,0.0688154200539264
16.043528,6.096438821136563,0.0686423584668432
16.045928,6.095556773262899,0.0684648018985905
16.048316,6.102543358748039,0.0682428607626263
16.050696,6.112323440912516,0.0680136481376104
16.053099999999997,6.124897019756327,0.0677751099008495
16.055484,6.137330828973279,0.0675430109097777
16.057864,6.14855393337673,0.0673280387303392
16.060267999999997,6.164852174459655,0.0670790234551684
16.062655999999997,6.179799941102221,0.0668530549150935
16.065036,6.189532801438454,0.0666699956802947
16.067432,6.196052856214772,0.0665179918888173
16.06982,6.203643846177728,0.066357307107743
16.0722,6.202295267595238,0.0662488108398536
16.074596,6.206952991251999,0.0661016921782444
16.076984,6.212681650095398,0.065945215406711
16.079363999999998,6.218130769685078,0.0658043522946272
16.08176,6.231448522633563,0.065620996195238
16.084148,6.243835110022271,0.0654413883922956
16.086527999999998,6.254219596664562,0.0652745114370305
16.088932,6.267677119239909,0.0650876333612748
16.09132,6.283136742561672,0.0648893717774261
16.0937,6.300179157749271,0.0647007768854394
16.0961,6.309352939578063,0.0645540974926316
16.098488,6.312939728048186,0.0644221608720763
16.100868,6.318808156518446,0.0642663241179684
16.103264,6.32896032573526,0.0640753837332754
16.105648,6.345118797191322,0.0638528115812944
16.108031999999998,6.354479570475219,0.0636599429806115
16.110428,6.369986415625226,0.063428626567891
16.112816,6.3917791022682025,0.0631520923625973
16.115195999999997,6.412920162605122,0.06286446607824
16.117592,6.430196791076067,0.0625925821886834
16.119979999999998,6.4608364984658735,0.0622344775077193
16.122359999999997,6.488542939549485,0.0618908819334357
16.12476,6.517320315819736,0.0615422427638841
16.127143999999998,6.540370929104455,0.0612117600125084
16.129527999999997,6.561838750523337,0.0608769485078002
16.131928,6.5830270326884985,0.0605557185530696
16.134316,6.607288350786717,0.0602177988429376
16.136695999999997,6.629827107392237,0.059881146772983
16.1391,6.6505035328782025,0.0595489606792709
16.141484,6.670528332058109,0.059207183771751
16.143863999999997,6.693905706424791,0.0588356040285352
16.146268,6.720867973403727,0.0584639113053771
16.148656,6.741032542210493,0.0581165398871582
16.151031999999997,6.758124075084206,0.0577894415982123
16.153436,6.768557679412609,0.0574810066312979
16.15582,6.784997585980264,0.0571464153374354
16.158199999999997,6.796641895122167,0.0568271286661426
16.1606,6.80120896683818,0.0565418427328062
16.162988,6.810711405606805,0.0562400185924702
16.16538,6.824078276241404,0.0559277823470836
16.167772,6.831299075009892,0.0556506866044907
16.17016,6.843734780084712,0.0553460246845129
16.172539999999998,6.85123511810692,0.0550587197336101
16.174944,6.865393384674436,0.0547585726185649
16.177328,6.877409780868675,0.0544743335183991
16.179707999999998,6.889985255570355,0.054166526070619
16.182112,6.9005586295256185,0.0538681143800302
16.1845,6.903775226801273,0.0536099948470165
16.18688,6.907783220009846,0.0533570376007378
16.189276,6.909509573218281,0.0531233866713605
16.19166,6.908674747172859,0.0529217102440417
16.194039999999998,6.908119460381156,0.0527086406472556
16.19644,6.913290936574984,0.0524849768652152
16.198824,6.914318441649117,0.0522811194262348
16.20122,6.916137342656169,0.0520820105709601
16.203623999999998,6.910739236610472,0.0519177073354238
16.206011999999998,6.904270195378136,0.0517594219477393
16.208392,6.903807456385051,0.0515787300784303
16.210796,6.898409350339354,0.0514138125448049
16.213179999999998,6.8951531146669325,0.0512371433366106
16.21556,6.892828044554292,0.0510602978844998
16.217964,6.884077363321818,0.0509222604607988
16.220352,6.877980409141819,0.0507884229273901
16.222731999999997,6.867087857536069,0.0506625391041365
16.225136,6.856055536303458,0.0505424214926613
16.22752,6.847397402869603,0.0504393053142889
16.229899999999997,6.83673716868933,0.0503422750814599
16.232295999999998,6.833945567867866,0.0502244905809379
16.234683999999998,6.832224902233038,0.0501006248646664
16.237064,6.833717042158126,0.049957973926608
16.239468,6.835628490963796,0.049797041430561
16.241856,6.833256199022912,0.0496606491788318
