Time,Force,Position
15.884756,2.7124942563298577,0.167562815653604
15.887135999999998,2.7166835534199256,0.1675294131605862
15.88954,2.719429828271017,0.1675153832008024
15.891928,2.7324189242796706,0.167081340519157
15.894308,2.7475952166319746,0.1667212477838928
15.896704,2.760954503835096,0.1666293266657618
15.899092,2.778038453277331,0.1663840933405987
15.901471999999998,2.803410344958954,0.1657090068538866
15.903876,2.8227759344013257,0.1653212282072569
15.90626,2.846145725336532,0.1647691181669733
15.908639999999998,2.8704466818315164,0.1641888119537634
15.911044,2.8986592920207173,0.1633518714075231
15.913432,2.921192361052631,0.1626463281849907
15.915812,2.9374868104198164,0.1621633143058372
15.918215999999996,2.9536414901601424,0.1617091323164224
15.9206,2.973753149565059,0.1611798821120415
15.92298,3.000662507142144,0.1603966069421301
15.925383999999998,3.034788871771977,0.1592694837126555
15.927771999999996,3.073198977148366,0.1579541305312967
15.930152,3.104811384352585,0.1569130567128078
15.932555999999998,3.141219388982557,0.1557078497394999
15.934943999999998,3.173855509545173,0.1547279405613872
15.937324,3.2016034848834187,0.1538474697415088
15.939719999999998,3.217805386451988,0.1533434096602073
15.942107999999998,3.231261013169465,0.1528430098769569
15.944488,3.2463466535810217,0.1522233703684162
15.946891999999998,3.2594301932461613,0.1516864502834077
15.949275999999998,3.2665074306720507,0.151397252605645
15.951656,3.278287717725074,0.1508565847541943
15.954059999999998,3.2851326377254857,0.1505173194748179
15.956447999999998,3.2929087232856755,0.1501539882558728
15.958828,3.300917126271343,0.1498570020884447
15.961223999999998,3.311858795563206,0.1494512021916016
15.963611999999998,3.324570248176008,0.148911786358745
15.965992,3.3330451818705,0.1484659991126913
15.975555999999996,3.3262059494436955,0.1480290032809981
15.980324,3.31987667783822,0.1478729721717137
15.98272,3.3203904303752867,0.1476555137441721
15.985104,3.326723493696501,0.1473315397563199
15.987483999999998,3.338364011122664,0.1468771227429418
15.989888,3.354008730041662,0.1462927085098567
15.992276,3.369094370453218,0.1457770695760784
15.994656,3.3868337379172493,0.1452007773509951
15.997052,3.4115105731803093,0.1444074446054263
15.99944,3.437258343630008,0.1436001580447481
16.00182,3.464216818893205,0.1427413899279731
16.004224,3.488102258223348,0.1419910976820245
16.006608,3.508123265687516,0.1413589987525478
16.008992,3.529866834644381,0.1407010475051732
16.011395999999998,3.5521222602804428,0.1400708260403436
16.01378,3.5795453703945945,0.1393414125072789
16.016164,3.6078524242402823,0.1386820371214921
16.01856,3.6449592770045554,0.1377648692076466
16.020948,3.6860703312616616,0.1367578387556123
16.023328,3.725970680705269,0.1357982774168615
16.025724,3.761587289402323,0.1350064358755381
16.028112,3.798786689965212,0.1341913928259762
16.030492,3.833983989781685,0.1334614985758736
16.032888,3.869740368105599,0.1326983586338881
16.035276,3.903215106429376,0.1320222283528395
16.037656,3.934128665499294,0.1314709698476004
16.040056,3.9693259653157664,0.1308028597641957
16.04244,4.00480280438596,0.130121430444058
16.044824,4.037998003456016,0.1295444159551864
16.047224,4.067980396966156,0.1290738005364107
16.114131999999998,4.168387549216662,0.1289686202323285
16.116512,4.164013156529361,0.128837488473314
16.118916,4.159918303095779,0.1286819463969685
16.121304,4.153169722609722,0.1285652246720413
16.123684,4.149913486937302,0.1283363458917233
16.126079999999998,4.155736589437188,0.1278929031764451
16.128463999999997,4.158486656004018,0.1275244390940056
16.130848,4.162307657757487,0.127128949784196
16.133248,4.15690955171179,0.1269564600959935
16.135635999999998,4.150859819360035,0.1267764629003315
16.138016,4.145741252568058,0.126578327702037
16.140411999999998,4.145138743948112,0.1263028056613896
16.142799999999998,4.144815774581887,0.1260008205641288
16.14518,4.146494905962079,0.1256491033615844
16.147576,4.146823562901912,0.1253530629740179
16.149964,4.1542294572676335,0.124876894006647
16.152344,4.162706286819994,0.124368640122809
16.154747999999998,4.166107979692883,0.123993693581355
16.157132,4.165365701446077,0.1237294828067464
16.159512,4.164483653572411,0.1234791956230456
16.161911999999997,4.162111361631526,0.1232956544807714
16.164296,4.155734868197807,0.1232054613052921
16.16668,4.151500245137365,0.1230561544593642
16.169076,4.146986082823204,0.1229311642851233
16.173856,4.132044003754246,0.1228719704668598
16.176251999999998,4.12338587032039,0.1228485230756247
16.178639999999998,4.114587967259673,0.1228354336255279
16.18102,4.120735934983653,0.122494561820301
16.183424,4.124090406028298,0.1221988123251712
16.185812,4.132659783379276,0.1217765337622493
16.188192,4.137876585543477,0.1214506751543969
16.190592,4.143745014013737,0.1211320873793956
16.19298,4.15347787434997,0.1207429612935526
16.19536,4.1642816698728415,0.1203249499987577
16.197756,4.169730789462521,0.1200465815488912
16.200139999999998,4.175971304985118,0.1197655396770588
16.202524,4.181140885321076,0.1195099180367511
16.204919999999998,4.189243731963229,0.119195167865181
16.207307999999998,4.193994003418607,0.1189763650534512
16.209688,4.198464735620264,0.118780336954537
16.212084,4.20372686375484,0.1185781210891167
16.214468,4.206707351889278,0.1184472985919447
16.216863999999998,4.210479235956635,0.1183118987465105
16.243147999999998,4.244182499990149,0.1182363378804244
16.245528,4.251444833013274,0.1181967176601637
16.247927999999998,4.258707166036396,0.1181577599934383
16.250315999999998,4.269042534992575,0.1180509854663296
16.252696,4.278446738388976,0.1179610369088195
16.2551,4.2921346825319295,0.1177668960752845
16.257488,4.311037532981216,0.1174577063788143
16.259867999999997,4.333153188990418,0.117073127748356
16.262272,4.354337679439843,0.1167013820873832
16.264656,4.376732874702767,0.1162938821022922
16.267035999999997,4.39805713477905,0.1159143249086887
16.26944,4.417658833362638,0.1155511492798525
16.271824,4.439542171946363,0.1151276978587404
16.274203999999997,4.46240389791811,0.1146253027377293
16.276608,4.48298398388972,0.1141859984015236
16.278992,4.499187781316159,0.1137994520236992
16.281375999999998,4.519815089116011,0.1133018500972214
16.283768,4.537788669863388,0.1128335921820034
16.286156,4.551059200983631,0.1125043570322963
16.288539999999998,4.565028580238174,0.1121130532939338
16.29094,4.581139829865997,0.1116819504896912
16.293328,4.600184345800013,0.111213087725362
16.295711999999998,4.619508400987749,0.1107267448946751
16.298104,4.635759420242431,0.110299086572323
16.300492,4.651219043564193,0.1098761935290939
16.302872,4.664676566139541,0.1094930350521853
16.305276,4.673338491289135,0.1091864536292633
16.307664,4.6801380853191725,0.108906794697361
16.310043999999998,4.687868844908988,0.1086143027959731
16.312448,4.695739374125664,0.1083136592506578
16.314832,4.704680838528979,0.1079917510187598
16.317211999999998,4.715764173305572,0.1076258868979101
16.319608,4.724985176962608,0.1072860887751205
16.321996,4.733507332485343,0.106999015737234
16.324375999999997,4.7443111280082135,0.1066579620874599
16.326776,4.755766549837144,0.1063258003831149
16.329159999999998,4.767873597972131,0.1060087946045483
16.33154,4.786778344279287,0.1055980422616924
16.333948,4.805590542787826,0.1051361423352848
16.336332,4.828127403535477,0.1046308434342566
16.338715999999998,4.84344725723038,0.1042555761009239
16.341112,4.84889637682006,0.1040309534024932
16.3435,4.854065957156019,0.1038278821898507
16.345883999999998,4.864310674171449,0.103541770969926
16.348288,4.874275851933159,0.1032762667925683
16.350672,4.884892656000926,0.103020811695816
16.353051999999998,4.895229920814975,0.1027839749460159
16.355456,4.909012308614416,0.1025281361389406
16.357844,4.924796797160275,0.102243432307775
16.360224,4.939370580892634,0.1019904684724627
16.362628,4.951942263878575,0.1017683767177131
16.365012,4.9662365083572135,0.1015394387431131
16.367396,4.980390983208991,0.1013205873597756
16.369788,4.995616393247407,0.1010822897513246
16.372176,5.011633199218743,0.1008470568248185
16.374556,5.0307230411231325,0.1005663511932709
16.376952,5.041804480041855,0.1004004205916941
16.37934,5.050604278960441,0.1002866849445529
16.381719999999998,5.06284920086442,0.1001558118110555
16.384124,5.072300626089063,0.100053756827896
16.386512,5.087758353552957,0.0998675867828814
16.388892,5.110805175121937,0.0995950668111729
16.391288,5.13320037038486,0.0993150357372502
16.393672,5.153453695274505,0.0990765623412608
16.396051999999997,5.173567250537291,0.0988469644447618
16.398456,5.195310819494157,0.0985657058972091
16.400844,5.2211983595707165,0.0982231496346302
16.403223999999998,5.242569841475244,0.0979194789090458
16.405628,5.260868287446716,0.0976613737655102
16.408016,5.280237668604826,0.097386568064016
16.410396,5.302540316069131,0.0970777427959936
16.4128,5.319907596480825,0.0968313501089122
16.415188,5.3363437113327405,0.0965929407391764
16.417568,5.353059365438376,0.0963385675023261
16.419971999999998,5.366841753237816,0.0961199085030274
16.422359999999998,5.376480169917563,0.0959634256769067
16.42474,5.394266759209838,0.0956925669116111
16.427144,5.405535189583664,0.0954810219907642
16.429532,5.413078957718376,0.0953049557429958
16.431912,5.424487157719063,0.0950879130441707
16.434307999999998,5.429377198801301,0.0949292634105352
16.436695999999998,5.431613512831065,0.0947876516411725
16.439076,5.434780992420607,0.0946384735308785
16.441471999999997,5.434363579397895,0.0945126345651695
16.458184,5.353780963867109,0.0944318136241204
16.46058,5.339163750022245,0.0943897928271686
16.462975999999998,5.328690507297075,0.0942882244258131
16.465363999999997,5.315283998265711,0.0942189578644187
16.467744,5.302157028488066,0.0941316563560597
16.470148,5.292382633897197,0.0939847022219482
16.472535999999998,5.278092181134297,0.0938674497734323
16.474916,5.268876865050869,0.0936838398801354
16.477311999999998,5.26087225378094,0.0934741178354855
16.479699999999998,5.246069944338844,0.0933361956446124
16.48208,5.237134167509137,0.0931330136327625
16.484476,5.2263360595598725,0.0929447532374345
16.48686,5.214467016423971,0.092772853070567
16.489244,5.207533340340679,0.0925441534520607
16.49164,5.198877102764695,0.0923211058373413
16.494024,5.196506706681678,0.0920054699818874
16.496404,5.196929807277997,0.091665001944922
16.498804,5.199215238993872,0.091307834448757
16.501192,5.206575807389221,0.0908885994585087
16.503588,5.215938476530986,0.0904483399384844
16.505988,5.226092541605667,0.0900094095181927
16.508371999999998,5.234896132239991,0.0896050925881331
16.510752,5.237972959888785,0.0892548167616093
16.513156,5.2417014138436375,0.0889129878267392
16.515539999999998,5.245290098171629,0.088579237306947
16.51792,5.244734811379926,0.0883020114907007
16.520324,5.249766517946894,0.08798311719839
16.522712,5.253447750073503,0.0876989422766833
16.525092,5.255778507759754,0.0874481833267922
16.527496,5.262904862871754,0.0871515802248099
16.52988,5.268960282797118,0.0868736003753593
16.53226,5.279019904215314,0.0865511290465946
16.534664,5.28893975600665,0.0862376947506241
16.537052,5.293504931864794,0.0860022496625138
16.539431999999998,5.304867805895106,0.0857045973507292
16.541836,5.317161845485197,0.0854033889269254
16.54422,5.330247281008205,0.0851057877031384
16.546599999999998,5.342541320598296,0.0848062431466796
16.549004,5.347338813881916,0.0846131638425655
16.551388,5.3498546671654,0.084459466944639
16.553767999999998,5.355303786755079,0.0842798446851433
16.556164,5.362335698210594,0.0841047963957842
16.558548,5.374814833397918,0.0839017862333939
16.560928,5.388644443025602,0.0836669216874428
16.563336,5.405267549332622,0.08341482387742
16.565724,5.42282182119942,0.0831546679025487
16.568103999999998,5.434090251573247,0.0829752032789038
16.5705,5.446569386760571,0.0827736733354956
16.572888,5.461842018627231,0.0825545055660459
16.575267999999998,5.480187686426946,0.0823048577314568
16.577664,5.496251714226524,0.0820922876487724
16.580052,5.5069610660929085,0.0819504856458023
16.582432,5.52088322351921,0.0817682379041436
16.584836,5.540160056878703,0.0815154724957644
16.58722,5.55128871762567,0.0813517096058983
16.5896,5.563348543932414,0.0811851717646079
16.591995999999998,5.577270701358716,0.0810098050876221
16.594383999999998,5.596779852143686,0.0808053154773317
16.596764,5.62164367886185,0.0805338940776301
16.599159999999998,5.646787044833734,0.0802472500384376
16.601544,5.666203647820087,0.0800013697215874
16.603928,5.683106293380826,0.0797546074896537
16.606324,5.695213341515814,0.0795427603539497
16.608712,5.7090429511434975,0.0793301938607211
16.611107999999998,5.722081164838263,0.0791168969585444
16.613504,5.7372612489063055,0.0788782432201865
16.615892,5.751929476295151,0.0786178706191828
16.618271999999997,5.765526768497358,0.078371862408242
16.620668,5.775678937714172,0.078130549410347
16.623056,5.780104343945456,0.0779285214106953
16.625436,5.787742555736655,0.0776887395172807
16.627831999999998,5.801946148274546,0.0773653569132792
16.630219999999998,5.80707040264013,0.0771236719028062
16.6326,5.812986052938633,0.0768878849071695
16.635004,5.822905904729969,0.0766165504732186
16.637392,5.828961324655332,0.0763733796760263
16.639772,5.830221147154942,0.0761617944466628
16.642167999999998,5.8245435018555245,0.076006582823002
16.644555999999998,5.816723986182828,0.0758759971791784
16.646936,5.804620729763579,0.0757940091435805
16.649335999999998,5.796381905210305,0.0756855893026204
16.651719999999997,5.791076346963226,0.0755554949012569
16.654104,5.789914759835839,0.075384122831114
16.656499999999998,5.79103481270859,0.0751828569572642
16.658887999999997,5.791083930394703,0.0749940100265365
16.661284,5.78819978177462,0.074825369390024
16.66368,5.792113331326706,0.0746125016110413
16.666068,5.797097816065429,0.0743885877499441
16.668447999999998,5.805667193416408,0.0741561962542802
16.670852,5.816750528192999,0.0739265880929213
16.673236,5.826902697409814,0.0737030803898275
16.675615999999998,5.831420651439715,0.0735527585002703
16.678012,5.845809339574839,0.0733320667711065
16.6804,5.858335696590408,0.0731218312892682
16.682783999999998,5.86792878729978,0.072930486919056
16.68518,5.876311173195655,0.0727569714628931
16.687564,5.885764494278167,0.0725711380931685
16.689947999999998,5.895637124241259,0.072361258156977
16.692344,5.904438819017715,0.0721627262975884
16.694727999999998,5.922319851966475,0.071891217372332
16.697112,5.940852511221294,0.0716331373790171
16.699507999999998,5.962178667155447,0.0713674911561868
16.701891999999997,5.980152247902825,0.0711441093799512
16.704292,5.992910922343871,0.070971064029148
16.706684,6.003667496038498,0.0708122529777294
16.709072,6.019079897532018,0.0706359661899666
16.711451999999998,6.029277392719205,0.0705084657027725
16.713848,6.039195348652673,0.070396418116104
16.716231999999998,6.047390743093444,0.0702848994717514
16.718616,6.055865676787935,0.0701595634432851
16.721011999999998,6.06205897048229,0.0700628934351468
16.723399999999998,6.076540206416031,0.0698972786599388
16.725796,6.089438650483937,0.0697270678660599
16.728192,6.101126389738344,0.0695749079660425
16.730576,6.118960200858861,0.0693770655038881
16.73296,6.141217522352793,0.0691323369595852
16.735356,6.167479045339558,0.0688635770783165
16.737744,6.198396396125215,0.0685817742974807
16.740123999999998,6.231315847657289,0.0682873897419871
16.74252,6.257297831390334,0.0680374371149428
16.744908,6.281697023257543,0.0677810573946309
16.747287999999998,6.301300617699001,0.0675480620836676
16.749688,6.324256787327234,0.0672802202512012
16.752076,6.347212956955466,0.0670113879965606
16.754455999999998,6.375104493636311,0.0667160126414222
16.756852,6.399411137704903,0.0664269467662267
16.75924,6.426278961027354,0.0660992857555177
16.761623999999998,6.453566093230383,0.0657534699155864
16.764028,6.480713455806553,0.0654155445259767
16.766412,6.5027856817032506,0.0651098255340204
16.768796,6.526208382040307,0.0647807622570967
16.771188,6.544835484951612,0.0644771644289816
16.773576,6.558387451183445,0.0642067761022589
16.775972,6.569425459989663,0.0639293058934535
16.778368,6.577530202489686,0.0636689334296017
16.780756,6.584564009803071,0.0634195968281652
16.783136,6.587593615623621,0.0631934382841396
16.785532,6.58596739364528,0.0629786091055202
16.78792,6.583689545360881,0.0627531987288636
16.7903,6.584624502636397,0.0625017145189108
16.792704,6.582765963232579,0.0622555354354074
16.795088,6.58211812864226,0.0619940118942062
16.797472,6.575603761439551,0.0617569697628677
16.799868,6.567646371997866,0.0615027373279741
16.802252,6.556104089943927,0.0612501162167796
16.804631999999998,6.551359506062156,0.0609729873508929
16.807032,6.54447305180711,0.0607124380409306
16.80942,6.534373791992147,0.060476187684967
16.811799999999998,6.524554071430905,0.0602267881876703
16.814204,6.520880422735773,0.0599405104516865
16.816592,6.51841747885414,0.0596402129742869
16.818972,6.511019167919896,0.0593598301866172
16.821368,6.504412252918569,0.0590824228068672
16.823756,6.499527899409937,0.0588067943897839
16.82614,6.490499574781613,0.0585564975450952
16.828544,6.478398214220234,0.0583235078743878
16.830932,6.466576392912575,0.0580764612114201
16.833312,6.45754806828425,0.0578243495859963
16.835715999999998,6.450382074775484,0.0575698526029315
16.838103999999998,6.442145146080077,0.0573235041672729
16.840484,6.439495210743341,0.0570690199256029
16.842879999999997,6.43763667133952,0.0568202254541766
16.845268,6.4395027941748175,0.0565649393463081
16.847648,6.447095679995642,0.0562963313652022
16.850044,6.456550896936024,0.0560261824525013
16.852432,6.455343983838264,0.0557888220129071
16.854812,6.45571986260634,0.0555622477653363
16.857208,6.458377381374553,0.0553136691259658
16.859596,6.459684425702408,0.0550853879478204
16.86198,6.460060304470484,0.0548594406018975
16.864376,6.457223377678645,0.0546554545744569
16.866764,6.455969242752641,0.0544607611232968
16.869144,6.455786043013276,0.0542578191229212
16.87154,6.459607044766745,0.0540390777063349
16.873924,6.467432248013047,0.053803322659071
16.87632,6.479121883125322,0.0535579909530245
16.878716,6.491463144543657,0.0533250650283057
16.881104,6.504735571521768,0.053093084955998
16.883484,6.513864027380187,0.0528839714737929
16.88588,6.518848512118911,0.0526961431441032
16.888268,6.518106233872106,0.0525193947593751
16.890648,6.512288818945828,0.0523649161087045
16.893044,6.510475605512384,0.0521956697295298
16.895432,6.502236780959108,0.0520688688889874
16.897828,6.490645381219057,0.0519693653975017
16.900223999999998,6.482638874091259,0.0518728864878389
16.902608,6.4729098054707634,0.0517711380126938
16.904992,6.460899096850132,0.0516895314143091
16.907391999999998,6.450099093042998,0.0515940546533792
16.909779999999998,6.436086283675949,0.0515193165349466
16.91216,6.423935805428457,0.0514430441690808
16.914559999999998,6.417000233487298,0.0513381106497696
16.916943999999997,6.416070963785389,0.0512114081401506
16.919324,6.413139593337062,0.0510927435407057
16.921723999999998,6.406995417328823,0.0509942976034773
16.924108,6.398057744641245,0.0508969503021396
16.926488,6.386978201580392,0.0508128494522051
16.928888,6.372825622586485,0.0507424848430542
16.931276,6.3609546835927135,0.0506517603594484
16.933656,6.355090046838192,0.0505395736479532
16.936056,6.3568145041887565,0.0504188792399122
16.938444,6.3665473645249895,0.0502705715694438
16.940824,6.37120508818175,0.0501435375880406
16.94322,6.381077718144844,0.0499897069385182
16.945608,6.391090117734796,0.0498284636746748
