Time,Force,Position
16.193584,2.6015129457115886,0.1626222145998053
16.195984,2.696382222289537,0.161111841304103
16.198368,2.784967553232384,0.1596877187383223
16.200748,2.867688247420709,0.1582932146654194
16.203152,2.9433808218692588,0.1568856553515012
16.20554,3.004968039152142,0.1558375106907487
16.3226,3.011897923519694,0.1556965334097054
16.325004,3.019487017624781,0.155434333795756
16.327392,3.0275879684090645,0.1551953265493689
16.329772,3.036759854379987,0.1549140099220983
16.332168,3.051518733709581,0.1544528755594378
16.334556,3.0641357426658966,0.154086536688474
16.336936,3.083690219421241,0.15345979713043
16.339332,3.100311429870391,0.1529507360462995
16.341716,3.124801273678348,0.1521734661955412
16.344096,3.149151347859444,0.1514115768343271
16.3465,3.175223983533237,0.1506161544403906
16.348888,3.204509424766946,0.1496932964902414
16.351268,3.235377657866491,0.1487574215623059
16.353668,3.2655470428317344,0.147899400906742
16.356056,3.3014431907825084,0.1468745851406263
16.358436,3.339993065785757,0.1457552128793106
16.36084,3.377332235975507,0.1446922415257983
16.363224,3.419467003591009,0.143490175005929
16.365607999999998,3.456945943407619,0.1424375647421366
16.368004,3.48734764579834,0.1416625035734854
16.370388,3.5180288874427816,0.1408733520681147
16.372772,3.5416328916613344,0.1403522156916551
16.375172,3.5657959743873264,0.1397746399627448
16.37756,3.588888121926681,0.1392489497936717
16.37994,3.609838399092759,0.138812939360373
16.382336,3.633721942565032,0.1382892759584013
16.384724,3.652670118984693,0.137925972691021
16.387104,3.669336655404216,0.1376500903936272
16.389499999999998,3.6812075943979874,0.1375214461528863
16.391888,3.695360173391896,0.1373050092564466
16.394272,3.708721356452888,0.1371004957722773
16.396672,3.7194288124614032,0.1369534988485777
16.39906,3.727482541417445,0.1368597233318743
16.40144,3.739447924067703,0.1365877223767232
16.403836,3.746105852613011,0.1364232364293501
16.406224,3.75304332041204,0.1362299302116432
16.4086,3.760120557837929,0.1360203264513014
16.411004,3.762262428211206,0.1359491982173016
16.413391999999998,3.770270831196873,0.1357236174588189
16.415772,3.7825629749290943,0.1353571019838238
16.418176,3.793923953101538,0.1350173460643112
16.42056,3.807706340900979,0.1345804507697401
16.42294,3.820278023886921,0.1341949502521807
16.425336,3.830195979820388,0.1338569126804726
16.427724,3.840021387955238,0.13345934605241
16.430104,3.849846796090088,0.1330676611997768
16.432504,3.862745240157994,0.1325900425396177
16.434888,3.8843509353458674,0.1318434144591827
16.437272,3.9033029034812663,0.1311427400963695
16.439668,3.920904397176307,0.1305098998243929
16.442056,3.935572624565152,0.1299455982718618
16.520912,3.915326883106984,0.1295054855793506
16.523288,3.926221330570603,0.1293178503829232
16.525696,3.942702771392892,0.1290206195993147
16.52808,3.958113277028543,0.1287560242966405
16.530464,3.978878458597386,0.1283339167942314
16.53286,3.997781309046673,0.1279465636382021
16.535248,4.018826029869237,0.1274931714428382
16.537632,4.0417330818113575,0.1270030068738033
16.540028,4.064779903380338,0.1265008244059697
16.542416,4.090527673830037,0.1258894192692065
16.544796,4.111619616480844,0.1253771506421792
16.5472,4.129358983944876,0.1249756428345688
16.549588,4.146679042528326,0.1246143208522901
16.551968,4.164278640365497,0.1242233779147583
16.554372,4.176663331896336,0.1239748325826863
16.55676,4.188116857867396,0.1237425189765987
16.55914,4.206647621264346,0.1233356867546494
16.561544,4.226808398355374,0.1228550161343875
16.563928,4.251113146566096,0.1222685464995569
16.566308,4.267828800671733,0.1218411738924203
16.568712,4.284684224404228,0.1214054293741291
16.5711,4.288456108471585,0.1212711321399483
16.57348,4.288363560672968,0.1212146659195087
16.57588,4.288410782501211,0.1211460702445606
16.578264,4.285664507650121,0.12112653386592
16.580644,4.283989167985666,0.1210786050700471
16.583044,4.283244993880991,0.1210143989063588
16.585428,4.281849193470258,0.1209423410334482
16.587804,4.2816640978730245,0.1208304453489853
16.590208,4.278266196715874,0.1208019325965278
16.592592,4.274868295558725,0.1207733753412659
16.594972,4.274031573655433,0.1206538021619011
16.597368,4.274033469513302,0.1204638695029914
16.599756,4.279110502050644,0.1201646120069499
16.602136,4.285677778655204,0.1198029950532383
16.604532,4.292384824886625,0.1194278811541759
16.60692,4.29736930962535,0.119075984962571
16.6093,4.297278657684602,0.1188330966049099
16.611704,4.295325674624297,0.1186207520304532
16.614092,4.296166188243328,0.1183642161753773
16.616476,4.2983571763027175,0.1180613293811089
16.618872,4.307625401787996,0.11760542148095
16.62126,4.320897828766109,0.1170674410384848
16.623639999999998,4.335241190930859,0.1165064776456053
16.626036,4.351726423468887,0.1158956972063922
16.628424,4.372355627126608,0.1152030681079104
16.63082,4.390051564478135,0.1145632046277948
16.633216,4.406676566643023,0.1139490225020065
16.635604,4.424232734367689,0.113330162960997
16.637984,4.441928671719216,0.1126968838482215
16.64038,4.461347170563439,0.1120477852100058
16.642768,4.476342159034248,0.1115126471424209
16.645148,4.489195277131779,0.1110305597336273
16.647544,4.49604209299006,0.1106664800142898
16.649932,4.5023298303409005,0.1103476294881537
16.652312,4.508617567691741,0.1100275827282006
16.654708,4.513694600229082,0.1097444693803519
16.657096,4.522636064632396,0.1093955685626133
16.659476,4.532089385714909,0.1090682906492599
16.66188,4.540471771610784,0.1087666273892286
16.664268,4.544151107879523,0.1085957054369103
16.666648,4.551834645641096,0.1083554368351627
16.669052,4.556864456350194,0.1081434449167419
16.67144,4.559612627059156,0.1079893686383169
16.676216,4.553980307730112,0.1079469826368096
16.678604,4.552816824744856,0.1079175954988743
16.683388,4.557380104745132,0.1078056368862521
16.685776,4.558962896610968,0.1078029757028538
16.688156,4.561476854036582,0.1077886029797993
16.690552,4.56785524332817,0.1077160653689521
16.69294,4.57753898597829,0.1076288796583643
16.69532,4.588945290121107,0.1075274263781493
16.69772,4.602353695010341,0.1073924601256063
16.700104,4.618276057325188,0.1072438225429699
16.702484,4.634338189266898,0.1070850535526662
16.704892,4.652262652328163,0.1069068646137176
16.707276,4.673399920949345,0.1066681792825932
16.70966,4.697749995130442,0.1063698790328326
16.712056,4.726383810058093,0.105984529029164
16.714444,4.745007121253659,0.1057627081217138
16.71682,4.768006720994396,0.1055098639295896
16.719216,4.79314819110841,0.1052147444115924
16.7216,4.820431531595702,0.104875949322273
16.72398,4.850368599135469,0.1045120048897911
16.726396,4.877651939622761,0.1041757590928251
16.72878,4.899999913057441,0.1039205502841683
16.73116,4.9277025624253135,0.1035624520847851
16.733564,4.958757786979961,0.1031410754432629
16.735952,4.990092550788329,0.1027073318224646
16.738332,5.019704753104001,0.1022878696464965
16.740736,5.046663228367199,0.101892421297246
16.743124,5.07161960288398,0.1015226451584931
16.745504,5.093922250348285,0.1011753488750028
16.747896,5.11757537225295,0.100795305540734
16.750284,5.1410887245307535,0.1004253936141326
16.752664,5.159806479382807,0.1001158812421803
16.755068,5.174799571995746,0.099850124858738
16.757456,5.185648693488992,0.0996528308305463
16.759836,5.193844087929763,0.0994755234502074
16.762232,5.207114619050007,0.0992196350813828
16.76462,5.21521746569216,0.0989943968993889
16.766996,5.2214579812147575,0.0987882982513358
16.769404,5.228909201550853,0.0985561579117329
16.771788,5.233986234088194,0.0983234032065673
16.774168,5.241344906625672,0.0980465207201625
16.776572,5.247772413603373,0.0977781173618161
16.778956,5.251266654274878,0.0975480949560294
16.781336,5.248894362333994,0.097390595923564
16.783736,5.244799508900412,0.0972417833516535
16.786124,5.24191536028033,0.0970664167113083
16.788504,5.240241916473745,0.0968648021464974
16.7909,5.245413392667572,0.0965333713351442
16.793284,5.253657904794456,0.0961607227393653
16.79568,5.259900316174922,0.0958168614316427
16.79808,5.26642226680911,0.095455725202798
16.800468,5.274946318189713,0.0950683100218533
16.802848,5.280257564010401,0.0947298848891955
16.805252,5.285708579457949,0.0943813474560526
16.807636,5.291950990838416,0.0940334491501186
16.81002,5.301266438151938,0.0936466682064684
16.812416,5.313887238823992,0.0932553723688044
16.814804,5.327299435428963,0.0928644090879999
16.817184,5.335916034608184,0.0925221741374891
16.81958,5.3479777567727975,0.0921664915736123
16.821968,5.357618069310413,0.0918644055854584
16.824348,5.367258381848028,0.0915609815827136
16.826744,5.373825658452589,0.0912970750214007
16.903208,5.23258509534083,0.0910199246241209
16.905604,5.235378592020164,0.0909975401220764
16.907988,5.239802102393579,0.0909234638577434
16.910368,5.242503051274296,0.090855584133607
16.912776,5.244272834595234,0.0907955696922435
16.91516,5.244320056423478,0.0907411578475969
16.91754,5.250792889371553,0.0905905373405635
16.919936,5.265693434185875,0.0903245004469927
16.922324,5.281013287880779,0.0900367283675305
16.924704,5.298335242322099,0.0897253508615261
16.9271,5.318870002323335,0.0893727677313134
16.929488,5.342525020085868,0.0889298974483982
16.931872,5.367670281915621,0.088444771454856
16.934268,5.3923036870661765,0.0879457471512077
16.936652,5.416425235537534,0.0874305449768501
16.939032,5.440174696956554,0.0868887985533856
16.941432,5.466345568002572,0.0863083676104878
16.94382,5.49321528718289,0.0856940825003584
16.9462,5.522366646363346,0.0850452283568511
16.948596,5.553799645543941,0.0843565901911516
16.950984,5.580437047298782,0.0837144599388618
16.95338,5.609356089053762,0.0830423662426868
16.955776,5.638786987487938,0.0823933278898882
16.958164,5.669940447414811,0.0817425927275743
16.960544,5.700302511408766,0.0810927049284134
16.96294,5.735460172828472,0.080410682756515
16.965328,5.764471762382068,0.0797974150477732
16.967712,5.784404013763358,0.0792806423678733
16.970116,5.800052524398094,0.078818686438412
16.972504,5.815701035032829,0.0783573951208725
16.974884,5.825622782682036,0.0779384296555414
16.97728,5.833123120704244,0.0775625953068951
16.979668,5.840763228353312,0.0771798611698357
16.982048,5.850265667121938,0.0767913353169417
16.984448,5.86149066738326,0.0764035627141849
16.986832,5.873227524323779,0.0760348299233521
16.989212,5.879469935704245,0.0757371692251554
16.99162,5.881288836711297,0.0754969281248366
16.994004,5.882688428837769,0.0752808288305106
16.996384,5.88394825133738,0.0750725759001299
16.998784,5.889212275329824,0.0748330071441231
17.001168,5.889913019321995,0.0746563856192064
17.003552,5.889682597754385,0.0744843561823704
17.005948,5.8885210106270005,0.0743168384348751
17.008336,5.887359423499613,0.0741494197719645
17.010716,5.880051764506116,0.074036631673074
17.01312,5.87753970293837,0.073895687628225
17.015508,5.878612533982877,0.073745465097417
17.017892,5.883689566520219,0.0735639406711751
17.020296,5.887555894244061,0.073401291956122
17.02268,5.891934078647103,0.0732565139420508
17.025064,5.896032723796423,0.0731264376325338
17.056128,5.866843622077069,0.0730361731075255
17.058516,5.87243061543574,0.0730128560383859
17.060896,5.882441119167825,0.0729389169749828
17.063296,5.891799996593851,0.0728543845605179
17.065684,5.902229809206517,0.0727606046615785
17.068064,5.917083132192595,0.0726174070423586
17.070464,5.935149260738591,0.0724425475011332
17.072848,5.95656796447136,0.0722292936928621
17.075228,5.977474811524933,0.0719976567293289
17.077624,6.00280516895192,0.0717151708857827
17.080012,6.029625770446126,0.071401568124883
17.082392,6.056865680820912,0.0710666331119181
17.084796,6.086387231195837,0.0707043587655028
17.087184,6.116328090451343,0.0703232013837399
17.089564,6.144266848960429,0.0699549675371746
17.091968,6.169551880417044,0.0695922283180643
17.094356,6.196466925567736,0.06918988943616
17.096736,6.2196573084793165,0.0688014766451398
17.09914,6.243778856950674,0.0684098118126188
17.101524,6.265526217623277,0.0680066600778318
17.103908,6.286901491243542,0.0675763591067944
17.106304,6.302689771505141,0.0671699498602711
17.108688,6.307396612848013,0.066841821118071
17.111072,6.311032519004247,0.0665236552401142
17.113476,6.309872827734731,0.0662282086839181
17.11586,6.307781970905436,0.065938154083344
17.11824,6.305319027023802,0.0656245931306917
17.12064,6.303927018328808,0.0653041796281642
17.123024,6.30453711038023,0.0649721989811382
17.125404,6.308220238364708,0.0646225972406512
17.1278,6.311111970416267,0.0642698850080557
17.130188,6.314283241721546,0.0639043628186344
17.132568,6.317594282653688,0.0635340235803892
17.134972,6.319042992466271,0.0631685634539994
17.137356,6.323844277465632,0.0627700894556775
17.13974,6.331299289517466,0.0623734962104673
17.142136,6.338754301569301,0.0619778782667826
17.144524,6.351424219927468,0.0615479405294965
17.146908,6.365165073472272,0.061110868866709
17.149304,6.380628488509775,0.0606765636922137
17.151692,6.400747731346168,0.0602355598870663
17.154076,6.415652067876229,0.0598257659869137
17.15648,6.435352001832042,0.0593973245792427
17.158868,6.456262640601353,0.0589542670257048
17.161252,6.477964675303582,0.0585149801340031
17.163648,6.493660407766561,0.0581063248872673
17.166036,6.502650989855987,0.0577600274365287
17.168416,6.504424564892665,0.0574588140984619
17.170812,6.504056269556066,0.0571745488713862
17.1732,6.490324895300606,0.0569698187655805
17.175584,6.472170010671734,0.0568039852673681
17.17798,6.455318378654975,0.0566619231133674
17.180368,6.43497440182458,0.0565575814725493
17.182748,6.415142281673385,0.0564713742382861
17.185144,6.3968929533880265,0.0563949571597293
17.199476,6.236596499195035,0.0563641560435428
17.201864,6.220674136880187,0.0563455760342379
17.204248,6.206753875311755,0.0563177808538562
17.206652,6.194416405609158,0.0563003184160963
17.209039999999998,6.182730562212621,0.0562947688913732
17.21142,6.175560776988116,0.056290300633712
17.21382,6.174257524375999,0.0562662548993231
17.216207999999998,6.1768187036298565,0.0562309750640875
17.218592,6.182173379563049,0.056192508612809
17.220988,6.200471825534522,0.056098820428833
17.223376,6.226638904864801,0.0559762510754441
17.225756,6.24842969564991,0.0558463855070523
17.228152,6.272222587181435,0.0557068253246895
17.23054,6.29601547871296,0.0555672651423267
17.232924,6.31594393837851,0.0554401290307829
17.235324,6.338014268417339,0.0552975097055516
17.237712,6.361946929575725,0.0551526987320861
17.240092,6.391374036294163,0.0549627335335317
17.242496,6.419078581519904,0.0547686140921699
17.244884,6.435050061520866,0.0546143154707062
17.247264,6.448879671148549,0.0544757686264745
17.24966,6.456191121857785,0.0543456974078948
17.252048,6.459638140701046,0.0542261952868693
17.254428,6.46229376361139,0.0541017445205327
17.256832,6.464577299469398,0.0539518606991754
17.25922,6.469142475327541,0.0537818624266373
17.2616,6.473987190439406,0.0535995695538979
17.264,6.479251214431851,0.0533981192310973
17.266384,6.485725943237794,0.0531849730125693
17.268768,6.488615779431485,0.0529699269020437
17.271164,6.4877809533860615,0.0527588920554448
17.273552,6.489460084766253,0.0525578858008635
17.275932,6.491698294653886,0.0523318046082775
17.278336,6.495566518235597,0.0520743390000901
17.280724,6.498503576257529,0.0518164632628243
17.283104,6.500229929465965,0.0515715430307006
17.2855,6.498371390062147,0.0513215913576374
17.287888,6.49530214584483,0.0510859441547049
17.290268,6.495026398306848,0.0508488715467819
