Time,Force,Position
14.900064,2.4421592008962127,0.180902366863751
14.902468,2.5368943954209087,0.1770041620362729
14.904856,2.633633586549891,0.1728109974655485
14.90724,2.7256244020813645,0.1692975930130084
14.909636,2.819851531642602,0.1655251254965349
14.912024,2.905560297396842,0.1621739338587195
14.914408,2.9773506974405204,0.1593679476678633
14.916804,3.033405726624454,0.1572858476463619
14.919192,3.079217934650825,0.1557933024579096
15.007584,3.2727132050111254,0.1548064648793099
15.009987999999998,3.281001147250513,0.1544892536773529
15.01238,3.2992995932219853,0.1538176955209891
15.01476,3.312942211394565,0.1532815701811038
15.01716,3.329146008821003,0.1526080686143271
15.019548,3.3488421510610773,0.1517826890006537
15.021928,3.3701210851669874,0.1509345049633899
15.024328,3.3928430415118744,0.1500754697785921
15.026716,3.4096984652443707,0.1494076335531826
15.029096,3.42483132748417,0.1487660975174003
15.031496,3.444108160843664,0.1479600681899721
15.033884,3.461941971964181,0.1471530407703205
15.036264,3.4801950919652804,0.1463078107955835
15.038664,3.499379377526157,0.1454432732322904
15.041047999999998,3.513116439355223,0.1447233795448759
15.043428,3.5159118318924265,0.1443943969635998
15.045827999999998,3.5167051236832148,0.1441386872071787
15.048215999999998,3.5192209769666984,0.1438446635928272
15.050596,3.515590758384071,0.1437829817523529
15.052995999999998,3.5128917053612225,0.1436939050087065
15.069719999999998,3.477190132297029,0.1435838375872672
15.0721,3.4709061866619275,0.143573994458128
15.074495999999998,3.471699478452715,0.1433367710638679
15.076883999999998,3.477288367669254,0.1429640265475855
15.079268,3.4818063216991546,0.142634126186134
15.081663999999998,3.4908403339010867,0.1422033717526583
15.084051999999998,3.4973131668491613,0.1418940506859032
15.086436,3.503506460543515,0.1416173090742844
15.088831999999998,3.5144953516636206,0.1412058973258003
15.091224,3.53535497688895,0.1404913521806566
15.093607999999998,3.56194136509981,0.1396349648346948
15.096004,3.5832202992057205,0.1388832442281556
15.098396,3.6037078373787126,0.1381315345298573
15.10078,3.622053505178428,0.1374518121947277
15.150956,3.618377960625427,0.1370938742653335
15.15336,3.623081010252562,0.1369127889651814
15.155748,3.629134534320056,0.1366676860410455
15.158128,3.635188058387549,0.1364225831169097
15.160524,3.645804862455317,0.1360059679052001
15.162912,3.657352832082864,0.1355698384187328
15.165292,3.67011150652391,0.1350771786054762
15.167696,3.685803447271151,0.1345085943152882
15.17008,3.70829308619056,0.133766140984769
15.17246,3.7306429554831086,0.1330451148498799
15.174864,3.750059558469462,0.1323924428361027
15.177252,3.768125687015458,0.1318072128426535
15.179632,3.7917788089201214,0.1311024777355427
15.182035999999998,3.8140814563844274,0.1304570861996177
15.184423999999998,3.83251967198276,0.1299207618714356
15.186804,3.84588275090162,0.1295281719516462
15.189208,3.8569641898203417,0.1292124863923416
15.191596,3.871118664672121,0.1288120754270947
15.193976,3.8847612828447007,0.1283929687684424
15.19638,3.8981243617635606,0.1280095450270612
15.198764,3.906552073629809,0.1277518982178409
15.201144,3.9105562751226426,0.1276461528131051
15.203548,3.918285138854589,0.1274656846700759
15.205936,3.9260140025865367,0.1272852165270466
15.208315999999998,3.93518588855746,0.1271110083134896
15.210716,3.944078235274663,0.1269640432267428
15.213104,3.959628510537174,0.126680743544016
15.215483999999998,3.9716864409860486,0.1265165016392992
15.21788,3.982533666621425,0.1264023893908822
15.220268,3.995103453749498,0.1262687514843348
15.222647999999998,4.017124666102213,0.1259549768075618
15.225052,4.0399372743878486,0.1256358291568424
15.22744,4.062470343419762,0.1253539385280125
15.229819999999998,4.08900761394451,0.1249833954118242
15.23222,4.1174072155888135,0.12458378606256
15.234604,4.153395911338205,0.1240444690566716
15.236983999999998,4.1952511396999865,0.1233793978645519
15.239388,4.233753792874992,0.1228205527441959
15.241776,4.272488763475474,0.1223068581383956
15.244155999999998,4.310152798889318,0.1218275002110867
15.24656,4.353031740609494,0.1212171607036198
15.248944,4.395119286396754,0.1206068002255447
15.251328,4.432411234758259,0.1200983322857642
15.253724,4.469423643866047,0.1196112649116006
15.256112,4.504713491481136,0.1191544812765918
15.258492,4.53856031685725,0.1186927730989527
15.260888,4.567751314434473,0.118323805590063
15.263276,4.602716296825468,0.1177938434294701
15.265655999999998,4.632885681790713,0.1173512494896014
15.26806,4.65574551190459,0.1170126425214968
15.270444,4.669293686420684,0.1168268469827951
15.272823999999998,4.681259069070942,0.1166470911840562
15.275228,4.689779328735806,0.1165058500757033
15.277616,4.6977877317214745,0.1163491199390108
15.279996,4.703282177281528,0.1162133827378278
15.284784,4.69909288019146,0.1161868427087563
15.287164,4.697557310153866,0.1161304498833609
15.289568,4.697791523437211,0.1159966398514132
15.291956,4.695372009668084,0.1158921692845
15.294336,4.6913224822048765,0.115854807508773
15.296739999999998,4.687272954741669,0.1158175283667095
15.299127999999998,4.682152492091823,0.1158048872514985
15.301508,4.68145553981539,0.1156846427416698
15.303904,4.67968765235232,0.1155886031068799
15.313456,4.654876735036007,0.1155158942211375
15.315836,4.653108847572937,0.1154188919734229
15.318232,4.656416096789339,0.1152226918474676
15.32062,4.660002885259461,0.1150041975288433
15.323,4.66000478111733,0.1148272860362719
15.325396,4.657725036975062,0.1147103749245043
15.327784,4.655025983952213,0.1146256599053795
15.330163999999998,4.651815074250167,0.1145214381015288
15.332568,4.653679301227593,0.114318277203943
15.334956,4.6526102618988245,0.1141662912588747
15.337336,4.648468186637,0.1140752686348573
15.339732,4.649401248054648,0.1138874419788588
15.34212,4.64945036574076,0.1136507507389404
15.344504,4.655645555292982,0.1132983585336549
15.3469,4.6653330896588425,0.1128551936334723
15.349284,4.670225026598949,0.1124892481053718
15.351667999999998,4.674465337232999,0.1121142701851773
15.354064,4.682989388613603,0.1116545069312262
15.356448,4.697379972606596,0.1110999533399583
15.358831999999998,4.712841491786228,0.1105229101569599
15.361236,4.724578348726748,0.1099922851360905
15.36362,4.73524427048063,0.109486586375483
15.365999999999998,4.73990388999526,0.1090825855126323
15.368404,4.744563509509889,0.1086776476717151
15.370792,4.751876856076993,0.1082429097015983
15.373172,4.7586783459649,0.1077885042365948
15.375568,4.76510774880047,0.1073012449967924
15.377956,4.773399482755597,0.1067884513205755
15.380335999999998,4.776755849658111,0.1063615427761278
15.382732,4.779181051000846,0.105944260575422
15.38512,4.78253741790336,0.10551440664277
15.3875,4.777885381820208,0.1052221276062569
15.3899,4.774676367976031,0.1049376614417364
15.392288,4.764390116705965,0.1047785595643385
15.411395999999998,4.651269615984786,0.1046746422612011
15.413783999999998,4.640469612177654,0.1046660924575392
15.416164,4.635536140982912,0.1045688029199923
15.41856,4.630602669788169,0.1044712014752226
15.420948,4.625110120085985,0.1044146902868984
15.423328,4.621991758182556,0.1043558881497663
15.425736,4.618593857025407,0.1043176708263424
15.428119999999998,4.61319385512184,0.1043120936301545
15.4305,4.610447580270748,0.1042835246792555
15.432904,4.6058389743001,0.1042772425300815
15.435287999999998,4.60816783612848,0.1041603982396467
15.437668,4.607703201277525,0.104077326536282
15.440072,4.609100897546128,0.1039711659196397
15.44246,4.61049859381473,0.1038661233994328
15.44484,4.610173728590636,0.1037725483744105
15.44724,4.610919798553178,0.1036575074755884
15.449628,4.618603336314752,0.1034319148976425
15.452011999999998,4.629220140382521,0.1031615523583631
15.454408,4.638905778890512,0.102905318865131
15.456791999999998,4.647520482211862,0.1026721202298828
15.459176,4.652410523294099,0.1024830760407483
15.461572,4.663726175496169,0.1021709079162961
15.463959999999998,4.668895755832128,0.1019666369952255
15.466336,4.676719063220561,0.1017422621777551
15.468744,4.686824010609132,0.1014670472334011
15.471127999999998,4.696928957997702,0.101193342476319
15.473508,4.707313444639993,0.1009000243581379
15.475912,4.724635399081313,0.1005075480344308
15.4783,4.743168058336131,0.100089430733613
15.480679999999998,4.766496315016701,0.0996146716802924
15.483076,4.789545032443553,0.0991663873392847
15.485464,4.816318412109515,0.0986806412209303
15.487844,4.843091791775478,0.098194895102576
15.490239999999998,4.86479003476197,0.0977852428798268
15.492627999999998,4.890352709614435,0.0973288216254539
15.495012,4.916986319653537,0.0968591504839646
15.497407999999998,4.937753397080249,0.0964658744956942
15.499792,4.957589308947184,0.0960841591409345
15.502176,4.974491954507922,0.0957397086551643
15.50458,4.99218599600158,0.095397090060191
15.506963999999998,5.015606800480769,0.0949929426370829
15.509344,5.033393389773043,0.0947080713031636
15.511743999999998,5.053042310184875,0.0944053225331619
15.514131999999998,5.0749728705968415,0.094063697505339
15.516512,5.093690625448894,0.0937759798220931
15.518916,5.114690020301085,0.093447870207604
15.521304,5.136341041459332,0.0931318329306417
15.523684,5.152916925938109,0.0928891619945505
15.52608,5.166419774483829,0.0926909267091622
15.528467999999998,5.176849587096493,0.0925374382163065
15.530848,5.187698708589739,0.0923592424925573
15.533243999999998,5.20148109638918,0.0921532127962247
15.535631999999998,5.21526348418862,0.0919471830998922
15.538012,5.233329612734615,0.0916733948373094
15.540416,5.251116202026889,0.0914210511087767
15.542804,5.265689985759248,0.0912188626027565
15.545184,5.2865496109845775,0.0909285389656326
15.547579999999998,5.308200632142825,0.0906407934839763
15.549967999999998,5.332924689234128,0.0903131055250042
15.552352,5.3588594511389305,0.0899642583889215
15.554747999999998,5.382792112297316,0.0896455720484274
15.557135999999998,5.405281751216725,0.0893130488716908
15.559516,5.429121864576493,0.0889515170182343
15.561911999999998,5.445744970883513,0.0886835885709795
15.5643,5.466512048310225,0.0883621930351648
15.566696,5.485137255363661,0.0880763770608604
15.569092,5.505112936857455,0.0877617150956145
15.57148,5.529232589470943,0.0873979226034442
15.573859999999998,5.55414363801735,0.0870344873451621
15.57626,5.5771923554442,0.086682706499322
15.578648,5.593955231378079,0.0864125540762965
15.581027999999998,5.60298924358001,0.0862144821376477
15.583424,5.61430489578208,0.0859795959678524
15.585812,5.62440984317065,0.085768919560248
15.588192,5.62892779720055,0.0855965448766089
15.590588,5.636006930484308,0.0853696542384263
15.592975999999998,5.638662553394652,0.0852114287413887
15.59536,5.64066654999894,0.0850433938363162
15.59776,5.6426705466032265,0.0848762515231323
15.600148,5.6417412769013175,0.0847363685069908
15.602527999999998,5.635085244213879,0.0846414882593462
15.604932,5.63336457857905,0.0844993810123393
15.607316,5.629502042570946,0.0843861280751166
15.609695999999998,5.632996283242452,0.0841822844760048
15.6121,5.635419588727317,0.0839938204104651
15.614488,5.638122433465905,0.0837902414834315
15.616867999999998,5.637892011898297,0.0836125058433552
15.61926,5.631515518464579,0.0835007456911416
15.621643999999998,5.628771139471357,0.0833248026860968
15.62404,5.630170731597828,0.0831030970048122
15.626444,5.63785616521727,0.0828077738644924
15.628828,5.648614634769768,0.0824784666292495
15.631208,5.654297967642792,0.0822008679534417
15.633604,5.65932967420976,0.0819125460613584
15.635988,5.671298848575756,0.0815616319511714
15.638367999999998,5.6789842821952,0.0812643705618021
15.640764,5.689882521374557,0.0809275003426707
15.643147999999998,5.700780760553915,0.0805915744348843
15.645544,5.7078145678673,0.0802845550650101
15.647947999999998,5.714708605553824,0.079984602092858
15.650332,5.725606844733182,0.0796448227651357
15.652708,5.732640652046566,0.0793369197073313
15.655104,5.735530488240257,0.0790724362428548
15.657492,5.731343087008058,0.0788783339518477
15.659871999999998,5.722499857976968,0.0787100382959679
15.662276,5.7073707874529065,0.0786140198835903
15.664664,5.693684739167821,0.0785315159297928
15.667044,5.684282431629292,0.0783943918323627
15.669448,5.669804987411288,0.0783073933686025
15.676619999999998,5.606304425464867,0.0782791922392549
15.679007999999998,5.587403470873449,0.0782512478811811
15.681388,5.5703648474015885,0.0782120694494175
15.683784,5.551184353556451,0.078197577822463
15.686168,5.536799457137065,0.0781501354890398
15.688548,5.519481294411484,0.0781247663495241
15.690952,5.500952426872403,0.0781199562372107
15.69334,5.487219156759074,0.0780821979778564
15.69572,5.478840562578939,0.0779799007740403
15.698116,5.473255465078138,0.0778636468963838
15.700504,5.469253159443173,0.077753870390233
15.702884,5.472467860860957,0.0775721861774824
15.70528,5.479686763771576,0.0773557341525843
15.707664,5.494354991160423,0.0771028261559895
15.710043999999998,5.516100455975157,0.0767838108453361
15.712444,5.537194294483832,0.0764542431314761
15.714832,5.554795788178873,0.0761781114979049
15.717211999999998,5.5719779729933325,0.0759239226666527
15.719616,5.594235294487263,0.0756232791122605
15.722004,5.617563551167835,0.0753104739335893
15.724384,5.64368530452774,0.0749853680242692
15.726784,5.6705984538205625,0.0746672607023457
15.729172,5.698163229419444,0.074363582887753
15.731552,5.72265496908527,0.0740883766586564
15.733948,5.744213442444901,0.0738353699136578
15.736336,5.767913786177808,0.0735593514064404
15.738715999999998,5.794547396216911,0.0732634705668139
15.741112,5.818899366255877,0.073001449279062
15.7435,5.836546185921292,0.0728290081727846
15.745896,5.85233067446715,0.0726675249617412
15.7483,5.867183997453227,0.0725105107064459
15.750683999999998,5.88082661562581,0.0723753685344809
15.753064,5.89339829861175,0.0722526599211672
15.75546,5.903176484918358,0.072143211282163
15.757848,5.9137460671578825,0.0720390683199756
15.760228,5.925246814957186,0.0719317667719443
15.76262,5.9428936346226005,0.07177330593034
15.765008,5.965196282086906,0.0715961749797881
15.767388,5.985496828804795,0.0714361934225457
15.769784,6.008311332948298,0.0712817515204793
15.772168,6.029263505972246,0.0711357009017572
15.774564,6.047422182316859,0.0710009992460819
15.776967999999998,6.063066901235855,0.0708629979721566
15.779355999999998,6.079922324968351,0.0707061227361655
15.781736,6.096777748700847,0.0705485716357124
15.78414,6.1142847987394005,0.0704040068467366
15.786523999999998,6.131000452845036,0.0702572795408962
15.788904,6.1501375165776695,0.0700764114730257
15.791312,6.173698090683717,0.0698461712036899
15.793696,6.194977024789628,0.0696443660975756
15.796076,6.214673167029702,0.069434596185794
15.79848,6.227571611097609,0.069261314990889
15.800864,6.239259350352015,0.0691054603263826
15.803244,6.250155693673503,0.068946533988181
15.80564,6.2576069140096,0.0687874659141655
15.808027999999998,6.263335572852999,0.0686280061870761
15.810408,6.263477238337728,0.068488223207817
15.812816,6.262455420837202,0.0683202420613896
15.8152,6.260781977030618,0.0681415591291773
15.817579999999998,6.25687411505214,0.0679445890029835
15.819976,6.250172756394326,0.0677555569033909
15.822364,6.249757239229483,0.0675157370886743
15.82474,6.25013311799756,0.0672798584973315
15.827144,6.25386157195241,0.0670088673143589
15.829532,6.260942601094039,0.0667031192265183
15.831912,6.264159198369694,0.0664150533142746
15.834312,6.265513464525792,0.0661326140646984
15.8367,6.261792594002415,0.065883537553479
15.83908,6.254207291613068,0.0656515679277082
15.841475999999998,6.2470412981043,0.0653982937642737
15.843863999999998,6.244670902021284,0.065125931492922
15.846244,6.250169139297076,0.0648121443394149
15.848648,6.260230656573142,0.06444894002093
15.851036,6.2693610082894295,0.064088346438944
15.853416,6.281005317431331,0.0637355390708044
15.855811999999998,6.292509856946373,0.0633890502840203
15.858199999999998,6.306947662767611,0.0630292243454361
15.86058,6.319243598215572,0.0626889520205829
15.862975999999998,6.329397663290254,0.0623665082326855
15.865363999999998,6.339132419484357,0.0620653843470444
15.867744,6.354593938663989,0.0617451392576401
15.870148,6.3624191419102925,0.0614959640240835
15.872535999999998,6.373457150716509,0.0612225117349887
15.874916,6.384867246575064,0.0609768884929579
15.87732,6.393995702433482,0.0607564076406213
15.879703999999998,6.406336963851816,0.0605107021333684
15.882087999999998,6.421611491576345,0.0602543581585332
15.884492,6.440890220793708,0.0599773139983336
15.886876,6.4623108203843485,0.0596836698938161
15.889255999999998,6.486804455908044,0.059373949050588
15.89166,6.508364825125543,0.0590787487173581
15.894048,6.527271467290569,0.0587845497463401
15.896427999999998,6.542825534268819,0.0585234856466153
15.898828,6.560381701993485,0.0582541497760889
15.901212,6.570209005986205,0.0580076700982866
15.903596,6.584040511471757,0.0577440409381481
15.905996,6.596521542516951,0.0575020295543857
15.908384,6.607652099121787,0.0572797970963285
15.910764,6.622367548338876,0.0570587201171859
15.913168,6.635872292742466,0.0568515761553878
15.915556,6.644581439720303,0.056658374674875
15.91794,6.6537098955787215,0.0564444406935632
15.920336,6.657623445130808,0.0562637405400485
15.922724,6.656741397257141,0.0560962811997655
15.9251,6.656790514943254,0.0559278446059824
15.927496,6.657631028562284,0.0557654770163215
15.929884,6.657260837367816,0.0556178242376644
15.932263999999998,6.657682042106266,0.0554760558384076
15.934668,6.658754873150773,0.0553461154332176
15.937052,6.660339560874479,0.0552349402450303
15.939431999999998,6.6636468100908814,0.055128403655916
15.941832,6.6677454552402,0.0550275158485042
15.94422,6.668771064456465,0.0549414939804219
15.946599999999998,6.669656904045868,0.0548620303519077
15.948996,6.678690916247801,0.0547439870499691
15.95138,6.683720726956899,0.054642511981551
15.95376,6.693174048039412,0.0545080542664487
15.956164,6.708913210614895,0.0543390854963051
15.958552,6.7242802861380415,0.0541479796026038
15.960931999999998,6.742999936847964,0.0539310520225047
15.963336,6.76558401942386,0.0537058690315849
15.96572,6.792172303492588,0.0534668478124096
15.968099999999998,6.819831522747956,0.0532202991229187
15.970504,6.852705648309655,0.0529477937272915
15.972888,6.883857212378659,0.0526715184562974
15.975267999999998,6.912866906074387,0.0524099834885007
15.977672,6.938943333463918,0.0521561944541096
15.98006,6.961434868241197,0.0518994723593659
15.98244,6.98220384152578,0.0516385499766315
15.984844,6.996314886265053,0.0513871940310615
15.987232,7.00283683689924,0.0511447730862811
15.989612,7.004423420480814,0.0509161759204152
15.992008,7.0101539751820825,0.0506668049084711
15.994396,7.013742659510074,0.0504307422836354
15.996776,7.01290783346465,0.0502270507761449
15.999172,7.013423481859587,0.0500046540557284
16.001556,7.0047200224553565,0.0498218451629289
16.003935999999996,6.991081195998514,0.0496531341883404
