Time,Force,Position
15.943991999999994,2.3758587639774014,0.1766549689214858
15.946383999999997,2.4335305358503296,0.1761041557280293
15.948768,2.492601899849729,0.1748478290905817
15.951167999999996,2.5398967685118428,0.1738018808680068
15.953559999999996,2.5797442085536,0.172874333445358
15.955944000000002,2.6146109555723704,0.1720731513728832
15.958339999999993,2.6521333255014854,0.1708791293213787
15.960731999999991,2.683186654198264,0.1696426687980214
15.963116,2.706932323901546,0.1684542826403558
15.965512000000004,2.7187598327828133,0.1676911656082641
15.9679,2.7305873416640805,0.1669455134974891
15.970283999999992,2.7503760317027712,0.1659296885270283
15.972684,2.779848464391583,0.1645810329612588
15.975071999999995,2.8070864789085004,0.1632472964530345
15.977456000000004,2.828365413014411,0.1620788495726824
15.979855999999998,2.85029597342638,0.1609335787728758
15.982243999999994,2.8740416431296607,0.1598505480064568
15.984628,2.898391717310758,0.1588700898235978
15.987027999999995,2.922602021864994,0.1579121719885106
15.989415999999991,2.943786512314418,0.1569976833068639
15.991799999999998,2.965669850898143,0.1559811618962406
15.994208,2.986202715041509,0.1551130147868171
15.996595999999997,3.004826026237075,0.1544353101910275
15.998983999999991,3.026242834111977,0.1536540819854259
16.001379999999997,3.042212418255069,0.1530426413825023
16.003771999999998,3.0562271234799865,0.1524267479297911
16.046840000000003,3.0747068733329552,0.1522864286813032
16.049239999999998,3.081225032251403,0.1520769392354763
16.051639999999992,3.086672255983213,0.1519142401704275
16.054028000000002,3.093237636729904,0.1516134216330379
16.056427999999997,3.100222326357176,0.1512631688543836
16.058843999999993,3.106787707103868,0.150965338960926
16.061232000000004,3.118660541955508,0.1505265378159476
16.063627999999994,3.131185003113208,0.1500904115451725
16.066031999999993,3.1451997083381245,0.1495617309012095
16.068420000000003,3.158423017630125,0.1490469117166125
16.070824,3.172018413974462,0.148579297820719
16.073216000000002,3.1889191636773324,0.1480511481401992
16.075615999999997,3.2096843452461754,0.1473854013883188
16.128248,3.317863791341134,0.1468854975745176
16.13064,3.33359916220088,0.1466215874693591
16.133023999999992,3.3470528930604866,0.1464605332600128
16.135443999999993,3.3654419909727067,0.1461457429903069
16.137832000000003,3.380106426645813,0.1459336316370889
16.140215999999995,3.401289021237368,0.1455494304281632
16.142616000000004,3.4234027813887007,0.1451461186779915
16.145004,3.451802383033005,0.1445324770301317
16.147387999999992,3.4835545598640847,0.143798005437072
16.149807999999993,3.5201023341209163,0.1429221862687065
16.152196000000004,3.561725245057221,0.1418783465571423
16.154579999999996,3.6082835230461368,0.1407071078856417
16.15697999999999,3.654050405102135,0.1395605216762497
16.159368,3.691948653799325,0.1386492756461189
16.161751999999993,3.731429694362352,0.1377068944976869
16.164147999999997,3.7739837708584343,0.1366750310813101
16.166539999999998,3.818819487354654,0.1355716833789696
16.168924000000004,3.856066109745788,0.1346881605191122
16.171324,3.889588069897807,0.1339023345974273
16.281471999999994,3.683147133641358,0.1331119621344657
16.283872000000002,3.6874308743879127,0.1329730546116031
16.286264000000003,3.6958585862541606,0.1327064834645509
16.288647999999995,3.704426067747269,0.1324253511054635
16.291055999999998,3.71113121812082,0.1321908016394231
16.293447999999998,3.720769634800567,0.1318798754605937
16.29583199999999,3.731478986666952,0.1315294315915035
16.298243999999997,3.7403260074137807,0.1312234375658948
16.300635999999997,3.743026956294499,0.1311000080904311
16.303020000000004,3.745867674802077,0.1309651288928786
16.305436,3.75136212036213,0.1307871670985584
16.307828,3.761652163347936,0.1304979063498897
16.310211999999993,3.781812940438964,0.1299716795024673
16.312619999999995,3.806769314955744,0.1293456360468125
16.315016,3.836800826151997,0.1285895682292164
16.31741199999999,3.86697210697511,0.1278279836949431
16.319807999999995,3.9024980637314166,0.1269120210760378
16.32219599999999,3.935090754181527,0.1260796663221757
16.324575999999993,3.969685545378054,0.1252020984784736
16.326971999999998,4.006841515828438,0.1242292936150408
16.329359999999994,4.038410492920153,0.1233807653629663
16.331739999999996,4.066626894825093,0.1226432844305269
16.33413999999999,4.097636793409367,0.121871758907273
16.336528,4.131859497553557,0.1210259182719074
16.338908000000004,4.161146834645135,0.1202789590590948
16.341303999999994,4.190294402109853,0.1195512292278495
16.34369199999999,4.221304300694126,0.1187904395618731
16.346075999999996,4.251243264091762,0.1180545899870056
16.348479999999995,4.282392932302898,0.1172741855164882
16.350864,4.3093986293943365,0.1165990136278372
16.353247999999994,4.330817333127107,0.1160232624288616
16.355643999999998,4.350513475367181,0.1154744979864477
16.358031999999994,4.358057243501894,0.1152080879690403
16.360411999999997,4.360014018277938,0.1150384434650508
16.389079999999993,4.28134285155282,0.1150174372751624
16.391475999999997,4.275338445171438,0.1149472104296935
16.393863999999994,4.274548945096389,0.1147645586516241
16.396243999999996,4.2754820065140375,0.1145673079622442
16.39864,4.27948810386474,0.1143071770530215
16.401027999999997,4.2893607338278334,0.1139452145778605
16.40342799999999,4.297743119723708,0.1136405169478467
16.405823999999996,4.31427367823211,0.113168936027181
16.408211999999992,4.333597733419847,0.1126562671404763
16.410595999999998,4.352642249353863,0.1121630176432957
16.412992000000003,4.37168676528788,0.1116743264862716
16.41538,4.386866849355921,0.1112477279810274
16.41776,4.399765293423827,0.1108829591661886
16.42015599999999,4.4161088604771255,0.1104929560087202
16.422544000000002,4.434035219396261,0.1100987948445232
16.424927999999994,4.455826010181369,0.109640664030744
16.427328000000003,4.473333060219922,0.1092808140840903
16.429716,4.495495938057368,0.1088573202413338
16.43209999999999,4.520731851827868,0.1083698658843173
16.434495999999996,4.543546355971371,0.1079615722656583
16.436883999999992,4.5650103856745154,0.1076016490098503
16.439268,4.584053005750663,0.1073185626017974
16.441664000000003,4.5969495539607,0.1071565408020054
16.444052,4.606121439931623,0.1070439568616155
16.446432,4.616084721835463,0.1069316390419161
16.448831999999996,4.623766363739167,0.1068774144831535
16.451219999999992,4.637594077508982,0.1067115545704511
16.453599999999994,4.648348755345741,0.1066041489903096
16.455996,4.660965764302057,0.1064764703865713
16.458388,4.676655809191429,0.1062946995157733
16.460768,4.689133048520885,0.1061770802483323
16.463163999999992,4.707616590089591,0.105960443833956
16.465555999999992,4.729033397964493,0.1056997265126045
16.467935999999995,4.74779647878692,0.1054677577116146
16.470336000000003,4.764836998116649,0.1052473582743984
16.472724,4.781877517446379,0.105031073266306
16.47510799999999,4.803993173455581,0.1047302117536518
16.477508,4.821173462412172,0.104505010444116
16.479895999999997,4.840076312861459,0.1042721227161468
16.482276,4.859118932937606,0.1040305250707125
16.484675999999993,4.883236689693224,0.1037120283640695
16.487064000000004,4.905212576075567,0.1034330703790634
16.489447999999996,4.931192663950744,0.1030924626870449
16.491844,4.9630392844383096,0.1026734374663923
16.494236,4.992371947500262,0.1022687141545184
16.496616000000003,5.024126020189211,0.101811640737731
16.499015999999997,5.051084495452408,0.1014230924011228
16.501407999999998,5.081255776275523,0.1009824228632586
16.503788,5.104489589299606,0.1006364976697714
16.506187999999995,5.127723402323689,0.1002958858988272
16.50857599999999,5.155240956094327,0.0998793019518221
16.510959999999997,5.180616639491688,0.0995064501185012
16.51335999999999,5.208273962889186,0.0990960202691161
16.515748000000002,5.235000120726907,0.0986970583648358
16.518131999999994,5.263868148937904,0.0982628131306427
16.520523999999995,5.289663141215845,0.0978751553463763
16.52291199999999,5.3128044064413125,0.0975098939301788
16.525295999999997,5.340229412413334,0.0970741053536156
16.527692000000002,5.3623469642804045,0.0966739180900536
16.530079999999998,5.3818107890950015,0.0962903285036798
16.53246,5.392474814991013,0.0960134018219492
16.534859999999995,5.404629084954244,0.0956908878312738
16.53724799999999,5.412918923051501,0.0954124109635979
16.539631999999997,5.416273394096145,0.0951968624031772
16.542028000000002,5.421210657006627,0.0949825011553568
16.57547199999999,5.248032821466554,0.0949748819609314
16.577872,5.239746775085035,0.0949380607087577
16.580259999999996,5.235325160569489,0.0948610440590592
16.582639999999998,5.226619805307389,0.0948515456949364
16.585039999999992,5.222198190791844,0.0947740400497554
16.587424,5.218987281089798,0.0946706053582075
16.58980799999999,5.215124745081694,0.0945574136311972
16.592208,5.215545949820144,0.0943766165162489
16.594595999999996,5.222904622357623,0.0941132610576448
16.596980000000002,5.236688906014933,0.0937469776071738
16.599375999999992,5.247400153739187,0.0934259026028177
16.601764000000003,5.257971631836581,0.0931144803806314
16.60414399999999,5.2671926354936165,0.0928370529885843
16.606544,5.274271768777375,0.0925922829333031
16.608931999999996,5.278417635754939,0.092376649352693
16.611316000000002,5.286847243479056,0.0920914819885188
16.613711999999992,5.2899221752699805,0.0918918013873531
16.616100000000003,5.292065941501126,0.0916992595383653
16.618483999999995,5.296072038851829,0.0914904250646852
16.651939999999996,5.152734931337165,0.0913664245141687
16.654324000000003,5.14244678420923,0.0913471163173357
16.656719999999993,5.1412379752536,0.0912166790685652
16.659111999999993,5.140960331857749,0.091079717032844
16.661496,5.146177134021951,0.0908535752039421
16.66389199999999,5.153256267305708,0.0906123085903409
16.66628399999999,5.159032147977352,0.0903507897930249
16.668667999999997,5.167369207902851,0.0900296321494956
16.671064,5.1781276774553495,0.0896575328528578
16.673456,5.195171988500818,0.0891936089045839
16.675836000000004,5.207932558799732,0.0887962190369863
16.678236,5.213615891672759,0.0884866526680991
16.680623999999995,5.219858303053225,0.0881418934868766
16.683008,5.232246786299802,0.087720171281467
16.685407999999995,5.247848075106295,0.0872536020643248
16.68779599999999,5.26279773760673,0.0867739243177211
16.690184000000002,5.276676464920525,0.086310191708343
16.692583999999997,5.290183105181983,0.0858182763391733
16.694971999999993,5.302898349510524,0.0853250913012978
16.697356,5.314682428279287,0.0848383946506513
16.699752000000004,5.324324636674772,0.0843861337917429
16.70214,5.334106614697118,0.0839283601918327
16.704523999999992,5.341886491973046,0.0834993257612987
16.706919999999997,5.3480835773831386,0.0830685801210807
16.709316,5.352138792419955,0.082669782900419
16.711703999999997,5.36234007932288,0.0822079527564228
16.714103999999992,5.373984388464782,0.0817611297246064
16.716492000000002,5.386420093539603,0.0813193404625192
16.718875999999995,5.40071812973398,0.0808700709820392
16.721276000000003,5.415016165928357,0.0804245670070781
16.723664,5.43145607249601,0.0799506282263816
16.726051999999996,5.454042050929775,0.0794130368598654
16.728448,5.476208720482958,0.0789015566191507
16.730835999999996,5.494883045222506,0.0784511469659999
16.733223999999993,5.512067125894835,0.0780425512657726
16.735619999999997,5.535769365485613,0.0776029251196465
16.738007999999994,5.558400669889753,0.0771740372944785
16.740396000000004,5.583266392465784,0.0767651586402487
16.742791999999994,5.608504202094156,0.0763836231412214
16.74517999999999,5.634673177282303,0.0759972143010708
16.747568,5.658979821350894,0.0756198757179939
16.749967999999996,5.685009026912183,0.0752465198030375
16.752355999999992,5.706614722100057,0.0749327723960233
16.754756,5.726590403593852,0.0746642462741905
16.75715199999999,5.743353279527731,0.0744326136278641
16.75954399999999,5.750897047662444,0.0742932976485191
16.761939999999996,5.760442916543572,0.074138613497247
16.764336,5.767707145424565,0.0740168185280282
16.766723999999996,5.77376066949206,0.0739164022676154
16.76912399999999,5.778463719119194,0.0738443148515369
16.771519999999995,5.785960265425666,0.0737602567600287
16.77390799999999,5.78889353173186,0.0737399526589156
16.776308,5.794899833971112,0.0736921619045544
16.77870399999999,5.80304800658364,0.0736211016643984
16.781099999999995,5.810265013636388,0.0735543027238657
16.783500000000004,5.813757358450024,0.0735047094558182
16.785911999999996,5.824187171062688,0.0734059004254123
16.78831199999999,5.831683717369158,0.0733263111659714
16.790707999999995,5.842113529981822,0.0732280841494624
16.793099999999995,5.854405673714044,0.0731229691900857
16.795496,5.871493414872016,0.0729923637340719
16.797895999999994,5.884576954537155,0.0728924963730247
16.80028399999999,5.90101306938907,0.0727516532257211
16.802684,5.917728723494706,0.0725953462213448
16.805080000000004,5.940310910212733,0.072401595584092
16.807468,5.966897298423594,0.0721768466899737
16.809851999999992,5.989479485141619,0.0719837464661997
16.812252,6.013272376673145,0.0717715940423793
16.814639999999997,6.03585456339117,0.0715784938186053
16.81702,6.061370016415393,0.0713685433392007
16.819419999999994,6.082881267946782,0.0711895807315773
16.821811999999994,6.1080246339186655,0.070956843402016
16.824196,6.127301467278158,0.0707610369220724
16.826604000000003,6.143924573585177,0.0705698220155117
16.828992,6.158825118399498,0.0703778641673244
16.831372,6.166648425787932,0.0702386058658189
16.833771999999996,6.169396596496892,0.0701403897378186
16.836159999999992,6.173355472019352,0.0700239002211521
16.838544,6.176150864556557,0.0698792284720887
16.840940000000003,6.179225796347482,0.0697214143282228
16.843332000000004,6.179507231459072,0.0695743762668664
16.845715999999996,6.182070306570798,0.0693996862611431
16.848112,6.18183988500319,0.0692345075110212
16.850499999999997,6.1845427297417785,0.0690532073853379
16.85288,6.187944422614667,0.0688390895353372
16.855276000000003,6.189623553994859,0.0686241576719729
16.857664,6.19265315981541,0.0683851731205247
16.860047999999992,6.197824636009238,0.0681275973497434
16.862443999999996,6.201692859590949,0.0678472709592352
16.864831999999993,6.199182693881073,0.0675797543107788
16.867211999999995,6.198023002611556,0.0672881897636625
16.869612000000004,6.196723541715178,0.0670056125953097
16.872,6.20264108787155,0.0666706936230886
16.874380000000002,6.206696302908366,0.0663395285765109
16.876779999999997,6.215826654624653,0.0659758563746963
16.879167999999993,6.235247049326746,0.0655373353430387
16.881552,6.255226522536278,0.0650724351216618
16.883951999999994,6.276556470186169,0.0645867701785698
16.88633999999999,6.294533842649286,0.0641371606438342
16.888723999999996,6.309438179179347,0.0637102979203252
16.89112,6.323411350149629,0.0632861139176203
16.893512,6.336313585933274,0.062872924387947
16.895892000000003,6.351869548769392,0.06245983178646
16.898291999999998,6.364492245299315,0.0620616194004421
16.900679999999994,6.369478625895909,0.0617331853651378
16.903064,6.379400373545115,0.0613831008555142
16.90545999999999,6.384246984514848,0.0610615870217023
16.90785199999999,6.388162429924803,0.0607442632760917
16.910235999999998,6.39687347276051,0.0604118823970867
16.912632000000002,6.41024034339511,0.0600690984520416
16.915024000000003,6.425469545149265,0.0597250136764536
16.91740399999999,6.436694545410586,0.0594024067872713
16.919804,6.43949183380566,0.0591410582590849
16.922191999999995,6.448667511492321,0.0588749930533652
16.924576000000002,6.45248851324579,0.0586513456117997
16.926975999999996,6.450954839066067,0.058470103096909
16.929363999999993,6.450072791192401,0.0583008257965857
16.931752000000003,6.448771434438154,0.058151734509667
16.934151999999997,6.450123804736382,0.0580045301822921
16.936539999999994,6.452407340594388,0.0578557325466235
16.938919999999996,6.4564134379450895,0.0577107431726655
16.94131999999999,6.458137895295657,0.0575878940225902
16.943708,6.460002122273083,0.0574590229982723
16.946091999999993,6.465870550743341,0.0573123204096179
16.948492,6.480026921452989,0.0571161720400755
16.950887999999992,6.484964184363469,0.0569709305715516
16.953267999999994,6.500563577312095,0.0567925018802712
16.955668000000003,6.515883431006996,0.0566282879030949
16.958056,6.527710939888263,0.0565010566594894
16.960436,6.540190075075588,0.0563862629130988
16.96283199999999,6.547594073583441,0.0562965983078163
16.965223999999992,6.55686040321085,0.056204551446022
16.967603999999994,6.5714814087714535,0.0560744146029302
16.970004000000003,6.5827970609735225,0.0559312380948552
16.972392,6.597465288362367,0.0557594552282546
16.974772,6.616557026124626,0.0555533200763222
16.977171999999996,6.631644562394052,0.0553637501800885
16.979559999999992,6.643286975678086,0.055165565447401
16.981939999999994,6.657350798589116,0.0549420922485044
16.984340000000003,6.67090276482095,0.0547011862337805
16.986728,6.682732169560085,0.0544562598645514
16.989108,6.693909947993164,0.0541977321541213
16.991507999999996,6.703225395306686,0.0539415325684001
16.993895999999992,6.7057431444480375,0.0537037813190833
16.996275999999995,6.7013234257903616,0.0534908526136533
16.998676000000003,6.703189548625658,0.0532406177021257
17.001064,6.695604246236309,0.0530046854292632
17.00344799999999,6.682431950488291,0.0527714575319986
17.005848,6.668887567687934,0.0525130768016614
17.008235999999997,6.652177601155907,0.0522315650577745
17.010616,6.639471836116712,0.0519340053179682
