Time,Force,Position
18.543564,3.254125762748155,0.1668775456166424
18.545968,3.259897851704059,0.1668284852644053
18.548356,3.2658097102868227,0.166765119722453
18.550736,3.279962289280732,0.1664321629705583
18.553132,3.296069747192814,0.1661031207622936
18.555524,3.3174846592098457,0.165627859735993
18.557904,3.341460750480736,0.1650277000530493
18.5603,3.366787316191985,0.1643554797111286
18.562688,3.3883892196641203,0.1638127106695353
18.565072,3.416928590935285,0.1630226997255638
18.567468,3.4459798188856468,0.1622453234609341
18.569856,3.481968514635038,0.161213568879817
18.57224,3.520797928892007,0.1599964985745145
18.574636,3.55231778829761,0.1589998146539549
18.577024,3.5797408984117616,0.1581095676103429
18.579408,3.613961706698082,0.1569784484872192
18.581804,3.64883414129046,0.1558438791744434
18.584192,3.6835668062559783,0.1547193790912016
18.63198,3.662250129611172,0.1542779101175329
18.634368,3.6589919980808823,0.154257701488345
18.636748,3.658247823976208,0.1541912140194815
18.639144,3.6616476209912254,0.1539784639383978
18.641532,3.6667699794989415,0.1537322347705695
18.643912,3.673242812447016,0.1534130895526268
18.646312,3.6766426094620352,0.1532007636634339
18.6487,3.6791112409172753,0.153014784910805
18.65108,3.682650807559155,0.1527868313007125
18.653484,3.688332244574311,0.1524736664728842
18.655868,3.696015782335884,0.1520909071739283
18.658252,3.704910024910956,0.1516545872763122
18.660648,3.7188794041655,0.1510327228424342
18.663036,3.728984351554071,0.1505332730843641
18.66542,3.741091399689058,0.1499615427856911
18.667816,3.75762195819746,0.1492232138045232
18.670204,3.772802042265503,0.1485720665752678
18.672584,3.788773522266464,0.1479138899678526
18.674988,3.80032149189401,0.1474288998887792
18.677372,3.806282468162887,0.1470895286235373
18.679756,3.8014415447667607,0.1470893633996091
18.682152,3.798742491743912,0.1470091278070463
18.684536,3.797254143534562,0.1468745634325308
18.686916,3.7945550905117136,0.1467940666208721
18.689324,3.791995807115725,0.1466990840658273
18.691708,3.794232121145488,0.1464718738948858
18.694088,3.801031715175526,0.1460692733363023
18.696488,3.8067603740189258,0.1457031177863677
18.698876,3.817284630288077,0.1452132806551718
18.701256,3.83260448398298,0.1446041453745946
18.703652,3.8508576039840783,0.1439241445256676
18.70604,3.8699021199180943,0.143246358998072
18.70842,3.8882950095460527,0.1425674993692575
18.71082,3.910552331039985,0.141789892358993
18.713208,3.929596846974001,0.1411086136234849
18.715588,3.943007147721104,0.1406388265230321
18.717984,3.953623951788873,0.1402344543898917
18.720372,3.9613074895504456,0.1399054464211516
18.722756,3.9703415017523778,0.1395092740234766
18.725152,3.985753903245898,0.1389672009949955
18.72754,4.007684463657866,0.1382608233091708
18.729924,4.028544088883196,0.1375966388422061
18.73232,4.0481930092950265,0.136986783157194
18.734708,4.0687730952666366,0.1363574343805111
18.737092,4.0870715412381085,0.1358186300445295
18.739488,4.100434620156968,0.1354217178541158
18.758596,4.120219518479921,0.1352141691782357
18.761000000000003,4.124176498144512,0.1351823898925702
18.763388,4.12948395224946,0.1350932663818238
18.765768,4.135862341541048,0.1349721097392255
18.768164,4.149178198631666,0.1346831811026384
18.770552,4.167569192401755,0.1342692430233581
18.772932,4.187310660612203,0.1338093945659039
18.775336000000003,4.2101251647557065,0.1332866294435343
18.777724,4.231868733712571,0.132792347512746
18.780104,4.253612302669437,0.1322980655819577
18.782504000000003,4.275495641253162,0.1317963910629109
18.784892,4.299381080583305,0.1312511577337741
18.787272,4.324057915846364,0.1306975027037482
18.789668,4.345661715176369,0.1302153434758035
18.792056,4.370478320066289,0.1296575204266005
18.794436,4.398228191262405,0.12903460477474
18.796836,4.428911328764715,0.1283440085442452
18.799224,4.458942839960968,0.1276495886024775
18.801604,4.485901315224165,0.1270268857168139
18.804,4.517003761607057,0.1263102683571729
18.806388,4.546243876870392,0.125633171480891
18.808768,4.570129316200534,0.1251067811689108
18.811164,4.594526612209874,0.1245998701071013
18.813552,4.622648570458326,0.1240368249733483
18.815932,4.644903996094388,0.1236030301754206
18.818328,4.662875680983897,0.1232847301174462
18.820716,4.677774329940351,0.1230395919522469
18.823112,4.683733410351359,0.1229772538718186
18.825512,4.691275282628202,0.1229062057465014
18.8279,4.700679486024602,0.1228055616449511
18.83028,4.711946020540559,0.1226776193101522
18.832684,4.718416957630764,0.1226346414431654
18.835072,4.727029765094246,0.1225406860771429
18.837452,4.739134917371364,0.1223463920904418
18.839848,4.743091897035955,0.1223265556739303
18.842236,4.749702603753018,0.1222746456692693
18.844616,4.755661684164028,0.1222163177388724
18.847016,4.762412160507952,0.1221547668185257
18.849400000000003,4.773446377598432,0.1219925792765479
18.851784,4.7795452276363,0.1219252147775527
18.85418,4.783921516181471,0.1218752377870447
18.856568000000003,4.792441775846336,0.1217368688071842
18.858948,4.801521114018642,0.121557112591617
18.861344000000003,4.803802754018779,0.1214973386473061
18.863732,4.807155329205555,0.1214128009904626
18.866112,4.810647674019192,0.1213175636530855
18.868516,4.812137918086411,0.1212607278955663
18.870904000000003,4.821636565139299,0.121047496969164
18.873284,4.832625456259404,0.1207799045232274
18.875680000000003,4.840681081073314,0.1205655233986103
18.878068,4.843941108461473,0.1204323062886565
18.880452,4.850553711036407,0.1202136841803128
18.882848000000003,4.856514687305284,0.1199905245096429
18.885236,4.864337994693716,0.1197434818585564
18.88762,4.877236438761623,0.119394234961172
18.890016000000003,4.884547889470858,0.1191286146995589
18.892408,4.892510966486151,0.1188714318407227
18.894792,4.899682647568526,0.118618259801803
18.897188,4.90792526383754,0.1183462728103442
18.899576,4.917238815293193,0.1180505071239894
18.901960000000003,4.930137259361099,0.1177129813371052
18.904356,4.942384077122947,0.1173742515719553
18.906744,4.952489024511517,0.1170817198348321
18.909124,4.965667007833143,0.1167279956447568
18.911524,4.976842890408352,0.1164086278205747
18.913912,4.988158542610422,0.1160794067857134
18.916292,5.003618165932185,0.1156685107187765
18.918688,5.014142422201336,0.1153455457510808
18.921076,5.022524808097209,0.1150700182998425
18.92346,5.034259769179859,0.1147183943764427
18.92586,5.045994730262509,0.1143629683202374
18.928248,5.058241548024356,0.114027132282655
18.930632000000003,5.066996020972568,0.1137786253647056
18.933028,5.072677457987725,0.1135896127204148
18.935416,5.079290060562658,0.1133902287172613
18.937796,5.088975699070649,0.1131343645550577
18.940196,5.0995925031384175,0.1128685623480616
18.94258,5.110069537579324,0.1126128889598533
18.944964,5.116262831273678,0.1124458703916947
18.94736,5.121385189781396,0.1123002665453861
18.949752,5.123853821236636,0.1121808775434829
18.952132,5.120967776758683,0.1121694774906895
18.954536,5.122225703400425,0.1120818488610213
18.956924,5.124414795601944,0.1119828927398223
18.959308,5.129537154109659,0.1118391512610824
18.9617,5.133728347057597,0.111706941608957
18.964092,5.138571166311593,0.1115844684257287
18.966472,5.144484920752226,0.1114407483377216
18.968872,5.153751250379635,0.1112269296922166
18.97126,5.1608757096337685,0.1110562693352713
18.97364,5.171724831127013,0.1108413903992328
18.97604,5.179640686314065,0.1106685059787121
18.978428,5.191840282247669,0.1104130648996747
18.980808,5.204179647808133,0.1101483966323445
18.983208,5.215587847808819,0.1098974541890591
18.985596,5.223783242249589,0.1097073601086405
18.98798,5.229324909637886,0.1095412167939056
18.990376,5.233144015533486,0.109386820443607
18.992764,5.236171725496167,0.1092327914639261
18.99514,5.242272471391903,0.1090272774964199
18.997544,5.249304382847418,0.1088105905992459
18.999932,5.258478164676211,0.1085497189359432
19.002312,5.261505874638892,0.108394709239229
19.004708,5.26653568534799,0.1082099745814483
19.007096,5.271565496057089,0.1080263886206559
19.009472,5.2803199690053,0.1078010723008435
19.01188,5.287491650087676,0.1075809134347277
19.014268,5.294383791916332,0.1073793759556532
19.016648,5.297923358558212,0.1072479370340765
19.019044,5.304256421879424,0.1070870036682741
19.021432,5.312871125200775,0.1068818849001131
19.023812,5.327492130761378,0.1065918027096452
19.026208,5.337969165202287,0.1063684234851018
19.028596,5.349237595576112,0.1061450382482676
19.030976000000003,5.361576961136576,0.1059055660751426
19.033372,5.37498726188368,0.1056452145340524
19.03576,5.3903996633772,0.1053573462379295
19.03814,5.409396957482974,0.1050399548933237
19.040544,5.434260784201136,0.1046495128335176
19.042932,5.458053675732661,0.1042821945041251
19.045312000000003,5.480775632077549,0.1039326852947612
19.047708,5.508712494728767,0.1035059785373487
19.050096,5.542655659619237,0.1029972100771032
19.052476,5.57352578857665,0.1025392731785639
19.054876,5.605466852720703,0.1020691407458396
19.05726,5.630749988319447,0.1016706358772042
19.059644,5.652960087985135,0.1013166023612281
19.06204,5.677731366904681,0.1009046197157185
19.064428,5.700640314704671,0.1005084883698893
19.066824,5.719964369892409,0.1001426800453192
19.06922,5.7294176909749215,0.09989926871332
19.071612,5.733144249071904,0.0997187023809885
19.073992,5.740363151982523,0.0994689042971064
19.076388,5.745068097467526,0.0992279089816724
19.078776,5.746839776646336,0.0990222988518825
19.081156,5.753686592504616,0.0987498991942656
19.08356,5.760533408362898,0.0984792757411266
19.085948,5.76700813716884,0.0981855974875098
19.088328,5.766824937429475,0.0979585950734017
19.090724,5.7677126728767485,0.097716486545684
19.093112,5.771673444257078,0.0974343681281922
19.095492,5.770559078957936,0.0972182550341477
19.097888,5.763578181046403,0.0970654606022008
19.100276,5.7567370527617285,0.0969043929654628
19.10266,5.746822888544,0.0967829485462737
19.105056,5.744125731379021,0.0965661995662295
19.107444,5.745712314960596,0.0962863331519287
19.109828,5.743154927422476,0.096061564162225
19.112224,5.741808244697856,0.0958118875166757
19.114612,5.737108986786461,0.0956164664561252
19.116992,5.743351398166927,0.0952947136123533
19.119396,5.753458241413366,0.0949345308519019
19.121784,5.761143675032807,0.0946234567342797
19.124164,5.771482835704725,0.0942978126383094
19.126564,5.78261339230956,0.0939723855715415
19.128952,5.786015085182449,0.0937246455434664
19.131332,5.789416778055337,0.0934782252107325
19.133728,5.791328226861005,0.0932726357625231
19.136116,5.798314812346145,0.0930062003069682
19.138496,5.800505800405536,0.0927842021899391
19.140896,5.79976352215873,0.0925925337781018
19.14328,5.798881474285065,0.0924084566385317
19.145664,5.800792923090735,0.0922016503800128
19.14806,5.802844141523264,0.0919868885108127
19.150452,5.805035129582654,0.0917632455564818
19.152832,5.803594003201547,0.0916114635115054
19.155232,5.798800301633664,0.0915136473268321
19.15762,5.7947979959987,0.0914165370934734
19.16,5.79344941741621,0.0913064253719024
19.162404,5.7994576155133295,0.0910979866240991
19.164792,5.799319741744338,0.0909653709561045
19.167172,5.798250702415568,0.0908402742163352
19.169568,5.8001149293929934,0.0906871809067753
19.171956,5.801047990810642,0.0905411620924159
19.174336,5.8022605914820105,0.0903793140437628
19.176732,5.811202055885324,0.0901489376161397
19.17912,5.817861880288502,0.0899557663834086
19.1815,5.826803344691816,0.0897270148027318
19.1839,5.831181529094857,0.0895719288026877
19.186284,5.838213440550372,0.0894044091872957
19.188668,5.848178618312082,0.0892103163622403
19.191064,5.861356601633709,0.0889742711802946
19.193448,5.875465750515113,0.088732342862557
19.195848,5.888503964209878,0.0885048717601106
19.198244000000003,5.904615213837701,0.088244194124063
19.200632,5.921006002719243,0.0879678098159531
19.203016,5.936465626041006,0.0876959547507123
19.205408,5.954998285295824,0.0873905166143449
19.2078,5.973810483804364,0.0870734210704508
19.21018,5.989270107126128,0.0868088912292723
19.212576,6.006731831194308,0.0865247547755942
19.214964,6.026195656008904,0.0862249858251153
19.217348,6.045799250450361,0.0859211379254213
19.21974,6.067404945638236,0.0856004607217931
19.222128,6.085937604893054,0.0853109164062218
19.224512,6.1044702641478725,0.0850280012052743
19.226908,6.123282462656411,0.0847288697755197
19.229296,6.137950690045256,0.0844753014343805
19.23168,6.157973593367293,0.08415749078462
19.234076,6.183071633368804,0.0837945768416103
19.236464,6.207238507810534,0.0834407771370218
19.238848,6.230194677438768,0.0831104699096805
19.241244,6.253709925574441,0.082753757917849
19.243632,6.278156339269892,0.082391891426284
19.246012,6.303254379271403,0.0820445168448109
19.248412,6.330354520019328,0.0816825412831245
19.2508,6.361598631886949,0.0812804617945392
19.25318,6.389909477448375,0.0809023408116685
19.255576,6.412074251143691,0.0805814048481262
19.257964,6.435309960025644,0.0802494346212104
19.26036,6.458685438534458,0.0799126571283958
19.262756,6.475914845177161,0.0796334800395517
19.26514,6.489140050327031,0.079387860036095
19.267524,6.499431989170704,0.079164346147505
19.26992,6.516661395813406,0.0788882342982914
19.272308,6.526022169097301,0.0786706626572779
19.274688,6.538176439060532,0.0784401476976084
19.277088,6.5523328097701805,0.0781928062237517
19.279476000000003,6.562484978986996,0.0779791876400317
19.281856,6.56462874521814,0.0778300171658208
19.284252,6.566632741822428,0.0776884197760591
19.28664,6.566634637680296,0.0775625363675995
19.28902,6.566356994284445,0.0774509906503376
19.29142,6.566870746821511,0.0773422734795798
19.293808,6.563659837119464,0.0772507209587535
19.296192,6.55951776185764,0.0771635596346853
19.298588,6.554304751409177,0.0770873795408765
19.300976,6.553095942453547,0.0769818334644917
19.303356,6.562968572416641,0.0767936219775957
19.305756,6.573912137566372,0.0765962661298211
19.308144,6.584995472342964,0.0763936896719172
19.310528,6.601293713425889,0.0761456727513758
19.312932,6.622667091188286,0.0758601620542783
19.31532,6.645902800070239,0.0755677416858737
19.3177,6.664063372272721,0.0753158179795345
19.320096,6.689021642647371,0.0750251672560358
19.322484000000003,6.712257351529325,0.0747371353247606
19.324864,6.736424225971056,0.0744466078689617
19.327264,6.761522265972565,0.0741525706934916
19.329648,6.789972881160852,0.0738204558527553
19.332032,6.815490230042943,0.0735054273232174
19.334428000000003,6.845291319671587,0.073152422413957
19.336812,6.875883805233151,0.0728054395180529
19.339192,6.905824664488655,0.0724502434279872
19.341592,6.933903192624603,0.07210014908839
19.34398,6.960119389640993,0.0717582696679942
19.346376,6.985264651470747,0.0714278407153962
19.348772,7.006405711807666,0.0711260149131315
19.35116,7.01860720359914,0.0708827754200186
19.35354,7.026152867591723,0.0706556453960963
19.35594,7.033418992330584,0.0704424042121176
19.358328,7.038403477069308,0.0702553015457714
19.360708,7.03859236438228,0.0700902567687384
19.363104,7.037198459829417,0.0699186653195489
19.365492,7.040879691956026,0.0697143593126746
19.367872,7.04069649221666,0.0695286205428579
19.370272,7.039442357290657,0.0693518567375283
19.372656,7.036465660871958,0.0691745804647505
19.37504,7.035770604453395,0.0689735937440672
19.377436,7.036006713594612,0.0687703569136596
19.379824,7.044390995348354,0.0685164790064001
19.382204,7.047420601168905,0.0683070751384496
19.3846,7.049798580683397,0.0680891526815956
19.386988,7.053387265011389,0.067857245766505
19.389384,7.062702712324911,0.0676046150325087
19.39178,7.072809555571352,0.0673556143684859
19.394168,7.081985233258013,0.0671089783530251
19.396548000000003,7.092092076504453,0.0668597981152244
19.398944,7.101919380497172,0.0666213991449292
19.401332,7.1184046130352,0.0663609318719954
19.403712,7.130234017774336,0.066111799184654
19.406116,7.140480630647635,0.0658548254474628
19.408504,7.155383071319827,0.065586865626524
19.410884000000003,7.172939239044493,0.0653192795717105
19.41328,7.181695607850574,0.065090993400422
19.415668,7.190451976656655,0.0648622920871396
19.418048,7.200558819903094,0.0646133077088163
19.420444,7.214530095015508,0.0643507676817005
19.422832,7.225148794941146,0.064120032204081
19.425216,7.235627725239923,0.0638966522219337
19.427612,7.238098252553034,0.0637156217687574
19.43,7.242990189493141,0.0635062009414456
19.432384,7.244809090500193,0.0633148301486759
19.43478,7.245557056320607,0.0631319853478006
19.437168,7.245653395834963,0.0629406388398551
19.439552,7.247100209789677,0.0627302355833069
19.441948,7.250688894117669,0.0625046795852327
19.444336,7.253486182512741,0.062274951664532
19.446716,7.259775815721451,0.0620104242903329
19.449112,7.258196815571352,0.0617777593315278
19.451500000000003,7.263415513593424,0.0615211795632207
19.453884,7.270496542735051,0.0612608902366891
19.45628,7.271850808891149,0.0610168219390973
19.458668000000003,7.272273909487469,0.0607755505158168
19.461064,7.277772146763258,0.0605071470839928
19.463464,7.284341319225691,0.0602311957260623
19.465852,7.296497485046789,0.0599491213875309
19.468232,7.306931089375192,0.0596667664347742
19.470632,7.317504463330457,0.059378014604195
19.473016,7.32807783728572,0.0590905815472315
19.4754,7.338651211240983,0.0588018848175151
19.477796,7.347222484449831,0.0585216642012376
19.480184,7.357795858405094,0.0582325272838878
19.482564,7.369952024226193,0.0579535768531187
19.48496,7.375962118181182,0.057705421481159
19.487348,7.378479867322534,0.0574899428708455
19.489732,7.381137386090748,0.0572697014289793
19.492128,7.385657235978517,0.0570473185621151
19.494516,7.390828712172346,0.0568365113977691
19.496896,7.407221396911757,0.0565754567780736
19.499292,7.418678714598554,0.0563320438079221
19.50168,7.431206967471993,0.0560829617281995
19.504064,7.446808256278486,0.0558191715420515
19.506464,7.458684882845865,0.0555592568226349
19.508852,7.473494775719439,0.0552929585398139
19.511232,7.488444438219874,0.0550218615568796
19.513628,7.495805006615221,0.0547654432537763
19.516016,7.499021603890876,0.0545287101786552
19.5184,7.505590776353305,0.0542682892799544
19.520796,7.509366452136399,0.0540100741608667
19.523184,7.516354933479411,0.0537332551793927
19.525564000000003,7.527347616315255,0.0534434217438015
19.527964,7.538480068777961,0.0531487434919175
19.530352,7.546167398255272,0.052845927556224
19.532732000000003,7.562002900345111,0.0525117644459133
19.535128,7.583193078368144,0.0521484164575224
19.537516,7.598097414898204,0.051814565621587
19.539900000000003,7.61006848512207,0.051487805351126
19.5423,7.615102087546907,0.0511799468654238
19.544688,7.605841445493104,0.0509283744015626
19.547068,7.600724774558996,0.0506585746826604
19.549464,7.59453716843825,0.0503950244539158
19.551856,7.589140958250422,0.0501369491962609
19.554236,7.587329640674848,0.0498824705851607
