Time,Force,Position
21.168116,2.75420254460472,0.1932224055948495
21.170528,2.897847454622655,0.1902925136695274
21.172916,3.0390275249010887,0.1871466345791233
21.175292,3.165871816446248,0.184527321063975
21.177688,3.277728702952076,0.182362024490669
21.180072,3.369987682590054,0.1808023093690365
21.182452,3.4486531617415643,0.1798052309957337
21.184868,3.5334666086170547,0.1781378862018597
21.187256,3.618748482059238,0.1762414757401106
21.189636,3.691928994940041,0.1744885939064961
21.192032,3.747700693154517,0.1729774837611121
21.194416,3.783967032299758,0.1719404676056224
21.196796,3.812925712451503,0.1709672059246936
21.199208,3.839092791781783,0.1698982627710935
21.201592,3.8659606151042327,0.1685722361365048
21.203972,3.881656347567212,0.1674387786278793
21.206368,3.880079243274983,0.166831171609612
21.208752,3.8692358093553447,0.1666484879391546
21.213524,3.855551656928129,0.1666351774925825
21.215912,3.8564847183457767,0.1663916538435526
21.218288,3.8535080219270768,0.1661450333040198
21.220684,3.8435013099107302,0.1660851683683401
21.223068,3.837683894984453,0.1659999554035403
21.225448,3.83586878569314,0.1659815818039038
21.251764,3.867194070212162,0.1659308181073788
21.254144,3.88418357599791,0.1659064290477365
21.256544,3.913977082195078,0.1654726385662318
21.258928,3.95038319096718,0.1647139962482554
21.261308,3.985905356007748,0.1639102364806722
21.263724,4.015840527689645,0.1632845509794494
21.266112,4.049173600528692,0.1626668022954498
21.268492,4.09233018564472,0.1618265288072093
21.270908,4.135486770760747,0.1610005301386091
21.273292,4.175617541771963,0.1602033303483277
21.275672,4.211232254611148,0.1595295770895264
21.278076,4.248429759316168,0.1588384552513114
21.280464,4.290235869991837,0.1581016809661163
21.282844,4.344706211452065,0.1570136376137003
21.285248,4.400294709927175,0.1558270462175881
21.287632,4.451274602431636,0.1547036911671605
21.290012,4.496015875271369,0.1537469104003923
21.292416,4.546763450350351,0.1526384254947
21.294804,4.602446392481947,0.1514322096887311
21.297184,4.652402571628014,0.1503680820366042
21.299588,4.700543641482766,0.1492793784460915
21.301976,4.742865400553371,0.1482974368581984
21.304356,4.775456195145613,0.1475830837466037
21.306752,4.806137436790054,0.1469930082511554
21.30914,4.841474506233387,0.146319359200985
21.31152,4.877882510863358,0.1456185685213216
21.313916,4.910473305455599,0.1449518329826001
21.316304,4.9368254803831135,0.1444111063585806
21.318684,4.964528129750986,0.1438297363927491
21.32108,4.995583354305634,0.143153426053412
21.323464,5.030410462927638,0.1423584237875642
21.32586,5.065284793377886,0.1415162163867724
21.328264,5.101417050469876,0.140601005903955
21.330648,5.12888927827014,0.1398780829750422
21.333028,5.155011031630045,0.1392071895062722
21.335424,5.182203720176589,0.1385095765503073
21.337812,5.20595128573774,0.1378502583288021
21.340192,5.220666734954829,0.137338931950395
21.342596,5.22765332043997,0.1369826786898018
21.34498,5.2395752729777225,0.1365246240366985
21.347364,5.256572362194948,0.1359621831628584
21.34976,5.26984478917306,0.1354559520371613
21.352144,5.282465589845116,0.1349384881733531
21.354524,5.289267079733023,0.1344826396593012
21.356928,5.288759014769563,0.1341488511729339
21.454876,4.934381844317148,0.1340956512855203
21.45728,4.938386045809981,0.1340122799527441
21.459668,4.942390247302815,0.1339296756339461
21.462048,4.952121211781181,0.1337442151501444
21.464444,4.963994046632821,0.1335037828765284
21.466828,4.97707758629796,0.1332300714844594
21.469208,4.986576233350847,0.133012628379782
21.471612,5.000079081896567,0.1327144293087314
21.474,5.014280778576589,0.1323651680247727
21.476384,5.024757813017496,0.1320743508027868
21.478776,5.036166013018182,0.1317668593730989
21.481164,5.046131190779892,0.1314602005339366
21.483548,5.062382210034574,0.1310113898451791
21.485944,5.084639531528506,0.1304398465759992
21.488332,5.1018217163429656,0.1299808653488419
21.490712,5.122728563396538,0.1294619936028632
21.493108,5.14349564082325,0.1289539305817527
21.495496,5.167195984556159,0.1283908564011658
21.497892,5.192107033102565,0.1277917776626543
21.500288,5.214876211275694,0.1272510247417236
21.502672,5.232989561649934,0.126783350309857
21.505052,5.245376149038643,0.1264195748297309
21.507456,5.254969239748016,0.1260984629184762
21.509844,5.265121408964829,0.1257443806642166
21.512228,5.280348714861114,0.125296704820186
21.514632,5.293573920010983,0.1248893376787841
21.517016,5.30773029072063,0.1244732130180415
21.519396,5.322957596616917,0.1240409526295154
21.5218,5.338836528819261,0.1236174759494089
21.524188,5.360581993633995,0.123098636394898
21.526568,5.384888637702588,0.1225113535466005
21.52896,5.411197382517596,0.1218942834314962
21.531348,5.4347126306532685,0.1213229012921517
21.533728,5.455993460617048,0.120758603187407
21.536132,5.480487096140742,0.1201335253054568
21.538516,5.50446887498524,0.1194992835059236
21.5409,5.531523689762794,0.11881751442481
21.543296,5.560720374913624,0.1181051593658739
21.54568,5.592850326370649,0.1173584383191094
21.548064,5.624328651521616,0.1166083941025084
21.55046,5.6626046748447525,0.1157670253876174
21.552848,5.700601158914168,0.1149408153864208
21.555228,5.742462074849557,0.1140633129174466
21.557632,5.781761811531089,0.1132650298358574
21.56002,5.814775706719649,0.1125816898694836
21.5624,5.846578897094711,0.1119249219146579
21.564796,5.875309051536717,0.1113206474382878
21.567184,5.901245709299387,0.1107547037107053
21.569564,5.92732213668892,0.110184464260782
21.57196,5.951396463332033,0.1096501554046038
21.574348,5.971978445161512,0.1091912797217
21.576728,5.991629261431211,0.1087471634768156
21.57912,6.014445661432585,0.1083021902549984
21.581504,6.036004134792216,0.1079327770037522
21.583884,6.054861659271128,0.1076344756633713
21.5863,6.073951501175519,0.1073705415830116
21.588684,6.08703504084066,0.1071889714879229
21.591064,6.097417631625082,0.1070776526341609
21.593468,6.104168107969008,0.1070440234834408
21.6054,6.149370223943955,0.1070269933083866
21.607804,6.162963724430424,0.1070034965873175
21.629312,6.29908192903447,0.1069786725131344
21.6317,6.312815199147798,0.1069482891948876
21.63408,6.326316151835648,0.1068885700268624
21.636484,6.343961075643193,0.1067706290055671
21.638868,6.359231811651984,0.1066546280845391
21.641248,6.375201395795076,0.1064993901298702
21.643652,6.390519353632109,0.1063390196314006
21.64604,6.402811497364332,0.1061751832898676
21.64842,6.415662719603993,0.1059826566845486
21.650824,6.422135552552067,0.1058415593785206
21.653212,6.427025593634307,0.1057013170566512
21.655592,6.42954144691779,0.1055635217866705
21.657988,6.433407774641632,0.1053949532102843
21.660372,6.431826878633665,0.105268484984816
21.662752,6.432946931506417,0.1050791167532009
21.665156,6.431553026953552,0.1048992052822191
21.667544,6.431509596841049,0.1046877289089746
21.669924,6.425507086317537,0.1045039367061763
21.672324,6.422485063928463,0.1042425324174074
21.674708,6.4241188693382805,0.1039417057690619
21.677088,6.4243096525091214,0.1036346826041757
21.679484,6.424500435679963,0.1033279353290139
21.681868,6.422828887731248,0.1030374314055495
21.684248,6.419295008662977,0.1027628266761788
21.686652,6.420044870341259,0.1024271624025742
21.68904,6.420003336086625,0.1020916626192131
21.69142,6.418379009966152,0.1017569833417077
21.693824,6.416614914218821,0.1014291334523371
21.696212,6.412197091419014,0.101117267798157
21.698592,6.410712534925404,0.1007740553286183
21.701,6.412440783991707,0.1003856059668589
21.703384,6.417381838617927,0.0999538289093378
21.705764,6.42153149731123,0.0995236973215718
21.708168,6.427823026377808,0.0990618280491817
21.710556,6.435976886563944,0.098587947663372
21.712936,6.449205883429552,0.0980582819479831
21.71534,6.460572549175603,0.0975421780789562
21.717724,6.473522006787489,0.0970245371795539
21.720104,6.485400529212737,0.0965245305652668
21.722508,6.486896460853564,0.0961076010207462
21.724896,6.4911858891737255,0.095671387177854
21.727276,6.493612986374331,0.095248219759115
21.729672,6.491896112455241,0.094871816004486
21.73206,6.487245972229959,0.0945215699220538
21.734444,6.475239055325066,0.0942644589671263
21.73684,6.4650944695397285,0.0939928781614677
21.739224,6.454390805246951,0.0937504810853474
21.777456,6.14616190857373,0.0936999559198956
21.779852,6.14630167820059,0.0936924991169789
21.78224,6.158034743425371,0.093584476627528
21.78462,6.167346399023154,0.0935194839603535
21.787024,6.1785203857404944,0.0934414853567324
21.789408,6.197563005816639,0.0932907237632952
21.791788,6.219678661825842,0.0931063223686816
21.794184,6.2441685056338,0.0929262670875474
21.796572,6.273873255748089,0.0926862289211015
21.798952,6.30823383366127,0.0924174890390485
21.801348,6.341151389335475,0.0921383474990128
21.803736,6.371694757210926,0.0918580536940325
21.806116,6.408384196952488,0.0915145765134813
21.808516,6.449776686321184,0.0910926505348341
21.810904,6.485954269383547,0.0907358202774365
21.813284,6.521619995766713,0.090367372149348
21.815684,6.559846901403736,0.0899501733875796
21.818068,6.5944889144285055,0.089553228796413
21.820452,6.628479301147219,0.0891424573053141
21.822848,6.667032967866206,0.0886699598280361
21.825236,6.705214547532854,0.088181997572265
21.827616,6.731663061974724,0.0877951491445362
21.830012,6.747589216005311,0.0874880829623955
21.8324,6.767938880409313,0.087125319811753
21.83478,6.786985292201197,0.0867469008364856
21.837184,6.800444710634414,0.0864055838259741
21.839568,6.809527840522458,0.0860777272798881
21.841948,6.8180991137313045,0.0857366070388096
21.844352,6.824808055820594,0.0854089920966842
21.846736,6.8272804789915735,0.0850887478409571
21.849112,6.833617334028526,0.0847419626946476
21.85152,6.84474978649123,0.0843661902615206
21.853904,6.8490845407817655,0.084039631224844
21.856288,6.852488129512524,0.0837189912083593
21.858692,6.855240091937223,0.0833886072759428
21.861076,6.855058788055727,0.0830792325192517
21.863456,6.854225857868173,0.0827620273395962
21.865852,6.855395028427036,0.0824291607950053
21.86824,6.8639209756655095,0.08202541298764
21.87062,6.866580390291594,0.0816642236040444
21.873024,6.867097934544399,0.081326496363835
21.875412,6.877905521783009,0.0808998847071555
21.877792,6.893788245701091,0.0804303696804911
21.880188,6.904456063312841,0.080010325046757
21.882572,6.916706672790428,0.0795958985388142
21.884952,6.930540074133851,0.0791868266912138
21.887356,6.946887432902887,0.078777082298181
21.889744,6.961092921298648,0.0783896918043848
21.892124,6.97315653932113,0.0780244447180203
21.894528,6.985732014022811,0.0776749674452683
21.896912,6.998167719097632,0.0773350260085785
21.899292,7.0064594530527575,0.0770329531640841
21.901696,7.021129576299471,0.0767109213170281
21.904084,7.03845342659866,0.0763862748496619
21.906464,7.059501939136962,0.0760473674568843
21.90886,7.083064409100879,0.0757097562541781
21.911248,7.108069901303772,0.0753861648647119
21.913628,7.130514214252807,0.0751018289303712
21.916032,7.1491866431344855,0.0748757537559798
21.918416,7.168231159068502,0.0746704022306526
21.920796,7.18499403500238,0.0744906264933296
21.9232,7.195191530189568,0.0743778696429805
21.925588,7.206971817242592,0.0742717986011442
21.927968,7.2208939746688925,0.0741462587621544
21.930364,7.232674261721918,0.0740402883234787
21.932752,7.243523383215164,0.0739381681865692
21.935128,7.254372504708409,0.0738362736579524
21.937532,7.269225827694487,0.0737094989016713
21.93992,7.284870546613485,0.0735854558812013
21.942304,7.299164791092124,0.0734829023008055
21.944696,7.310525769264567,0.0733971113163639
21.947084,7.319884646690592,0.073323946450552
21.949468,7.323516761131088,0.0732771421470063
21.951864,7.323284443705613,0.0732497874540205
21.954252,7.3238435222130525,0.0732254896486503
21.956632,7.325613305533992,0.0731860643810331
21.959028,7.324589592175597,0.0731561346580249
21.961416,7.3259872884442,0.0730958141373357
21.963812,7.325941962473827,0.0730236736079543
21.966208,7.325105240570534,0.0729483432676721
21.968596,7.328831798667516,0.072824265915228
21.970976,7.334839996764637,0.0726758728170253
21.97338,7.335400971129945,0.0725402182856691
21.975768,7.336753341428174,0.0724077957438522
21.978148,7.342389452472956,0.07223982961429
21.980544,7.348165333144598,0.0720661046420871
21.982932,7.355803544935797,0.071887108538359
21.985316,7.36036872079394,0.0717298383711181
21.987712,7.366284371092444,0.0715523401332716
21.990096,7.3778342365778595,0.0713204112838102
21.99248,7.3921775987426095,0.0710806504786599
21.994876,7.40773166572086,0.0708255211125656
21.99726,7.426498538259024,0.070544394554187
21.99964,7.447407281170466,0.0702467194539787
22.002044,7.463939735536738,0.0699523046634379
22.004432,7.475816362104117,0.0696717464146559
22.006812,7.488903693484995,0.0693769445221999
22.009216,7.503481268933093,0.0690586856970264
22.0116,7.519129779567828,0.068732438305134
22.01398,7.540272735762618,0.0683602188793496
22.016376,7.560065217517047,0.0680109922358613
22.018764,7.5789265337117,0.0676655378527115
22.021148,7.601512512145464,0.0673103323363333
22.023544,7.624797338713528,0.0669290930757083
22.025932,7.642075863042343,0.0665800775378582
22.028312,7.658562991438241,0.0662280958811072
22.030716,7.67481780240866,0.0658526254563564
22.033104,7.688698425580326,0.0654660228729191
22.035484,7.699925321699516,0.065080819691651
22.037888,7.704494289273399,0.0647175025944077
22.040272,7.702545097928834,0.0643673012683685
22.042652,7.700735676211127,0.064010820625725
22.04506,7.699205793747143,0.063644316706774
22.047444,7.693811479417183,0.0632905118344872
22.049824,7.690279496206781,0.0629322607862696
22.052224,7.69261404560877,0.0625519257216613
22.054608,7.69401742945098,0.0621734456849672
22.056992,7.690857533292914,0.0618362256120195
22.059388,7.690770673067905,0.0614842869716221
22.061776,7.688541942469619,0.0611489579999941
22.064156,7.684450880751775,0.0608169485889033
22.066552,7.678777027168097,0.0604763409639705
22.06894,7.6715203817185795,0.0601277993364015
22.071324,7.662773492201847,0.0598031767115872
22.073728,7.659241508991445,0.0594492125418529
22.076116,7.657571856900598,0.0590927672834327
22.078496,7.6522700903692575,0.0587730253407397
22.080892,7.64920274200981,0.0584702894085904
22.08328,7.649440747008895,0.0581790810036015
22.08566,7.650982004620096,0.0579061650189087
22.08806,7.659320960403465,0.0576127800504964
22.090448,7.668451312119753,0.0573238898265312
22.092828,7.674368858276125,0.0570554688304967
22.095232,7.682940131484972,0.056788373098117
22.09762,7.691371635066957,0.0565273374132313
22.1,7.6936570667828335,0.0562952652502772
22.102396,7.697804829618266,0.0560614526976509
22.104784,7.703303066894057,0.05580944837421
22.107164,7.703446628236657,0.0555905849645798
22.109568,7.702099945512036,0.055394989396374
22.111952,7.701824197974054,0.0551928907499658
22.114332,7.700058206368853,0.055012584057128
22.11674,7.700945941816126,0.0548355090956457
22.119124,7.698760641330345,0.0546714111431126
22.121504,7.692012060844289,0.0545435648001437
22.123904,7.683121609984955,0.054428164318464
22.126288,7.677583734312397,0.0542882525972761
22.128672,7.672604937147279,0.0541264366035383
22.131068,7.666183117743187,0.0539500819065009
22.133452,7.660972003152594,0.0537619100385934
22.135836,7.654829723002221,0.0535750461815171
22.138232,7.650549773971405,0.0533873367325116
22.14062,7.647992386433286,0.0532033704545928
22.143,7.647576869268445,0.0530079942652894
22.145396,7.646230186543824,0.0528130689431101
22.147784,7.651029575685315,0.052593593291059
22.150164,7.654478490386446,0.0523911774605739
22.152556,7.658579031393635,0.0521989759470929
22.154944,7.662819342027683,0.0520005215329634
22.157324,7.667478961542314,0.0517861498385573
22.15974,7.670788106616585,0.0515882932740101
22.162124,7.683036820236301,0.0513662261249382
22.164504,7.692072728296102,0.0511620124891949
22.166908,7.706044003408516,0.0509451217610749
22.169296,7.724299019267485,0.0507056379230541
