Time,Force,Position
23.387856,3.081944733015626,0.165481518450772
23.46432,3.480171474526274,0.1654657828181517
23.466708,3.4837091453102835,0.1654454237393245
23.469092,3.499212198744552,0.1650657478402379
23.471488,3.518719453671654,0.1645465146749046
23.473872,3.5384137000538587,0.163934834093918
23.476256,3.560017499383864,0.1631861164355187
23.478652,3.580270824273509,0.1625359488980539
23.48104,3.6001973880811917,0.1620110269192138
23.48342,3.624779779687765,0.161351433736225
23.485824,3.658581279093505,0.1603770372351964
23.488212,3.690799986633409,0.1594105875701006
23.490592,3.729164766039423,0.1582395601793554
23.492988,3.771114438057691,0.1570014009119951
23.49538,3.8188834208601055,0.1556595690564968
23.49776,3.868934043662658,0.1542316301400845
23.50016,3.914189069039458,0.1529417043094385
23.502544,3.958140841804142,0.1516817684393652
23.504928,4.001952844941967,0.1504570807131856
23.507324,4.05107230218474,0.1491219855980703
23.509712,4.102193860173931,0.1477375853130799
23.512092,4.152803561483924,0.1463489093849215
23.514488,4.193589750516936,0.145207297261001
23.51688,4.2266470758180015,0.1443062020154899
23.51926,4.2592850922384855,0.1434688180757249
23.52166,4.292946822017364,0.1426758896961887
23.524048,4.324326911796106,0.1419672780057155
23.526432,4.352401648216317,0.1413136140566092
23.528824,4.379033362397551,0.1406721138082844
23.531212,4.404454371765286,0.1400851836565666
23.533592,4.422658374080272,0.1397183695489095
23.535992,4.447008448261368,0.1391858533399995
23.53838,4.464840363524016,0.1388001154587373
23.54076,4.480018551734189,0.1384686253209904
23.543156,4.490168825093135,0.1382060119846969
23.545544,4.50045886807894,0.1379364305189818
23.547928,4.517686378863773,0.1375025596356413
23.550324,4.530909688155773,0.1371676913751126
23.552712,4.545483471888131,0.13678612429589
23.555092,4.557543298194876,0.1364413423002072
23.557492,4.565459153381926,0.1362018008989287
23.55988,4.570813829315119,0.1360546562687608
23.56226,4.582035037860702,0.1357779684720542
23.56466,4.598331383085757,0.1353821919934004
23.567048,4.613976102004755,0.1349879125338328
23.569428,4.6269670938712775,0.1346338800801906
23.571828,4.645033222417271,0.1341648213793506
23.574216,4.66561330838888,0.1336701649567827
23.576612,4.682328962494517,0.1332510883161383
23.579008,4.703188587719847,0.132740950620097
23.581396,4.723908443318316,0.1322365957718793
23.58378,4.740204788543371,0.1318615677656334
23.586176,4.761017191940458,0.1314169386030241
23.588564,4.782620991270464,0.1309723326954213
23.590948,4.807250604705281,0.1305167471168003
23.593344,4.8294588085131,0.1301407725776026
23.595732,4.847523041201225,0.129867279128688
23.598116,4.870243101688242,0.1295157325460575
23.600516,4.886677320682288,0.1293126918325261
23.602904,4.901761065235974,0.1291582581439106
23.605284,4.922851112028913,0.1288785853443861
23.607684,4.947805590687824,0.1285232415695191
23.68174,4.9970100122977374,0.128389218936373
23.684124,4.990493749237159,0.1283290595462522
23.68652,4.981835615803304,0.128317462685522
23.688908,4.9754591223695845,0.1282464303067146
23.691288,4.971783577816582,0.1280852684887145
23.693684,4.972811082890717,0.1277948722172872
23.696072,4.973047192031932,0.1275105597881278
23.698468,4.974354236359788,0.1272018173489251
23.700864,4.973147323262028,0.1269145843467505
23.703256,4.977015546843739,0.1265267747022773
23.705636,4.984608432664564,0.1260835875791305
23.708032,5.001932282963753,0.1254759626182361
23.71042,5.021118464382498,0.1248350839446649
23.712804,5.041375580987883,0.1241616684488786
23.7152,5.057628496100433,0.1235634581073011
23.717588,5.075092116026483,0.122926431402979
23.719968,5.087248281847582,0.1223564345835531
23.722368,5.096471181362487,0.1218392158872586
23.724752,5.100618944197919,0.1214257842226543
23.727132,5.1041150807272935,0.1210053201435541
23.729536,5.10681982132375,0.1205899487259945
23.731924,5.10752246117379,0.1202131738533448
23.734308,5.107154165837192,0.119858517532183
23.736704,5.109299827926208,0.1194855726223892
23.739092,5.110886411507782,0.1191553997381769
23.741476,5.110982751022138,0.1188800244764581
23.743872,5.107866284976578,0.118674159130186
23.74626,5.106891689304296,0.1184229453313657
23.74864,5.106289180684349,0.1181975508504349
23.75104,5.106338298370461,0.1179813621305154
23.753424,5.1025229841906,0.1178260800209679
23.755804,5.0897681014652925,0.1178231355232373
23.758204,5.077944384299764,0.1178074835508848
23.760592,5.072918365306404,0.1176845988837232
23.762972,5.068823511872823,0.1175486835372448
23.765376,5.0653802847453,0.1174197092320614
23.767764,5.063380079856751,0.1172944997188478
23.770144,5.064033602020678,0.1171410209619065
23.77254,5.0673408512370814,0.1169591471475458
23.774928,5.0714394963864,0.1167744738293471
23.777308,5.07511883265514,0.1166197881604184
23.779704,5.079310025603078,0.1164820584642371
23.782092,5.091230082282962,0.1162264671877703
23.784476,5.098354541537094,0.1160438219913074
23.786872,5.107341331910782,0.1158391773575139
23.789256,5.118981849336946,0.1156100594627434
23.791652,5.132484697882666,0.1153553062673103
23.794048,5.143286597547668,0.115184808308801
23.796432,5.157021763518865,0.1149690229709156
23.798812,5.168894598370508,0.1147801740609012
23.801204,5.184492095461261,0.1145442346653239
23.803592,5.203954024417989,0.1142500696348257
23.805988,5.223136414120996,0.1139751394518202
23.808384,5.233239465651697,0.1138554613269802
23.810772,5.251350920168067,0.1136082229727174
23.813152,5.272675180244351,0.1133022458391599
23.815548,5.298795037746388,0.1129340222249594
23.817936,5.325985830435061,0.1125494526607187
23.820316,5.355458263123873,0.1121218939907975
23.822712,5.387863962118882,0.1116585713158091
23.8251,5.421620135554247,0.1111591607900916
23.82748,5.459520280109308,0.1105967523048314
23.829884,5.4919732009325575,0.1101010292349497
23.832268,5.52936148880842,0.1095389754024326
23.834648,5.561814409631671,0.1090473867237869
23.83704,5.590682437842667,0.1085907745838071
23.839428,5.62276327161358,0.1080835062410968
23.841808,5.653540852772378,0.1075581863974555
23.84422,5.680873310945781,0.1070563808512872
23.846608,5.706483207626487,0.10656726257665
23.848988,5.729579146881581,0.1060924207262819
23.851392,5.752814855763534,0.1056126608406238
23.85378,5.776609643152929,0.1050990680741934
23.85616,5.807900976848793,0.1044568980522582
23.858556,5.8322548427456296,0.1039177597226934
23.860944,5.852604507149631,0.1034374073686769
23.863324,5.867367178194962,0.1030151415931018
23.865728,5.87854495662804,0.1026217850559979
23.868116,5.884507828754785,0.1023087095676917
23.8705,5.885535333828919,0.102058185099428
23.8729,5.886702608529913,0.1018005025034097
23.875288,5.885216156178433,0.1015628702238589
23.877668,5.8833103949463705,0.1013501275369628
23.880068,5.878611137034975,0.1011636346031897
23.882452,5.876193519123717,0.1009350912807014
23.884832,5.874846836399096,0.1006896221936176
23.887236,5.871358283301197,0.1004786179511096
23.88962,5.871594392442413,0.1002347955419892
23.892,5.874763767889824,0.0999582672461722
23.894404,5.881657805576348,0.0996508894341004
23.896792,5.892276505501985,0.0993134809299677
23.899172,5.902895205427623,0.0989782866573104
23.901568,5.915236466845958,0.0986379815891106
23.903956,5.9262272538239325,0.0983338570070481
23.906336,5.938940602294604,0.0980227875374662
23.908732,5.955518382631251,0.0976761388690395
23.91112,5.977683156326565,0.097287294427269
23.913504,6.0034328226341325,0.0968779643800168
23.9159,6.031184589688117,0.0964436748763626
23.918284,6.062800788608075,0.0959723388650932
23.920664,6.091855808274175,0.0955554569395765
23.98758,6.069743943980711,0.0953989852286804
23.989968,6.058524631292997,0.0953970286036292
23.992348,6.053171851217673,0.0953375819551793
23.994744,6.047027675209432,0.0952774256249755
23.997132,6.0402318728951325,0.0952087534654037
23.999512,6.043306804686058,0.0950392361312718
24.001912,6.046241966850122,0.0948774980963829
24.004296,6.052389934574102,0.0946714110647237
24.00668,6.059329298231,0.0944649886073347
24.009076,6.0661288922610375,0.0942664477566968
24.01146,6.070786615917799,0.0940978702773207
24.013856,6.074932482895361,0.0939121890998556
24.016252,6.083362090619479,0.0936691877202973
24.01864,6.090720763156958,0.0934411220597709
24.021024,6.105948069053243,0.093137419752544
24.02342,6.123317245322806,0.0928073350412755
24.025808,6.142968061592506,0.0924410240958097
24.028188,6.158894215623093,0.0921005853564124
24.030588,6.172166642601206,0.0917725990582945
24.032976,6.184275586594062,0.0914198778324244
24.035356,6.197874774654139,0.091032155657235
24.03776,6.2111018756618765,0.090624210908402
24.040148,6.219812918497584,0.090242169535687
24.042528,6.23015397502737,0.0898149951298261
24.044932,6.239703635624238,0.0893868604251092
24.047316,6.24273513730266,0.089004610229353
24.049696,6.242321515995687,0.0886297012614395
24.052096,6.239254167636239,0.0882653983936038
24.054484,6.238887768157509,0.0878441686804741
24.056864,6.236007411253164,0.0874242794785423
24.05926,6.236339859908735,0.0869647938766371
24.061648,6.241747445243778,0.0864548936818525
24.064032,6.239798253899211,0.0860307333844072
24.066428,6.2387802281144245,0.0856004385919082
24.068816,6.229102173037913,0.0852375318614368
24.0712,6.214768290162508,0.0849021484866278
24.073596,6.199083932846744,0.08459382759406
24.075984,6.187403777023814,0.0842471750106261
24.078364,6.178656887507079,0.083875747601498
24.080768,6.174937912841573,0.0835022673637858
24.083156,6.16879752854907,0.0831692037798894
24.085536,6.158373403510012,0.082885944461933
24.087932,6.15060300552343,0.0825936938847061
24.09032,6.1422735290294055,0.0823300654850195
24.092704,6.134455909214581,0.082082962418496
24.0951,6.13050272126573,0.0818078094636152
24.097484,6.133347231489046,0.0814821396157123
24.099868,6.138845468764837,0.081148749561538
24.102272,6.139640656413495,0.0808865289190639
24.10466,6.14616260704768,0.0805876612366577
24.107044,6.148400816935314,0.0803382851506817
24.10944,6.146215516449533,0.0801457597998412
24.111828,6.149245122270084,0.0798990749086009
24.114208,6.149993088090497,0.0796833949284378
24.116604,6.157259212829359,0.0794339873676725
24.118992,6.166899525366976,0.0791913733757677
24.121372,6.1784021690241495,0.0789395091573698
24.123776,6.184689906374988,0.0787402606590155
24.126164,6.18855623409883,0.0785803661656544
24.128544,6.187207655516342,0.0784743537651787
24.130944,6.187581638426549,0.0783662551633606
24.133332,6.194334010628344,0.0782328079494977
24.135716,6.198804742829999,0.0781308278822282
24.138112,6.209002238017187,0.0779949779613408
24.140496,6.218128798017737,0.0778706083162271
24.147664,6.219107185405759,0.0778197011016476
24.15244,6.221109286152174,0.0778032904690076
24.154828,6.223111386898591,0.077787149382392
24.159612,6.227347905816902,0.0777865131261835
24.162,6.236939100668406,0.0777287042509763
24.16438,6.241455158840437,0.0777142375131647
24.16678,6.247042152199106,0.0776884449656771
24.169164,6.2516979799979975,0.0776671295697751
24.171548,6.263431045222779,0.077587591301235
24.173944,6.279308081567253,0.0774704002393089
24.176332,6.29481303085939,0.0773280969652466
24.178712,6.310457749778388,0.0771795195264416
24.181108,6.321586410525354,0.0770459417984631
24.183496,6.33378600645896,0.0769006559122789
24.185892,6.337977199406897,0.0768175777404554
24.188288,6.347523068288026,0.0766795482512638
24.190676,6.358139872355794,0.076529960065542
24.193056,6.374251121983615,0.0763170851719674
24.195456,6.39557727791777,0.0760563340964857
24.197844,6.4146217938517855,0.0758284337270235
24.200224,6.435668410532219,0.0755858156569918
24.20262,6.455224783145432,0.0753754482384446
24.205008,6.478925126878339,0.0751295605323958
24.207388,6.500111513185632,0.0748827814232223
24.209788,6.516222762813453,0.0746793595624323
24.212172,6.535546818001191,0.0744437935862752
24.214556,6.555010642815787,0.0742030651922824
24.216952,6.573403532443746,0.0739727222621099
24.21934,6.591516882817983,0.0737593849504431
24.22172,6.607767902072665,0.0735557038488572
24.224116,6.622808216513849,0.0733676354122332
24.226508,6.639059235768529,0.0731644489961719
24.228888,6.6562414205829885,0.0729577789754964
24.231284,6.675565475770726,0.0727319783400536
24.233672,6.700523746145375,0.0724423545416468
24.236056,6.719475714280774,0.072195724937508
24.238452,6.74084909204317,0.0719177899128876
24.240836,6.761942930551847,0.0716560010555762
24.243236,6.777961632381051,0.0714312190509731
24.245628,6.791326607157781,0.0712101083437088
24.248016,6.802829250814955,0.0709957103144847
24.250396,6.816101677793067,0.0707397823998875
24.252796,6.824858046599148,0.0704941694726358
24.255184,6.83841001283098,0.0702287759975044
24.257564,6.850099647943256,0.0699689527599808
24.259968,6.861929052682393,0.0697043324693223
24.262356,6.87375845742153,0.0694411884748028
24.264736,6.888800667720581,0.0691511839721947
24.267132,6.8993268198476,0.0688700636199166
24.26952,6.907990640855064,0.0685951557432733
24.271904,6.926525195967752,0.068269799217996
24.274304,6.940124384027826,0.0679710453650645
24.276692,6.952932176154985,0.0676687745865583
24.279072,6.96695067309564,0.0673547247332891
24.281468,6.9785477604093,0.0670726449602094
24.283856,6.995219984402431,0.0667607767936137
24.28624,7.007748237275869,0.066478254532275
24.288636,7.0199044030969695,0.0661757853784858
24.291024,7.036995935970681,0.0658500900377615
24.293404,7.056229339217671,0.0655083653352538
24.2958,7.081469044703909,0.0651380310581164
24.298188,7.10535827574979,0.0647900779845321
24.300568,7.129899133101729,0.0644515673847461
24.302968,7.1504357889608325,0.0641368211677728
24.305352,7.174836876685911,0.0638082939487262
24.307736,7.198958425157268,0.0634938193682442
24.310136,7.225082074375043,0.0631725529072817
24.312528,7.246921982846263,0.0628836049110538
24.314908,7.27062422243704,0.0625907946606812
24.317304,7.294046922774096,0.0623095331879362
24.319696,7.308530054565709,0.0620721213248811
24.32208,7.32794855340993,0.061813846891105
24.324476,7.350020779306629,0.0615569296014918
24.326864,7.364875998150576,0.0613425666634878
24.329244,7.37679795068833,0.0611388164902193
24.331644,7.382434061733112,0.0609757866112314
24.334032,7.391934604643868,0.0608000048721369
24.336412,7.3998051338605455,0.0606561558334444
24.338808,7.40288006565147,0.0605271334815044
24.3412,7.403533587815397,0.0604250101411652
24.34358,7.398320577366934,0.0603448798967734
24.34598,7.395109667664888,0.0602558918149233
24.348368,7.39282992352262,0.0601652087692935
24.350752,7.388548078633935,0.0600832595927116
24.353148,7.380401801879277,0.0600132551348954
24.355536,7.3705329636319235,0.0599403513342787
24.35792,7.353726657585539,0.0598951252333924
24.36032,7.341343861912568,0.0598146296985179
24.362708,7.330823397359156,0.0597310711644712
24.365088,7.322584572805881,0.0596271853326956
24.367484,7.317698323439382,0.0594957792087828
24.369872,7.310670203699605,0.0593788228070052
24.372256,7.303269996907491,0.0592405775845916
24.374652,7.300944926794848,0.0590781234799619
24.37704,7.304626158921456,0.0588908412220213
24.379424,7.311659966234841,0.0586761705895347
24.381824,7.314829341682254,0.0584725638986983
24.384212,7.318278256383384,0.0582576399273616
24.386596,7.326802307763988,0.0580201714569185
24.388992,7.334954272092254,0.0577602983602226
24.39138,7.34296646679366,0.0575058108032972
24.393764,7.348464704069451,0.0572443194721254
24.39616,7.354382250225823,0.0569661899837256
24.398548,7.359787939702998,0.0566704548158191
24.400928,7.368266665113226,0.0563600648107336
24.403324,7.37981842645651,0.05603633241754
24.405712,7.394582993359712,0.0556906281537176
24.408092,7.404272423583439,0.0553675101752555
24.410496,7.410097421941195,0.0550543598394883
24.412884,7.414991254739172,0.0547431511838051
24.415268,7.417743217163871,0.054445636171677
24.417664,7.416630747722598,0.0541558255710186
24.420052,7.413376407908046,0.0538793878972737
24.422432,7.40853927622766,0.0535932327729826
24.424832,7.401839813427716,0.0533099999875403
24.42722,7.393929645814274,0.0530383875462305
24.4296,7.387230183014329,0.0527537620630101
24.431996,7.377597453908191,0.0524756297342039
24.434384,7.36209819218966,0.0522121656035939
24.436768,7.349392427150466,0.0519463572121098
24.439164,7.335895266178354,0.0516742617776331
24.441552,7.32197879632566,0.0514182572904506
24.443932,7.306572082405748,0.0511848572133517
24.446336,7.295681426657867,0.0509543569192445
24.448724,7.279715634230514,0.0507419455782019
24.451104,7.255461899563772,0.0505657100154004
24.453508,7.231068395270172,0.0503939756606873
24.455896,7.21268119321582,0.0502024165223753
24.458276,7.196296091907887,0.0500037422632254
