Time,Force,Position
23.147908,3.342786578768796,0.1679637697751715
23.150296,3.401482064000118,0.1677638944991419
23.152672000000003,3.455431069491803,0.1674123777048233
23.155076,3.5033303426317315,0.1669275175610063
23.157464,3.546390588233403,0.1662534748543897
23.159844,3.580792700401219,0.1656811012707782
23.16224,3.607001313986134,0.1652922210761001
23.164628,3.63009156566762,0.1648945441471692
23.167008000000003,3.64834089395298,0.1645264683066864
23.169412,3.666637444066583,0.1640788191181985
23.1718,3.680557705635015,0.1637420937716936
23.17418,3.695501680561841,0.1634362554791432
23.176584,3.721340102952288,0.1628074813186963
23.178968,3.751554813887905,0.1620339187227686
23.181348,3.779395337024768,0.1613191817387563
23.183752,3.808214247549653,0.1605000628093816
23.18614,3.8351708269549816,0.1597285032476079
23.18852,3.856772730427117,0.1591779946596954
23.19092,3.8815402176309246,0.1585849602531911
23.193308,3.907518409648232,0.1579569619655118
23.195688,3.923812859015417,0.1575821268731874
23.198084,3.935638472038815,0.1572593611775435
23.200472,3.947091998009875,0.1569142185281929
23.205248,3.957612462563288,0.1568057924841358
23.207636,3.964687804131308,0.1567766001447485
23.2148,3.980188961707707,0.1566495745321423
23.21718,3.986100820290471,0.1566033981158039
23.219584,3.9978792114856256,0.1563840243420836
23.221968,4.013010177867556,0.1560393634389414
23.224352,4.025906726077593,0.1557203256717027
23.226748,4.043646093541624,0.1552063366689484
23.229136,4.059523129886099,0.1547392170441651
23.23152,4.076051792536632,0.1542826884243297
23.233916,4.097515822239775,0.1536867413888464
23.2363,4.124474297502974,0.1528925603621759
23.238684,4.144262987541665,0.1522554845779814
23.241088,4.160978641647301,0.1517249583220646
23.243476,4.183001749857886,0.1510794744499038
23.245856,4.205257175493949,0.1504754176200707
23.248252,4.222297694823679,0.1500382419487763
23.25064,4.243761724526822,0.149442294913293
23.25302,4.270999739043741,0.1486411717852804
23.255424,4.292930299455708,0.1479529591475177
23.257808,4.313510385427319,0.1473294581901923
23.260192,4.336232341772204,0.1466300369261127
23.262592,4.358954298117091,0.1459250973817323
23.26498,4.376880657036225,0.1453538689127281
23.26736,4.388521174462389,0.1449841272210096
23.269756,4.398159591142135,0.1446761926382705
23.272144,4.407518468568162,0.1443965744046201
23.274524,4.4125936052476336,0.1442554768406042
23.276928,4.421672943419939,0.1440089934430278
23.279316,4.432894151965523,0.1437044536830213
23.281696,4.443184194951327,0.1434258046095312
23.2841,4.448910957936857,0.1432970786635925
23.34382,4.4316438087552585,0.1431135689473433
23.346216,4.430620095396865,0.1430803926831956
23.348612000000003,4.437325245770416,0.1428731591859815
23.350996,4.446172266517244,0.1426077219879069
23.35338,4.451806481704157,0.142433462798031
23.355776,4.453716034651957,0.142333170639312
23.35816,4.460980263532949,0.1420866830554049
23.360544,4.4710379890932765,0.1417876941242024
23.36294,4.492177153572326,0.1412290700573613
23.365324,4.516249584357571,0.1406042749753372
23.367708,4.536737122530564,0.1400309521794985
23.370104,4.562020258129309,0.1393584508306467
23.372488,4.589957120780527,0.1386346148677811
23.374888,4.617242357125688,0.1378928914783931
23.377284,4.64466736309771,0.1371221534933329
23.379672,4.665015131643842,0.1365371974005713
23.382056,4.686433835376612,0.1359285107216509
23.384452,4.705710668736106,0.1353784230718302
23.386836,4.725778898028518,0.1348254077150725
23.38922,4.74039990358912,0.1343769513879323
23.39162,4.749433915791052,0.1340412860439194
23.394008,4.755534661686789,0.1337725706995987
23.396388,4.756048414223855,0.1336125762630031
23.398784,4.752557965268088,0.1335464199938444
23.401172000000003,4.754841501126094,0.1333024021542445
23.420284,4.6805976364901305,0.1331009838635146
23.422668,4.672545803391959,0.1329919117597985
23.425052,4.673713078092952,0.1326738300804911
23.427448,4.682376899100415,0.1321713877610099
23.429836,4.685593496376069,0.1317509038613454
23.432216,4.692954064771417,0.1312358636680893
23.434616,4.700454402793626,0.130713436270893
23.437004,4.706744036002335,0.13022286430431
23.439396,4.709309006971932,0.1297879729531607
23.441796,4.710291186075692,0.1293599186559152
23.444184,4.708991725179313,0.1289939080701956
23.446564,4.708343890588995,0.1286317592687579
23.448964,4.696335077826232,0.1285473369236633
23.451352,4.686468135436746,0.1284042988245123
23.453732,4.678323754539956,0.1282391148801746
23.456132,4.672972870322502,0.1280230373668107
23.45852,4.672836892411381,0.1276763221386129
23.484796,4.562936780681597,0.127271679433047
23.487184,4.559538879524446,0.1272490826644461
23.489568,4.5635903028455225,0.1271058748967244
23.491964,4.576069438032848,0.1267670982397016
23.494352,4.59055067396659,0.1263869807077074
23.496736,4.612900543259139,0.1258421313189064
23.49914,4.630035506245355,0.1254224893371501
23.501528,4.6490328003511285,0.1249722861350192
23.503908000000003,4.668030094456901,0.1245262448523435
23.506304,4.687679014868732,0.1240967044379782
23.508692,4.707327935280564,0.1236751341818754
23.511072,4.727628481998453,0.1232562706571943
23.513476,4.7508622950225385,0.1227897276450493
23.515864,4.776098208793039,0.1222913478337092
23.518248,4.802125518496458,0.1217918502021734
23.52064,4.829363533013376,0.1212553758950001
23.523028,4.858603648276709,0.1206696778199949
23.525412,4.8909167994731,0.1200276112322517
23.527808,4.92173970660227,0.1194443286089918
23.530192,4.957917289664634,0.1187354542859449
23.532576,4.991441145674523,0.1180683476632331
23.53498,5.017375907579324,0.1175347792043272
23.537368,5.039306467991293,0.1170860163867732
23.539748,5.057465144335905,0.1167549651217104
23.542148,5.074972194374459,0.1164186090919696
23.544532,5.0974146114656245,0.1160097301280153
23.546916,5.120788194116568,0.1155844373829904
23.549312,5.145372481581011,0.1151322444755827
23.5517,5.170887934605232,0.1146732538963611
23.554084,5.190676624643924,0.114297523692507
23.55648,5.207392278749561,0.113979430930752
23.558868,5.226249803228471,0.1136178289848008
23.561252,5.242174061401189,0.1133059701198633
23.563648,5.254653196588515,0.1130249038569662
23.566036,5.2674118710295605,0.1127269347126272
23.568416,5.279239379910828,0.1124403055488174
23.570816,5.296281795098427,0.1120617796130836
23.573204,5.312393044726249,0.1117010821789195
23.575584,5.329994538421289,0.1112929209896922
23.577984,5.345454161743052,0.1109289551603944
23.580372,5.3635675121172905,0.110545844199082
23.582752,5.381960401745248,0.1101430200650863
23.585156,5.39849096025365,0.1097617818141084
23.587544,5.413997805403657,0.1093474488303956
23.589928,5.429364880926803,0.1089434482585269
23.592328,5.432859121598308,0.1087136020419518
23.594716,5.440217794135787,0.1084334774704534
23.597096,5.443432495553572,0.1082230939452035
23.599496,5.443713930665162,0.1080537548482377
23.60188,5.447859797642724,0.1078326440014666
23.604264,5.453216369433785,0.1075824712074861
23.606664,5.458712710851709,0.1073247159593113
23.609052,5.462067181896353,0.1071050926652919
23.611436,5.464722804806699,0.1069306111903924
23.613832,5.464305391783986,0.106805877304083
23.637724,5.400111669276871,0.1066910776368607
23.640108,5.405373797411446,0.1065532744185977
23.642504,5.407982198493547,0.1064369664364091
23.644892,5.413803405135564,0.1062646984308992
23.647272,5.421486942897137,0.1060730284636485
23.649672,5.4273081495391535,0.1059010366203336
23.65206,5.429776780994394,0.1057929104828173
23.654444,5.4328970387556925,0.1056937378715854
23.656840000000003,5.442023598756242,0.1055112753880813
23.659232,5.4525006331971495,0.1052919445399713
23.661612,5.464048602824697,0.1050525616541733
23.664024,5.475736342079103,0.1048057640768533
23.666408,5.489705721333648,0.1045139992384726
23.668788,5.503675100588192,0.1042192620638219
23.671192,5.516573544656097,0.1039427386715315
23.673576,5.526538722417807,0.1037066766861152
23.67596,5.533151324992742,0.1035335282371065
23.678356,5.543116502754452,0.1032967594706819
23.68074,5.556806342755276,0.1030261922964948
23.68312,5.571567117942738,0.1027378817107383
23.685524,5.5858160364510026,0.1024341725192686
23.687912,5.594477961600597,0.1021904791327505
23.690292,5.601789412309833,0.1019813587492296
23.692696,5.610171798205706,0.1017570597562863
23.695084,5.617250931489464,0.1015167183139317
23.697464,5.62619239589278,0.1012593004808338
23.69986,5.642490636975704,0.1008910319012358
23.702248,5.658277021379431,0.1005094252278075
23.704632,5.668196873170767,0.1001977000739753
23.707028,5.680258595335381,0.0998547631957251
23.709416,5.6949740445524695,0.0994963346721311
23.711796,5.711831364142835,0.0991094157485689
23.714192,5.7256156478001445,0.098763814570058
23.71658,5.7455460033235655,0.0983399646087073
23.718960000000003,5.767757998847124,0.0978766448600364
23.721364,5.789969994370681,0.0974141774454342
23.723752,5.8146033995212365,0.0968982327194791
23.726132,5.8370949342985154,0.0964188858177649
23.728536,5.853440397209683,0.0960223297261372
23.730924,5.867132133068376,0.0956404907528833
23.733304,5.880544329673348,0.0952761760316541
23.735704,5.891535116651324,0.0949592762843281
23.738088,5.903876378069658,0.0946095050553535
23.740472,5.912073668368299,0.0943160496024494
23.742868,5.921713980905914,0.0940328022862582
23.745256,5.928560796764194,0.0937722994398526
23.74764,5.933125972622338,0.0935546820619545
23.750036,5.934478342920567,0.0933834412176765
23.752424,5.935970482845654,0.0932029529249846
23.754804,5.937602392397604,0.0930160731194064
23.7572,5.939793380456993,0.092798778092724
23.759588,5.937980167023548,0.0926265037624566
23.761972,5.940031385456078,0.0924184352586919
23.764368,5.936727927955414,0.0922853754178013
23.76676,5.9339363271339485,0.0921694924453284
23.76914,5.932215661499121,0.0920392272324662
23.771536,5.933940118849685,0.0918983272454792
23.773928,5.934733410640473,0.0917639309377627
23.776308,5.93645786799104,0.0916220797783202
23.778708,5.9431176923942175,0.091431866967052
23.781092,5.950568912730313,0.0912433104853742
23.783476,5.9590910682530485,0.0910389717785172
23.785872,5.966262749335423,0.0908645731374747
23.78826,5.975156991910493,0.090683683886007
23.790644,5.98097819855251,0.0905384905455817
23.793048,5.991595002620279,0.0903524972967218
23.795432,6.00034947556849,0.0901809779710586
23.797812,6.013899545942453,0.0899690928344541
23.800216,6.030243112995753,0.0897373289154056
23.802604,6.042023400048777,0.0895792583480901
23.804984,6.051382277474803,0.0894666844102127
23.807388,6.059670219714191,0.0893677504134062
23.809776,6.063534651580164,0.0893338159164229
23.812156,6.069540953819414,0.0892712176369653
23.814552,6.071962363446412,0.089227009928693
23.81694,6.074104233819688,0.0891985884104671
23.81932,6.07480308195399,0.0891601248728355
23.821724,6.076433095648069,0.0891153025951881
23.824108000000003,6.081415684528925,0.0890210628751963
23.826488,6.085187568596282,0.0889494635321354
23.828892,6.091241092663776,0.0888439698398757
23.831276000000003,6.103440688597381,0.0886743835464948
23.83366,6.118992859717761,0.0884580789870499
23.83606,6.140830872331111,0.088173896365745
23.838448,6.168675187183712,0.0878348963371621
23.840828,6.195588336476535,0.0875067989636915
23.843228,6.224363816888916,0.0871698148116766
23.845616,6.245550203196211,0.0868834148214149
23.847996,6.2667365895035045,0.0865988256380937
23.8504,6.291135781370712,0.0862750094422175
23.852788,6.315814512491642,0.0859373820446161
23.855168,6.345428610665184,0.085559347465265
23.857572,6.381747859212277,0.0850933757556914
23.85996,6.417275711826451,0.0846281154565643
23.86234,6.453734730000404,0.084155498099155
23.864744,6.487540021121882,0.0836914403220282
23.867128,6.520274377056722,0.0832433125779279
23.869508,6.557152704111256,0.0827587828863235
23.871904,6.593099865606012,0.0822854147395128
23.874288,6.626253530421431,0.0818292397656849
23.876668,6.653261123370742,0.0814324906272312
23.879072,6.674262414080801,0.0810911334927719
23.881456,6.6963346399775,0.0807433388182699
23.883836,6.711609167702029,0.0804465802848532
23.88624,6.722227867627667,0.0801748734641735
23.888628,6.728982135687331,0.0799283972098079
23.891008,6.730289180015184,0.0797015538004637
23.893412,6.739604627328706,0.0794113863146262
23.895796,6.750130779455726,0.0791053103945408
23.89818,6.75879460046319,0.0788083101979137
23.900576,6.765176781470516,0.0785396122501575
23.90296,6.770767566544924,0.0782711274529252
23.905344,6.773145546059416,0.0780377579386073
23.90774,6.774592360014132,0.0778084415891019
23.910128,6.7799036058348205,0.0775571319965672
23.912508000000003,6.786146017215287,0.0773008308781725
23.914912,6.793459363782392,0.0770348612338643
23.917296,6.794626638483385,0.0768202088381411
23.91968,6.793652042811102,0.0766267248497045
23.922084,6.793888151952317,0.0764160880150743
23.924468,6.801620807400004,0.0761333955364956
23.926852,6.811495333220965,0.0758305773979134
23.929256,6.816294722362455,0.0755671793358935
23.93164,6.818952241130669,0.0753230202655989
23.934028,6.822680695085521,0.0750686433066999
23.936424,6.831484285719846,0.0747772592431323
23.938812,6.8460146393397,0.0744574042747279
23.941196,6.858403122586276,0.0741608248087098
23.943592,6.867998109153518,0.0738761592215259
23.94598,6.879595196467179,0.0735786214437718
23.948364,6.895476024527391,0.0732419720242838
23.95076,6.905490319975215,0.0729384313594321
23.953144,6.911500413930203,0.0726607737828177
23.955532,6.919233069377888,0.0723831779463648
23.957936,6.926174328892655,0.072105152389342
23.960328,6.933255358034282,0.0718202719447533
23.962712,6.9401966175490495,0.0715432047929265
23.965108,6.949279747437094,0.0712464021230343
23.967496,6.959294042884917,0.0709462542823005
23.96988,6.969959964638797,0.0706567583215254
23.972284,6.973129340086208,0.0704345134131221
23.974672,6.972154744413924,0.0702432117681417
23.97706,6.971040379114781,0.0700573136983653
23.979456,6.972859280121833,0.0698549594938487
23.981844,6.9742588722483045,0.0696720004059649
23.984228,6.9704435580684425,0.0695302192088475
23.986624,6.963555207955526,0.0694102864349024
23.989012,6.954524987469332,0.0693089396374568
23.9914,6.948008724408754,0.0692113517122007
23.993796,6.941632230975036,0.0691074602695496
23.996180000000003,6.933393406421762,0.0690091649443764
23.998564,6.928879244107599,0.0688991346721377
24.00096,6.92930044884605,0.0687623169541866
24.003348000000003,6.928930257651582,0.0686222461085741
24.005736,6.923484929777641,0.0685146790623055
24.008132,6.921904033769675,0.0683902132754037
24.01052,6.917250101828652,0.0682861744115861
24.012904,6.912316630633909,0.0681946272267738
24.0153,6.906451993879387,0.068105569314752
24.017688,6.899795961191948,0.0680128604124566
24.020076,6.896212964437564,0.0678993951275474
24.022472,6.897565334735791,0.0677600883480869
24.02486,6.90492400727327,0.0675869923449278
24.027244,6.915355715743805,0.0673950196412041
24.029644,6.924204632348503,0.0671953069578534
24.032032,6.9342642537667,0.0669798826850626
24.034416,6.947257141491091,0.0667514322265885
24.036812,6.959458633282567,0.0665183310001742
24.0392,6.969937563581343,0.0662851146796582
24.041588,6.977203688320205,0.0660780540728261
24.043984,6.985400978618845,0.065869543038726
24.046372,6.994669204104123,0.0656531196117291
24.048756,6.996068796230594,0.0654732169576819
24.051152,6.997468388357065,0.065293508921294
24.05354,7.005153821976508,0.0650692307287579
24.055924,7.0109769244763935,0.0648513543697878
24.058324,7.021223537349694,0.0645944873003509
24.060712,7.029887358357158,0.0643291751705568
24.063108,7.037899553058564,0.0640530355487176
24.065512,7.046982682946608,0.0637696510672713
24.0679,7.05834745283479,0.0634652499416184
24.070296,7.069851992349832,0.0631572906888546
24.072696,7.075769538506205,0.0628627355274737
24.07508,7.075029156117268,0.0625875679688199
24.077484,7.079224140780943,0.0622918455892818
24.07988,7.085281456564175,0.0619928951343419
24.082268,7.09068714604135,0.0616855973467491
24.084672,7.0994454107053,0.0613495396746202
24.087072,7.104339243503276,0.0610248165990199
24.089456,7.112585651488028,0.0606711080968346
24.091856,7.115756922793309,0.0603426518896776
24.09426,7.118136798165671,0.0600106977513777
24.096656,7.131737882083615,0.0596195158201388
24.099056,7.143336865255144,0.0592369485849781
24.101448,7.146787675814144,0.058896382288112
24.103848,7.148236385626728,0.0585652339826745
24.106244,7.146332520252535,0.0582631085040185
24.108632,7.147361921184539,0.0579507045934755
24.111028,7.151184818795877,0.0576342954856734
24.113424,7.151003514914383,0.0573345974362458
24.115808,7.14802871435355,0.0570394720954468
24.118208000000003,7.142260417113385,0.0567484850529899
24.120604,7.140077012485473,0.0564588604676332
24.122988,7.143620370843092,0.0561560611405952
24.125384,7.142740218827294,0.0558881167669068
24.12778,7.141860066811498,0.055621046164924
24.130168,7.135625238862508,0.0553876195375836
24.132548,7.130973202779354,0.0551650638886386
24.134944,7.130325368189035,0.0549259394776101
24.137332,7.129537763971856,0.0546935404290312
24.139712,7.137689728300121,0.0544307072526021
24.142108,7.143839591881972,0.0541752113613446
24.144496,7.141841282851294,0.0539560369929939
24.14688,7.142916009753671,0.053722952264048
24.149276,7.151859370014854,0.0534663540315448
24.151664,7.162665061395596,0.0532088631279474
24.154048,7.176404019082532,0.0529443585523978
24.156444,7.18814087602305,0.0526876684344104
24.158832,7.198667028150071,0.0524439540719562
24.161212,7.212126446583286,0.0521921756210671
24.163608,7.225026786509061,0.0519633798458169
24.165996,7.2365766519944765,0.051751959960207
24.16838,7.246124416733476,0.0515482638263526
24.170776,7.250457275166142,0.0513699794022257
24.173164,7.253347111359833,0.0511744541424405
24.175548,7.255305781993745,0.0509798806669271
24.177952,7.26126865412049,0.0507708726165674
24.18034,7.261085454381125,0.0505878429448056
24.18272,7.263276442440515,0.0504216646321205
24.18512,7.261183689753349,0.050279827879579
24.187508,7.25015136852074,0.0501645179118366
24.189888,7.241772774340604,0.0500535911866441
24.192284,7.239120943145999,0.0499348498737378
24.194672,7.2364691119513935,0.0498164250746246
24.197052,7.229813079263955,0.0497106801691838
24.199448,7.218081909897043,0.0496228351062257
24.201836,7.20155514310438,0.0495414444544225
24.204232,7.185819772244634,0.0494651316619291
24.206628,7.169153235825111,0.0493886818246082
24.209016,7.151695303472669,0.0493059703148284
