Time,Force,Position
21.94356,3.4608169926293515,0.160518149894738
21.996123999999995,3.620000802762582,0.1605134119315692
21.99852,3.626239422427309,0.1603480630228345
22.000907999999995,3.6372264176895466,0.1601036139959132
22.003288,3.650914361832501,0.1597097264892968
22.005688,3.6567808944448914,0.1595088197974564
22.008076,3.658410908138971,0.1594038742711314
22.010456,3.6601334696316674,0.1593627131527109
22.012856,3.666464637095012,0.159264124389768
22.015244,3.688672840902832,0.1586187061901082
22.017627999999995,3.710276640232837,0.157904128047737
22.020024,3.727271833592193,0.1572633562576944
22.022412,3.738540263966019,0.1568023050071751
22.024795999999995,3.7480389110189054,0.1564498237876735
22.027192,3.764707343296298,0.1559203495940827
22.02958,3.7863111426263023,0.1552361180870497
22.031963999999995,3.808613790090608,0.1544685230619643
22.034368,3.823746652330408,0.1538838404552753
22.036756,3.838972062368825,0.1533632925297466
22.03914,3.854801876885056,0.1529287915346817
22.041536,3.880083116625931,0.1522235702310021
22.043924,3.90406110375469,0.1515358189107834
22.046304,3.9227316367785,0.1509718145675464
22.048704,3.938748442749834,0.1504658689576938
22.051092,3.955788962079565,0.1500040091041105
22.053476,3.9796271795814633,0.1493434516065127
22.055876,4.009052390442032,0.1485489021928351
22.058264,4.039176449436902,0.1476832553703345
22.060644,4.067717716565936,0.1468669237257511
22.06304,4.08783127182872,0.1463503139867368
22.065428,4.106966439703485,0.1459311301183158
22.067812,4.12461136351103,0.1455861358867147
22.070208,4.145748632132211,0.1451140443700793
22.072596,4.171029871873087,0.1445122821438058
22.074976,4.190165039747851,0.1440969746544802
22.077376,4.20473692762234,0.1438484584446319
22.079764,4.223964643295721,0.1434988068679095
22.082148,4.248547034902295,0.1429785390057775
22.084544,4.272757339456531,0.1424284136587885
22.086936,4.29631601770471,0.1418773383193547
22.089316,4.315730724833195,0.1414597430301181
22.091716,4.332444483080962,0.1411630171201801
22.094104,4.351020572448284,0.1408224840917981
22.096488,4.37481156812194,0.1403354599536014
22.098884,4.398090707116398,0.1398394110007141
22.101272,4.416806566110581,0.1394991469675586
22.103656,4.430167749171573,0.1393216525369046
22.10844,4.4512559001066405,0.1391524461588202
22.110824,4.457027989062544,0.1391423149580923
22.11322,4.462148451712391,0.139126987449027
22.120391999999995,4.480256114513021,0.139090300574709
22.12278,4.487238908282425,0.1390372358984045
22.12516,4.496643111678824,0.1388956067768727
22.149064,4.548963999334298,0.1388609918035728
22.151452,4.553340287879469,0.1387931587492609
22.153836,4.555854245305083,0.1387621052854239
22.156232,4.566097066462645,0.1385592447476848
22.15862,4.579133384299541,0.1383028526813521
22.161004,4.594730881390294,0.1379554428945977
22.1634,4.608605816988353,0.1376354983272259
22.165792,4.6249021622134086,0.1372363014155674
22.168175999999995,4.640127572251826,0.1368692017619071
22.170572,4.656563687103741,0.1364640253420574
22.17296,4.67155677971668,0.1360611679818167
22.175344,4.682033814157588,0.1357354922521605
22.17774,4.690276430426603,0.1354167603683098
22.180132,4.699869521135976,0.1350510070469013
22.182512,4.710813086285707,0.1346312628729027
22.184908,4.720825485875661,0.134228279617683
22.187292,4.727904619159419,0.1338912809287176
22.189676,4.74033842837637,0.133421393394256
22.192072,4.75398294240682,0.1329122161771776
22.19446,4.774285384982576,0.1322741056828215
22.196844,4.788721294945946,0.1317593543596514
22.19924,4.800223938603118,0.1313045951367503
22.201628,4.813868452633568,0.1307982153943535
22.204008,4.825138778865265,0.1303105817356179
22.206404,4.833755378044485,0.129862966881249
22.208791999999995,4.839950567596707,0.1294942594896544
22.211175999999995,4.847216692335569,0.1291006124190135
22.213572,4.852340946701154,0.1287622015471322
22.215959999999995,4.859467301813154,0.1283845540295389
22.21834,4.8685957576715735,0.1279712854337987
22.22074,4.878236070209189,0.1275745900381084
22.223124,4.889598944239501,0.1271564668174679
22.225508,4.901101587896674,0.1267264904806748
22.227908,4.909531195620791,0.1263654344738486
22.230296,4.923827335957299,0.1259009205320029
22.232676,4.937332080360888,0.1254380330285633
22.235076,4.950324968085281,0.1249582634414494
22.237464,4.955169683197146,0.1246509492599631
22.294816,4.693791874771645,0.1246092276186768
22.2972,4.6893702602561005,0.1245500056032601
22.299596,4.684808876113696,0.1245012269147657
22.301984,4.685182859023902,0.1243610233203374
22.304368,4.687279403426805,0.1242033505658049
22.306764,4.69431131488232,0.1239534101932524
22.309152,4.706930219696504,0.1236165699169934
22.311532,4.720200750816748,0.1232856485668734
22.313928,4.731049872309994,0.1230242337548619
22.316316,4.745483886415492,0.122716193439079
22.3187,4.763363023506384,0.1223728156560748
22.321096,4.782033556530193,0.122027466116284
22.323484,4.802845959927279,0.1216321834017538
22.325868,4.825008837764725,0.121185399461581
22.328264,4.845541701908091,0.120807599779811
22.330652,4.872080868290707,0.120309803630183
22.333036,4.89419652429991,0.1199312418415533
22.335432,4.915520784376194,0.1195608770693452
22.337824,4.9352150307584,0.119261054142264
22.340204,4.960915579379855,0.1188474458768029
22.342604,4.98060982576206,0.1185508645185921
22.344988,5.000024532890545,0.1182832051288758
22.347372,5.0205101752056684,0.1179957948066707
22.349768,5.040716278267071,0.1177356646030042
22.352156,5.064135186888389,0.1174146960169875
22.35454,5.088904569950065,0.11705951561229
22.35694,5.114884657825242,0.1166802192187386
22.359328,5.141284054580998,0.116272561706527
22.361712,5.1738295232028655,0.1157576785534979
22.364108,5.2067943007053135,0.1152229300137682
22.366499999999995,5.236034415968648,0.1147349547038424
22.36888,5.269558271978537,0.1141753959755827
22.37128,5.302150962428648,0.1136303024233238
22.373667999999995,5.335395279184817,0.1130909855090702
22.376052,5.374134041501039,0.1124480950162866
22.378448,5.411941638257481,0.1118272881860397
22.380835999999995,5.450959939827422,0.1111789922734089
22.383216,5.4930512773304185,0.1104929915493216
22.385616,5.534770527781078,0.1097833885257208
22.388,5.577420943791516,0.1090806134380323
22.39038,5.624075561294787,0.1083183785101806
22.392776,5.666865746932086,0.1076114813628578
22.395164,5.704720565516771,0.1069719129654865
22.397544,5.738990491489204,0.1063684636225603
22.39994,5.766183180035748,0.1058736594889458
22.402332,5.788160962275959,0.1054660518062312
22.404712,5.808136643769753,0.1050921281002852
22.407108,5.829695117129385,0.1047188615867649
22.4095,5.849251489742598,0.1043799373262763
22.411884,5.86345318642262,0.1041302001748787
22.41428,5.882450480528394,0.1038260601326362
22.416668,5.895161933141195,0.1036234240244313
22.419052,5.908664781686917,0.1034208179911141
22.421448,5.925520205419412,0.1031598102997725
22.423836,5.9375800317261564,0.1029559061252364
22.42622,5.948848462099984,0.1027546118947412
22.428616,5.96011689247381,0.1025546785788746
22.431008,5.965239250981526,0.1024395430795143
22.435787999999995,5.970221839862379,0.1023331084985111
22.43818,5.968778817623403,0.1023256206318973
22.44056,5.9693378961308445,0.1022935545711884
22.44296,5.9777656079970924,0.1021719836539538
22.445348,5.98591378060962,0.1020658375446215
22.447731999999995,5.994993118781926,0.1019496065443782
22.450128,6.00542293139459,0.1017996988240557
22.452516,6.012779708074201,0.1016912517276756
22.457291999999995,6.012594612476967,0.1016107523404723
22.45968,6.014923474305348,0.1015201783313065
22.462064,6.015529774641031,0.1014392028963489
22.464459999999995,6.015344679043797,0.1013581439938944
22.466848,6.013576791580726,0.1012777765857496
22.469228,6.009806803371239,0.1012225122460626
22.471624,6.006036815161751,0.1011670957416523
22.476396,5.988765874264413,0.1011627177372018
22.478792,5.9798282015768365,0.1011322981343329
22.481179999999995,5.967724945157587,0.1011022665414681
22.483564,5.964468709485167,0.1009246624015374
22.48596,5.958418977133412,0.1007716970306427
22.488347999999995,5.949715517729183,0.1006347078564876
22.490728,5.9346336690333645,0.100545363873118
22.493128,5.923463474031762,0.1003673694976045
22.495512,5.916856559030435,0.1001099009110614
22.497896,5.914114075895083,0.0998142542553769
22.500292,5.915795103133143,0.0994485339937814
22.50268,5.922411497423817,0.0990301518290984
22.505064,5.938107229886796,0.0985018520079117
22.507459999999995,5.951800861603358,0.0980020117019504
22.509848,5.960698895894167,0.097545587930282
22.512228,5.973740901304671,0.0970364088791619
22.514627999999995,5.990647338581149,0.0964932941407787
22.517016,6.003689343991654,0.0959864047610837
22.5194,6.014729248655741,0.0955010554729056
22.521795999999995,6.028981958879744,0.0949680157084403
22.524184,6.04202396429025,0.0944558680540079
22.526568,6.056788531193451,0.0939364031591132
22.528963999999995,6.072204724402709,0.0934237438711916
22.531352,6.079844832051777,0.0930362008933249
22.533736,6.086134465260487,0.0926779869063036
22.536136,6.098150861454727,0.0922705410002225
22.53852,6.108816783208606,0.0918911857074601
22.540904,6.117433382387826,0.0915858227617654
22.543299999999995,6.122557636753411,0.0913425096756035
22.545688,6.1247486248128,0.0911296761004679
22.548072,6.121724706565859,0.0909824389311225
22.550467999999995,6.113485882012584,0.0909006875247614
22.552856,6.102825647832311,0.090863012778365
22.55524,6.091234248092259,0.0908313917314023
22.557635999999995,6.088302877643932,0.0907249094018509
22.562408,6.066283561149085,0.0906845287476716
22.564808,6.057997514767568,0.090648289849143
22.567192,6.053575900252022,0.0905785010714645
22.569576,6.048734976855896,0.0905314897840379
22.571971999999995,6.046035923833046,0.0904562773180043
22.57436,6.042917561929619,0.0904039898929534
22.576744,6.040730365585968,0.0903452418416
22.579139999999995,6.043106449242591,0.0902148056645814
22.581528,6.0486953384591295,0.0900420094639123
22.583908,6.044413493570445,0.0899635163482834
22.586307999999995,6.043856310920874,0.0898591533050482
22.5887,6.039714235659049,0.0897726355656726
22.591083999999995,6.034640994837445,0.0896923926672182
22.59348,6.026354948455927,0.0896551804423501
22.595868,6.021002168380603,0.0895901750831463
22.598251999999995,6.020212668305555,0.0894514524850972
22.600652,6.015978045245113,0.0893229830083523
22.60304,6.010532717371172,0.0892166695361653
22.605424,5.998289691325063,0.0891714603706157
22.607824,5.9911218019584265,0.0890700993753598
22.610212,5.989960214831041,0.08890660114503
22.612596,5.98493419583768,0.0887767576494718
22.614992,5.978045845724764,0.0886595428818857
22.61738,5.973439135611984,0.0885069373586444
22.619764,5.970834526245623,0.0883348255248837
22.62216,5.966786894640284,0.0881513460312331
22.624548,5.965160672661942,0.0879258315381507
22.626932,5.961252810683464,0.0877351204382191
22.629332,5.958415883891625,0.0875318062567571
22.63172,5.963447590458593,0.0872578124271825
22.634104,5.971180245906278,0.0869297840210863
22.6365,5.984919203593215,0.0865456287488878
22.638892,6.004804233146262,0.0861002775344565
22.641272,6.0300439386325015,0.0855895195588665
22.643671999999995,6.057425514492016,0.085056420485529
22.64606,6.082525450351396,0.0845616771316046
22.64844,6.110279113263251,0.0840564427696875
22.650839999999995,6.1413853513618815,0.083508142195004
22.653228,6.1732829853934295,0.0829590831527977
22.655612,6.201176417932143,0.0824484376165025
22.658012,6.223994713791385,0.0819888853054925
22.6604,6.246952779277486,0.0815212552376185
22.662783999999995,6.26870013995009,0.081073634363374
22.66518,6.287234695062779,0.0806658155522428
22.667572,6.303767149429049,0.0802786681194842
22.66996,6.32588659715399,0.0798639252862497
22.67236,6.344373930438436,0.0795101433805379
22.674748,6.3637924292826575,0.0791513301802244
22.677132,6.378135791447408,0.0788392987659181
22.679528,6.3906168224926025,0.0785390402917381
22.681923999999995,6.397463638350884,0.0783148477901339
22.684312,6.40016648308947,0.0781321544225966
22.68672,6.397794191148585,0.0779950357622586
22.689112,6.394071424767341,0.0778842806969878
22.691503999999995,6.3883465576396805,0.0777895687537821
22.693904,6.384344252004715,0.0776932909185393
22.696288,6.383135443049087,0.0775844746607365
22.698676,6.378574058906682,0.0775164027865843
22.701084,6.37815664588397,0.0774108836461116
22.703472,6.383326226219929,0.0772809752796019
22.705876,6.390637676929165,0.0771286807777272
22.708272,6.398740523571318,0.0769792817163797
22.71066,6.40898524058675,0.0768080919910966
22.713056,6.421371827975458,0.0766152135806681
22.715452,6.434549811297083,0.0764260885709087
22.717839999999995,6.442932197192958,0.0762651974816517
22.720236,6.453596223088969,0.0760759638881977
22.722632,6.4650516449178985,0.0758901379321094
22.725027999999995,6.483444534545856,0.0756574238090622
22.727424,6.503699755293369,0.0754188844199306
22.729828,6.527028011973941,0.0751547233962483
22.732216,6.55170674309487,0.0748666654313128
22.734612,6.578247805335355,0.0745716122361575
22.737012,6.601855601269646,0.0742945862861991
22.7394,6.623181757203801,0.0740449434700045
22.7418,6.64050371164512,0.0738242112026933
22.744192,6.652378442354631,0.0736199773531114
22.746588,6.667326208997196,0.0733916119621595
22.748984,6.681203040453124,0.0731766549808847
22.751376,6.693497080043214,0.072958425285869
22.753772,6.70858461631264,0.0727315699411994
22.756167999999995,6.725814022955343,0.0724862689003683
22.758556,6.741692955157687,0.0722647502921999
22.760952,6.75757188736003,0.0720448000051854
22.763348,6.771308949189097,0.0718446115921568
22.76574,6.790121147697636,0.0716104982336305
22.76812,6.810795677325733,0.0713725410823835
22.770516,6.829747645461131,0.0711347292980562
22.772904,6.841762145797502,0.0709392872223215
22.775288,6.849632675014177,0.0707757816198811
22.777688,6.856711808297935,0.0706095200199587
22.780076,6.862300697514474,0.0704719486663624
22.782456,6.865096090051679,0.0703435004631371
22.784856,6.871895684081716,0.0701901616818368
22.78724,6.884981119604725,0.069987612436652
22.78962,6.902490065501148,0.0697416902068146
22.792024,6.925586004756241,0.0694789103224292
22.794412,6.946819612891779,0.0692238996452629
22.796792,6.96525972434798,0.0689788631696753
22.799188,6.97876446875157,0.0687610467219209
22.801576,6.989475716475824,0.0685531978957784
22.803968,7.000978360132997,0.0683511802293153
22.806368,7.013179851924471,0.0681184642023385
22.808752,7.028454379649,0.0678683931398722
22.811136,7.045358921067609,0.0675850836464045
22.813531999999995,7.055325994687188,0.0673391442852297
22.81592,7.059426535694377,0.0671205876726257
22.8183,7.0676710478212605,0.0668750260708019
22.820699999999995,7.080059531067837,0.0666011230556321
22.823084,7.098082229501328,0.0662738545786291
22.825464,7.1141028271884,0.0659570963659193
22.827864,7.132684604129333,0.0656057288027243
22.830252,7.157132913682653,0.0652303689119073
22.832632,7.17878772655664,0.0648634790274965
22.835028,7.197509273124432,0.0645135739932736
22.837416,7.212878244505446,0.0641953938590106
22.839796,7.225453719207127,0.0638855323699629
22.842196,7.23602709316239,0.063585357644538
22.844584,7.247531632677433,0.0632833230810267
22.846964,7.258896402565615,0.0629849020906107
22.84936,7.269330006894018,0.0626886947310261
22.851748,7.273105682677112,0.0624124860723225
22.854147999999995,7.275530884019849,0.062156292945553
22.856544,7.268876747190278,0.0619473592792179
22.858932,7.2610119055472095,0.0617519557477327
22.861312,7.255009395023698,0.0615517827531916
22.863707999999995,7.254361560433379,0.0613119413971745
22.866096,7.251571855469782,0.0610891071084008
22.868476,7.249573546439104,0.0608714228079472
22.870872,7.241801252594652,0.0607099489863252
22.873259999999995,7.239104095429672,0.0605225499982642
22.875644,7.233194132704778,0.0603575245215698
22.87804,7.217553205501519,0.0602257449177577
22.880427999999995,7.206847645350872,0.0600743362857182
22.882808,7.194139984453808,0.0599314961102587
22.885204,7.18478489874352,0.0597607583755033
22.887592,7.176640517846731,0.0595769144918508
22.889976,7.170498237696359,0.0593839165327408
22.892372,7.163424791986208,0.059192006123288
22.89476,7.165430684448364,0.0589598001822322
22.897144,7.171440778403353,0.0587119078128153
22.899548,7.183317404970732,0.0584446414007072
22.901931999999995,7.197335901911389,0.0581639546772513
22.904316,7.216429535531518,0.0578578761982755
22.906712,7.23817689620412,0.0575549670091379
22.909099999999995,7.263928458369556,0.0572375067529575
22.911484,7.28525651016158,0.0569547713811363
22.91388,7.30285989971449,0.0566766339587239
22.916267999999995,7.315807461468507,0.0564043432689919
22.918648,7.332387137663021,0.0560941861298126
22.921048,7.3460335475513405,0.0557953870473892
22.923432,7.362752993372714,0.0554824180384206
22.925816,7.386549676619978,0.0551382028747658
22.928211999999995,7.403548661695074,0.0548139962961848
22.9306,7.420407877143309,0.0544952465330994
22.932984,7.434194056658488,0.0541921095412532
22.935379999999995,7.44569859617353,0.0539085643913346
22.937768,7.457203135688572,0.0536255934320712
22.940152,7.470709775950031,0.0533361390719644
22.942547999999995,7.474485451733126,0.0530724943835575
22.944936,7.471183890090333,0.0528360694195596
22.947332,7.464949062141343,0.0526075309064113
22.949732,7.458714234192352,0.0523795320244583
22.952116,7.450617075123806,0.0521520434974517
22.9545,7.440005958629645,0.0519151109510111
22.956896,7.425530410269512,0.0516860501163363
22.959284,7.4153386026559325,0.051432689869435
22.961664,7.410082162094963,0.0511656932191144
22.96406,7.40761921821333,0.050896586258261
22.966448,7.401943468771781,0.0506450591809861
22.968832,7.395057014516736,0.050404692016891
22.971228,7.387099625075049,0.0501704259880464
22.973616,7.377791761193005,0.0499532172284102
22.975995999999995,7.369135523617018,0.0497454856334538
22.978392,7.359548120481254,0.0495371489626787
22.980784,7.350100486972349,0.0493225419951241
