Time,Force,Position
23.105308,3.729426305745437,0.1612322162408448
23.107704,3.7447423677246015,0.1609592000033624
23.110092,3.759454025225952,0.1606024246459634
23.112472,3.767787293435714,0.1604273705383044
23.114876,3.779425915004008,0.1601857667220389
23.117264,3.7955805947443344,0.1598173170055631
23.119644,3.8137373752310766,0.1593712312850622
23.12204,3.829147880866728,0.1589316949461791
23.124428,3.839298154225673,0.1585582318806364
23.126808,3.844420512733388,0.1583004600574496
23.129208,3.844700051987109,0.1582712143174063
23.131596,3.8513579805324167,0.1580765566601224
23.133976,3.862159880197419,0.1577320387185567
23.136372,3.878456225422474,0.1571707295244167
23.13876,3.8850216061691656,0.1569181535320715
23.141144,3.88930534691572,0.1567608021171737
23.14354,3.8988965417672232,0.156481348717375
23.145928,3.9151456651640353,0.1560157834383561
23.148324,3.930091535948731,0.1555298196994454
23.15072,3.9430825278152537,0.1550410935947673
23.153108,3.952116540017186,0.1546165572557888
23.155488,3.962501026659476,0.1541311631491207
23.157888,3.974608074794464,0.1536126936382097
23.160276,3.991930029235784,0.152916322874781
23.162656,4.008600357371046,0.1522244085203228
23.165052,4.023408354386751,0.1515852373390387
23.16744,4.037936812148737,0.1509720064475825
23.16982,4.056282479948452,0.1503241386020734
23.172216,4.079004436293337,0.1495915255860085
23.174604,4.100515687824725,0.1489107308672872
23.176984,4.11844204674386,0.1482980954472842
23.17938,4.128499772304187,0.1479247266737624
23.181768,4.137486562677877,0.1475900583513183
23.184164,4.14340031711851,0.147355387935515
23.186564,4.1505247763726425,0.1470657917711298
23.212836,4.14494157472971,0.1467850502051363
23.2224,4.138053224616795,0.146708227684373
23.224788,4.140102547191455,0.1465842947670992
23.227168,4.144293740139392,0.1463910590623235
23.229564,4.152349364953301,0.1461039283412515
23.231952,4.160544759394073,0.1458043667355129
23.234332,4.173116442380016,0.1454270204528261
23.236728,4.184709737977935,0.1451360018155638
23.239116,4.201517939882188,0.1446912444298601
23.241496,4.2226098825329945,0.1441112674120418
23.243896,4.245192069251021,0.1434683396280047
23.24628,4.26591192484949,0.1428714459278014
23.248664,4.284769449328404,0.142309860013506
23.25106,4.304558139367096,0.1417252851490699
23.253448,4.325277994965566,0.1411267860763639
23.255832,4.348139720937311,0.1404668424383119
23.258228,4.364156526908647,0.1400416381214774
23.260612,4.38068518955918,0.1396359666639459
23.263008,4.392930111463159,0.1393675385377202
23.265404,4.408387838927052,0.1390059884768156
23.267792,4.426918602324001,0.1385641489472331
23.270172,4.4438665738551135,0.1381321893740946
23.272572,4.45746197019945,0.1378107538284932
23.27496,4.472779928036484,0.1374659247595879
23.27734,4.481300187701349,0.1372812536182756
23.279736,4.491682778485772,0.1370607406916127
23.282124,4.501693282217856,0.136816294390822
23.284508,4.514544504457518,0.1364510011412651
23.286904,4.525253856323904,0.1361524043221417
23.289292,4.53475250337679,0.1358987995276074
23.291676,4.542900675989317,0.1357009590799188
23.294072,4.550117683042067,0.1355200040367
23.29646,4.56147866121451,0.1352342626459893
23.298844,4.573910574573591,0.1349208747099248
23.30124,4.5824780560667,0.134688688392786
23.303628,4.5861101705071965,0.1345666626336851
23.306008,4.59365393864191,0.134296363427348
23.308404,4.599614914910786,0.1340384285893955
23.310792,4.606646826366301,0.133752109147083
23.313176,4.609534766702122,0.133572016164838
23.315572,4.607207800731612,0.1335265346807806
23.31796,4.613820403306546,0.133279835889309
23.320356,4.622435106627897,0.1329868404198745
23.322752,4.629467018083412,0.1327076581409539
23.32514,4.638640799912205,0.1323673593185723
23.32752,4.645021085061661,0.1320805144493106
23.329916,4.648048795024342,0.1318920229276659
23.332304,4.652938836106582,0.1316729207794516
23.334688,4.655966546069262,0.131487414102428
23.337084,4.657551233792969,0.1313016277665654
23.339472,4.657553129650837,0.1311265169159143
23.341852,4.658625960695344,0.1309233539399433
23.344252,4.659698791739854,0.1307222917295113
23.34664,4.660911392411221,0.1305113092864914
23.34902,4.665476568269365,0.1302079891788
23.351416,4.6781899167400365,0.1297256237141693
23.353804,4.689552790770348,0.1292919779856207
23.356188,4.702777995920217,0.1288276629579623
23.358584,4.716142970696946,0.1283564333793034
23.360972,4.734443312526286,0.1277884580803254
23.363352,4.758889726221739,0.1270838689576777
23.365748,4.770392369878913,0.1266477039667831
23.36814,4.784036883909364,0.1261656240418187
23.37052,4.799403959432508,0.1256685294648948
23.37292,4.818495697194768,0.1251164170267441
23.375308,4.837307895703306,0.1245823440897598
23.377688,4.860124295704679,0.1239712913755467
23.380088,4.877446250145999,0.1234989583622086
23.38248,4.896350996453156,0.1230185029944631
23.38486,4.916419225745567,0.1225622394630807
23.387256,4.937790707650095,0.1221190416190229
23.389644,4.963166391047456,0.1216057575285761
23.392028,4.987610908885039,0.1211143543310267
23.394428,5.010704952282264,0.1206702499922578
23.396812,5.033379686798908,0.120261725568306
23.399196,5.04976857982258,0.1199923024138822
23.401596,5.0703014439659455,0.1196423001470614
23.403984,5.087761272176257,0.1193515267715335
23.456548,5.092976178482587,0.1192195899196136
23.458944,5.092324552176529,0.1192126534301604
23.461332,5.091021299564414,0.1191987034741331
23.463716,5.100519946617301,0.1190084630917314
23.466112,5.1110895288568265,0.1187943253137679
23.4685,5.120588175909713,0.1186022510188333
23.47088,5.127293326283265,0.1184488352372871
23.473276,5.13772313889593,0.1182457599450351
23.475664,5.148944347441512,0.1180439036083653
23.478044,5.161376260800594,0.1178117939042939
23.480444,5.174739339719454,0.1175695151966361
23.482828,5.188521727518895,0.1173010180024524
23.485208,5.209660891997945,0.1168907638474952
23.487604,5.233081696477132,0.1164283930696549
23.489992,5.25678204021004,0.1159452190703825
23.492372,5.282903793569945,0.1154082256291834
23.494772,5.306883676556573,0.1149176994601524
23.497156,5.334495673983697,0.1143370671656524
23.499552,5.360664649171845,0.1137595406548579
23.501952,5.389255033986991,0.1131264957628158
23.50434,5.417845418802138,0.112494764584083
23.50672,5.446435803617285,0.1118676960652591
23.509116,5.474886418805571,0.1112583104578573
23.511504,5.49560817026191,0.1107615581480844
23.513888,5.519263188024443,0.1102266267493844
23.516284,5.547201946533531,0.1096186563995911
23.518672,5.576071870602398,0.1089998430844612
23.521052,5.599215031685733,0.1084507121769509
23.523448,5.617842134597039,0.1079476000903911
23.525836,5.634746676015647,0.1074583085931032
23.52822,5.650580282247618,0.1069904595024319
23.530616,5.666274118852727,0.1065354468065952
23.533004,5.680897020271199,0.106105917108318
23.535384,5.693517820943253,0.1057055997758225
23.537784,5.709071887921503,0.1052700518718551
23.540172,5.716477782287225,0.1049541592950392
23.542552,5.723371819973749,0.1046216793971289
23.544952,5.727332591354077,0.1043279099059825
23.547336,5.726218226054934,0.1041065596672965
23.54972,5.720820120009237,0.1039579554988784
23.552124,5.716632718777038,0.1037826284451459
23.554508,5.712585087171699,0.1035990664446283
23.556888,5.701739757394193,0.1034976238465985
23.559288,5.696621190602215,0.1033316396278243
23.561676,5.6892209838101016,0.1032100745384257
23.564056,5.676605870711655,0.103167841065129
23.56646,5.665853088732765,0.1031070143970974
23.568848,5.661898004926044,0.1029660628092079
23.571228,5.660596648171798,0.102806494953225
23.573632,5.659527608843029,0.102680369936063
23.576016,5.659249965447177,0.1025540240049236
23.5784,5.657761617237828,0.1024537724785186
23.580796,5.650127197162367,0.1024408848426303
23.585564,5.637884171116258,0.1024210977600482
23.587956,5.6384904714519415,0.1023366497330035
23.590344,5.64147095958638,0.1022515519997098
23.59274,5.64789657070621,0.1021491327570218
23.595136,5.6611198799982105,0.1019691951917983
23.59752,5.677695764476985,0.10172948350074
23.599904,5.69399210970204,0.1015090207809335
23.6023,5.706004714180541,0.1013554528338709
23.604688,5.726165491271572,0.1010904987202308
23.607068,5.739388800563571,0.1009119588131514
23.609472,5.753031418736152,0.1007084213877309
23.611856,5.770678238401565,0.100454445310707
23.614236,5.783669230268089,0.1002430721027795
23.616636,5.793726955828416,0.1000675284486123
23.61902,5.804995386202241,0.0998691900578825
23.621404,5.817754060643287,0.099630013857531
23.623804,5.827859008031856,0.0994069268919998
23.626192,5.839314429860786,0.0991520012140262
23.628572,5.860268498742602,0.0987598481180079
23.630976,5.879639775758582,0.0983681752093831
23.63336,5.897568030535587,0.0979707752902414
23.635744,5.914425350125952,0.0975929945256944
23.638148,5.925695676357648,0.0972609212936782
23.640532,5.93366064923081,0.0969377217274662
23.642912,5.935898859118444,0.0966695704173161
23.645308,5.936926364192577,0.0964260156950947
23.647696,5.936091538147155,0.0961978290923633
23.650076,5.940890927288645,0.0958750319400169
23.652472,5.938892618257966,0.0956213410567204
23.65486,5.940386654040924,0.0953035415281547
23.65724,5.9429516250105205,0.0949712276347825
23.659644,5.941652164114143,0.0946769677399712
23.662032,5.9431461998971,0.0943590841449032
23.664412,5.944780005306917,0.0940334273298592
23.666808,5.941478443664123,0.0937606536274669
23.669196,5.937525255715271,0.0934796095029535
23.671576,5.935434398885976,0.0931832307674952
23.673972,5.928408175004068,0.0929382970431256
23.676356,5.911091908136355,0.0928217478136899
23.678752,5.8928444757088645,0.0927116724275479
23.681156,5.871524007348319,0.092638816078746
23.68354,5.848480977495078,0.0925714262252148
23.685924,5.830513084321307,0.0924430962857997
23.68832,5.812125882266956,0.0923385998526785
23.690704,5.799744982451855,0.0921656324537113
23.693084,5.788435017823395,0.0919772109857284
23.695488,5.77926692356821,0.0917581207538688
23.697876,5.764744153379833,0.0916136949834962
23.700256,5.755808376550126,0.0914267253050333
23.702652,5.74524258602634,0.0912867587238655
23.70504,5.735468191435472,0.0911477614801525
23.70742,5.729418459083718,0.0909814717801067
23.709824,5.727512697851656,0.090765424769323
23.712212,5.723465066246317,0.0905779922018095
23.714592,5.723933492813009,0.0903650810886901
23.716996,5.721980509752704,0.0901969444888542
23.71938,5.72016729631926,0.0900208641851958
23.72176,5.722730371430987,0.0898268184013808
23.724156,5.730089043968465,0.0895889879866624
23.726544,5.742894940237754,0.0893204523367384
23.728924,5.759145959492435,0.0890399462976626
23.731328,5.776979770612952,0.0887627670740349
23.733716,5.794534042479751,0.088504252582108
23.736096,5.816232285466243,0.0881976453480863
23.738492,5.834438183639096,0.0879534548032064
23.74088,5.851433376998454,0.0877327130567807
23.743264,5.869080196663869,0.0875241706281791
23.74566,5.893384944874589,0.0872648759656913
23.748044,5.916199449018093,0.0870450518395246
23.750424,5.941295593161733,0.0867897654477642
23.752832,5.960245665439263,0.0866017876302691
23.755216,5.977473176224097,0.0864201043013845
23.7576,5.990416946262377,0.0862961586769204
23.759996,6.006433752233711,0.0861388981788724
23.762384,6.020727996712351,0.0859868233088707
23.764768,6.039817838616742,0.0857981820616705
23.767164,6.060490472386969,0.0856147157636088
23.769552,6.081442645410916,0.0854169405747561
23.771932,6.1056076239947785,0.0851816760503666
23.774328,6.12390606996625,0.0849967787721062
23.776716,6.14355499037808,0.0847853361543474
23.779096,6.162412514856994,0.0845727624201754
23.781492,6.180338873776128,0.0843667746852248
23.78388,6.192119160829152,0.0842242313690696
23.786264,6.206041318255451,0.0840565022334624
23.78866,6.219311849375696,0.0838793693195684
23.791044,6.229649114189743,0.0837265448690723
23.79344,6.237192882324456,0.083591585923524
23.79584,6.2445043330336905,0.083425565466383
23.798228,6.248742747809871,0.0832900324063659
23.800608,6.260198169638801,0.083080510480005
23.803012,6.272444987400649,0.0828740444469636
23.8054,6.286042279602856,0.0826414009664954
23.80778,6.300570737364841,0.0824058630359118
23.810176,6.3171012958732415,0.0821545943226848
23.812564,6.33125766658289,0.081899278454165
23.814944,6.343039849493782,0.0816382434258484
23.81734,6.354170406098616,0.0813689750753711
23.819728,6.364230027516814,0.0811147415869435
23.822112,6.378852928935284,0.0808002119820523
23.824508,6.391753268861059,0.0804900630380938
23.826896,6.406935248786971,0.0801520758727125
23.829276,6.424398868713022,0.079786752397084
23.831672,6.444144128639208,0.0793892025237638
23.83406,6.460444265580002,0.078996575882169
23.83644,6.478466964013492,0.0786029255803414
23.83884,6.495838036140924,0.0781981728432856
23.841224,6.511766086029381,0.0777825473180465
23.843604,6.531558567783812,0.0773477099424701
23.846,6.554424085471297,0.0768861942823915
23.848388,6.574635876106306,0.0764349437511452
23.850784,6.592193939688842,0.0759892469506803
23.853184,6.606539197711462,0.0755764487327036
23.855572,6.618230728681606,0.0751706411486546
23.857952,6.625406201479721,0.074778092880132
23.860348,6.633233300583892,0.0743968509488205
23.862736,6.643853896367397,0.074005790135643
23.86512,6.652332621777627,0.0736353979980871
23.867524,6.657878080881662,0.0732840226545107
23.869908,6.659000029612283,0.0729817509136423
23.872288,6.660913374275822,0.0726834174886051
23.874696,6.659893452633165,0.0724033482795646
23.87708,6.65659189099037,0.0721511856218481
23.87946,6.655432199720853,0.0718790728386801
23.88186,6.657066005130671,0.0715968448249274
23.884244,6.6601900546077095,0.0712866295383626
23.886628,6.666107600764081,0.070966671232944
23.889024,6.672676773226511,0.0706569921477437
23.891412,6.672448247516772,0.0703834183267713
23.893792,6.673570196247392,0.0700888044542404
23.896188,6.67413306647057,0.0698204910951514
23.898576,6.677489433373084,0.069543220494772
23.90096,6.685129541022153,0.0692287013432845
23.903356,6.696494310910334,0.0689045690378865
23.905744,6.713166534903465,0.0685771699268192
23.908124,6.7287678237099575,0.068260177543818
23.910524,6.7382230406503405,0.0679850086194728
23.912912,6.751682459083555,0.0676866404498997
23.915292,6.76621281270341,0.0673792262831128
23.917688,6.781674331883043,0.0670676280008577
23.920076,6.795133750316259,0.0667685393688581
23.922456,6.809244795055531,0.0664799852580475
23.924856,6.824147235727723,0.0661958641997144
23.927244,6.839421763452252,0.0659369066466494
23.929624,6.852274881549785,0.0657091006712653
23.932028,6.864568921139875,0.065509108178543
23.934416,6.876862960729965,0.0653103619981756
23.936796,6.888086065133418,0.0651205024966411
23.939196,6.89888986065629,0.0649481011269764
23.94158,6.904478749872829,0.0648136847796319
23.943964,6.90941601278331,0.0646688752516286
23.94636,6.913142570880293,0.0645394935945543
23.948748,6.913656323417361,0.0644365072038404
23.95114,6.909886335207874,0.0643681676248637
23.953536,6.903742159199632,0.0642877924675105
23.955924,6.897877522445111,0.0641947472558987
23.958308,6.9020233894226735,0.0640493033983704
23.960704,6.9060294867733765,0.0639112023796316
23.963088,6.909244188191161,0.0637690752444545
23.965472,6.916882399982359,0.0635889517218249
23.967868,6.92480015102728,0.0633964007569761
23.970252,6.9319265061392805,0.0631996753768928
23.972636,6.935467968639029,0.063004067906997
23.975032,6.936355704086302,0.0628084086627041
23.97742,6.940735784347211,0.0625767455267628
23.979804,6.9385977056896735,0.0623575097140933
23.982208,6.935528461472359,0.0621405082136654
23.984592,6.935392483561236,0.0619122555872434
23.986972,6.940471411956446,0.0616502011935936
23.989372,6.9492750025907695,0.0613803916245931
23.99176,6.960220463598371,0.061095585442515
23.994144,6.97386687348669,0.0607724723841817
23.99654,6.985650952255453,0.0604512730721719
23.998928,7.000275749531792,0.0600847258057545
24.001308,7.012758676434856,0.0597338382199013
24.003704,7.020957862591366,0.0594123878676743
24.006092,7.018634688336593,0.0591215230722292
24.008472,7.012586851842706,0.0588368435576925
24.010868,7.0053283105353215,0.0585648172927188
24.013256,6.994996733294881,0.0583101468242234
24.015652,6.984245847173861,0.0580730067208638
24.018052,6.975217522545537,0.0578390976296891
24.020436,6.970333169036906,0.0575808471049196
24.02282,6.967730455528414,0.0573018240189951
24.025216,6.962334245340585,0.0570270848463125
24.027604,6.96173363257851,0.0567384389389693
24.029984,6.958199753510238,0.0564584739168937
24.03238,6.950941212202853,0.056183235927163
24.034768,6.94289127496255,0.0559040462544274
24.037148,6.936052042535747,0.0556128005412237
24.039552,6.9297246667881405,0.0553396348667736
24.04194,6.917763075853621,0.0551127538161311
24.04432,6.911668017531491,0.0548681588194247
24.046716,6.90580527663484,0.0546532687659601
24.049104,6.902456493163801,0.0544473975020084
24.051484,6.905393551185735,0.0542063069054805
24.05388,6.9148487681261175,0.053958826275422
24.056268,6.9250953809994185,0.0537158879288172
24.058648,6.941208526485108,0.0534576476438062
24.061048,6.9561109671573,0.0532124433534567
24.063436,6.971432716710072,0.0529492026890106
24.065816,6.987965171076343,0.0526752458573035
24.068212,7.006220186935311,0.0524087727005628
24.0706,7.024195663540557,0.0521559504259398
24.07298,7.044685097571418,0.0519147392359566
24.075384,7.066245466788919,0.0516686324489413
24.077772,7.093532598991949,0.0514145852776175
24.080152,7.124404623807233,0.0511653598052696
24.082552,7.152855238995518,0.0509413444003908
24.08494,7.1780930486238885,0.0507369565228229
24.08732,7.195601994520311,0.050546150746178
24.08972,7.217394681163289,0.0503304394726379
24.092104,7.234252000753654,0.0501292028307608
24.094488,7.246453492545127,0.0499296623948442
24.096884,7.256792653217044,0.0497307623993309
