Time,Force,Position
22.892224,3.2429081437992044,0.1738014816673924
22.894612,3.2646913511528357,0.1737786361659191
22.896996,3.282891561752082,0.1736197656612048
22.899392,3.299044345634538,0.1734081777918226
22.90178,3.313149702800205,0.1731410301447103
22.90416,3.3321923228763515,0.1724549170802075
22.906564,3.34075980436946,0.1720836697128342
22.908952,3.3534240351540188,0.1716249683291188
22.911332,3.374793621200677,0.1709980915284392
22.913732,3.405799728069213,0.1701841235038173
22.916116,3.4473281953490305,0.1689805080618865
22.918496,3.488112488524173,0.1677362926143472
22.920892,3.5254516587139237,0.1665801318083924
22.92328,3.5579480096496785,0.1656667463358602
22.92566,3.5952852839815588,0.1647386984294735
22.928056,3.634949524283951,0.1638551207465129
22.930444,3.6791770445866177,0.1627624368009658
22.932828,3.721077598918773,0.161661869620354
22.935224,3.760371648026696,0.1605633926785951
22.937608,3.792448690081871,0.1597345362736536
22.939992,3.829925734040611,0.1588343064668046
22.942388,3.8645620594917736,0.1581012637456266
22.944772,3.8993381545697967,0.1573624363585582
22.947168,3.926712146997836,0.1567920982786058
22.949564,3.947847519761148,0.1563962281387323
22.951952,3.961206806964269,0.1563362987636957
22.954336,3.97973377864548,0.1561624255054004
22.956736,3.997189815140052,0.1560341495917775
22.959124,4.015903778276367,0.1557885941753999
22.961504,4.02535330764314,0.1557262267415197
22.9639,4.032056562158823,0.1556714086792266
22.966288,4.037688881487868,0.1556562152311394
22.968672,4.049187733429301,0.1554719314786868
22.971068,4.066320800557649,0.1550703436036886
22.973452,4.080987132088625,0.1546488193742098
22.975836,4.095980224701564,0.1541374991135632
22.978232,4.108459359888888,0.153678965678308
22.980616,4.121590121382272,0.1532313392737498
22.983,4.134161804368214,0.1528336312369364
22.985396,4.156743991086239,0.1521456616832788
22.987784,4.176020824445733,0.1515172419452685
22.99018,4.199069541872583,0.1507336554103399
22.992576,4.218673136314041,0.1500109668656691
22.994964,4.239999292248194,0.1492540576172077
22.997344,4.2645382537422645,0.1483911850732217
22.999744,4.292849099303689,0.1473674289041621
23.069024,4.072212153940828,0.1473016398266054
23.073808,4.066067977932586,0.1472900717320424
23.076188,4.067046365320607,0.1471961098637495
23.078584,4.0658828823353526,0.1471744566655914
23.080968,4.070026853455047,0.1470436114764065
23.083352,4.076172925321157,0.1468563490246356
23.085756,4.082179227560407,0.1466811974141919
23.08814,4.088976925732576,0.1465000963110937
23.090524,4.0916306527850494,0.1464469630850192
23.092924,4.09735741577058,0.1463015978967947
23.095312,4.10252510024867,0.146210005306644
23.097696,4.108763719913397,0.1460859721014692
23.100092,4.116724901070821,0.1459317486065028
23.102476,4.131483780400415,0.1456035590949357
23.104856,4.147173825289785,0.145252409496405
23.107256,4.164726201298714,0.1448666269885511
23.109644,4.186422548427335,0.1443647688309053
23.112024,4.209748909250036,0.1437862697407668
23.11442,4.233354809326458,0.1431842144589044
23.116804,4.254446751977265,0.1426160275005428
23.1192,4.271953802015819,0.142117932405523
23.121596,4.289740391308094,0.1415945181030055
23.123984,4.309668850973645,0.1410108083234529
23.126364,4.331739181012474,0.140361369133431
23.12876,4.348362287319493,0.1398215319728754
23.131148,4.360841422506819,0.1394004916136768
23.133528,4.378116155119895,0.1388727991896451
23.135932,4.392457621426777,0.1384192641542755
23.13832,4.410291432547294,0.1378431694006088
23.1407,4.427473617361754,0.1372707442785727
23.143096,4.444143945497015,0.1366821667087402
23.145484,4.45881217288586,0.1361498654982394
23.147864,4.4701750469161725,0.1356546640063562
23.150264,4.4767423235207335,0.1352716921661709
23.152648,4.487593340871848,0.1347728892142253
23.155028,4.49499923523757,0.134327552217671
23.157428,4.500123489603155,0.1339586054107243
23.159812,4.502174708035684,0.1336674007388106
23.162208,4.504225926468213,0.1333767655367242
23.164612,4.512283447139993,0.1329509658794318
23.166996,4.52234306855819,0.1324778857184949
23.169376,4.5324026899763865,0.1320056078442656
23.17178,4.540739749901886,0.1315602046007044
23.174168,4.549356349081107,0.1310958183184315
23.176548,4.565701811992274,0.130481694184965
23.178944,4.58311821009008,0.1298334221185829
23.181332,4.594947614829216,0.129288886125158
23.183712,4.607987724381852,0.1287046302984044
23.186108,4.622890165054043,0.1280977840634279
23.188492,4.638444232032293,0.1275046597489136
23.190876,4.655069234197182,0.126888218623432
23.193272,4.67048353154857,0.1263077959346925
23.195656,4.690693426325712,0.1256393246972063
23.19804,4.711043090729713,0.1249577645519007
23.200436,4.722825273640607,0.1244899904418224
23.202824,4.734839773976977,0.1240612300279578
23.20522,4.744340316887733,0.1236566522085452
23.207616,4.751838759052071,0.1232907490976339
23.21,4.7589178923358295,0.1229587619141273
23.212384,4.762364911179092,0.1227443843824335
23.21478,4.769396822634607,0.1224831383469717
23.217168,4.7793620003963175,0.1221694161346698
23.219548,4.788768099650587,0.1218996416731342
23.221944,4.796544185210776,0.1216996590282097
23.224332,4.798313968531716,0.121621259501952
23.226712,4.801014917412434,0.1215282066875232
23.229108,4.808651233345763,0.1213429782724333
23.231496,4.817730571518069,0.1211625690869521
23.238676,4.824853134914332,0.1211310162502397
23.24106,4.829229423459504,0.1210830477990965
23.243456,4.833977799057012,0.1210640715252562
23.245844,4.840960592826415,0.1210461254914169
23.248224,4.8562313288352055,0.1208583697252758
23.25062,4.876856740777189,0.1205577044075218
23.253008,4.904651937943679,0.1201783385856551
23.255388,4.940827625148173,0.1196866258026216
23.257784,4.982078449032139,0.1191110744173096
23.260176,5.020675545863631,0.1185592189391387
23.262556,5.053266340455872,0.1181169044404158
23.26496,5.082364790234477,0.1177658290173621
23.267348,5.111183700759362,0.1174319078532874
23.269728,5.141353085724606,0.1170563886191507
23.272124,5.174315967369185,0.1166444249070449
23.274512,5.211283050506597,0.116170798761485
23.276896,5.244618019203513,0.1157974878703328
23.279292,5.277301361594371,0.1154213430070549
23.28168,5.309472847306031,0.1150219363019525
23.28406,5.341644333017692,0.1146211152079158
23.286456,5.3735362794756325,0.1142354511849861
23.288844,5.402215420373657,0.1139209314717267
23.291224,5.426238733472791,0.1136678892406346
23.293624,5.449750189892725,0.1134006607062021
23.296008,5.470328380006467,0.1131850930616431
23.307968,5.50086606030831,0.113171875852372
23.310356,5.511620738145069,0.113069979587597
23.31274,5.524005429675906,0.1129126726962883
23.315136,5.541232940460741,0.1126443979122232
23.317524,5.558739990499296,0.1123613154096992
23.319904,5.575455644604931,0.1120824660799652
23.3223,5.589098262777511,0.1118557590064083
23.324692,5.599155988337839,0.1116577200713571
23.327072,5.611215814644582,0.111433348000609
23.329468,5.629421712817438,0.1111163991700214
23.331856,5.65004902061729,0.1107474728021157
23.334236,5.6750998387905565,0.11029842069118
23.336636,5.700569965844404,0.1098240831454647
23.33902,5.730184064017945,0.1092849854369209
23.341404,5.75807560069879,0.1087586852656039
23.3438,5.781171539953883,0.1082870107183221
23.346184,5.806828658462834,0.1077466711190625
23.348568,5.825548309172756,0.1073018842172105
23.350964,5.840123988762984,0.1069199830418363
23.389196,5.601315096050424,0.1066930696934007
23.391576,5.583392528847029,0.1066894880933204
23.393976,5.56733229276319,0.1066670245923241
23.396364,5.555555797425906,0.1065751616123465
23.398744,5.549925373954731,0.1063950609249501
23.40114,5.550301252722807,0.1061347661198403
23.403528,5.56003600891691,0.1057356197399113
23.405912,5.572843801044067,0.1052923564777579
23.408312,5.589376255410338,0.1048146496054548
23.4107,5.603766839403331,0.1043704215657768
23.41308,5.615224157090131,0.1039591704029142
23.41548,5.6314770722026815,0.1034937399932085
23.417868,5.649592318434789,0.1030096581111191
23.420248,5.664494759106979,0.1025808607457393
23.422644,5.683401401272005,0.1020958473085939
23.425032,5.704170374556587,0.1015881475310309
23.427428,5.725870513400947,0.1010685980401742
23.429824,5.749712522618584,0.1005152930268359
23.432216,5.766617064037192,0.1000519440022324
23.434596,5.783381835828941,0.0995983729762459
23.436996,5.795071470941218,0.0992174971313902
23.4776,5.597551144651521,0.0989761046161831
23.48,5.590847890135841,0.0989484186575939
23.482388,5.584144635620157,0.0989205496842894
23.484768,5.578512316291115,0.0988762015813223
23.487164,5.579957234387959,0.0987416884094878
23.489556,5.5835440228580815,0.0985746365612357
23.491936,5.58941245132834,0.0983668600584652
23.494332,5.598773224612236,0.0980945537072379
23.49672,5.611067264202328,0.0977916153581375
23.4991,5.626574109352334,0.0974381609784917
23.5015,5.6460851559951735,0.0970352221914523
23.503888,5.672813209690762,0.0965372853704245
23.506272,5.700612198572991,0.0960258750459793
23.508668,5.724267216335526,0.0955764044943327
23.511056,5.74685129891142,0.0951431561803805
23.513436,5.770646086300815,0.0946876807438764
23.515836,5.794440873690209,0.0942360813924523
23.518224,5.8197259051468215,0.0937472054755701
23.520608,5.845942102163214,0.0932562100504886
23.523004,5.868154097686771,0.0928141740232502
23.525392,5.8937186683971055,0.0923181984225761
23.527776,5.915698346495186,0.0918440955765652
23.530176,5.937817794220127,0.0913631941839462
23.532564,5.961939342691484,0.090861429609419
23.534944,5.978192257804036,0.0904409414721244
23.537344,5.995096799222644,0.0900333495981341
23.539732,6.009859470267976,0.0896564976870393
23.542112,6.019127695753255,0.0893609232662869
23.544512,6.024251950118839,0.0891162924392486
23.5469,6.029236434857564,0.0888799610681005
23.549284,6.034081149969428,0.0886527296926354
23.55168,6.034642124334737,0.0884846996228202
23.554072,6.035994494632966,0.0883190013553992
23.556452,6.037486634558055,0.0881456048907378
23.558848,6.040049709669781,0.0879580148776632
23.561236,6.043683719968147,0.087757847089668
23.56362,6.0442446943334565,0.0875915236545236
23.566016,6.040521927952212,0.0874804458144391
23.568404,6.033865895264773,0.087395489149457
23.570784,6.027209862577334,0.0873102741659302
23.573188,6.021345225822812,0.0872265747270305
23.575572,6.021207352053821,0.087099688805735
23.577952,6.022931809404387,0.0869616534797343
23.580356,6.0243767275012345,0.0868392539686003
23.582744,6.0316881782104685,0.0866667888644868
23.585124,6.038208232986786,0.0864938749184931
23.587524,6.046450849255801,0.0863172401824873
23.589912,6.064192112577701,0.0860322647768494
23.592292,6.083935476646017,0.0857270415092452
23.594688,6.105960480714473,0.0853911634384623
23.597076,6.1271940888500085,0.0850550790802357
23.599456,6.146705135492849,0.0847215245110455
23.601856,6.160489419150157,0.0844275895090958
23.604244,6.176275803553885,0.0841171340549337
23.606624,6.194855684636947,0.0837934231704164
23.60902,6.207149724227036,0.0835380147545141
23.611408,6.22316842605624,0.0832611047435722
23.613788,6.246915991617392,0.0829283874980197
23.616188,6.2745279890445165,0.0825696551822246
23.618572,6.30265184315084,0.0822265371567167
23.620956,6.328773596510746,0.0819039558173301
23.623352,6.347818112444762,0.0816483810561493
23.625736,6.363929362072583,0.0814168288058333
23.62812,6.379388985394346,0.0811767829320397
23.630516,6.391775572783054,0.0809672801685731
23.632904,6.401089124238707,0.0807873123453285
23.6353,6.41068221494808,0.0805938854774876
23.637696,6.413058298604704,0.0804726455208471
23.640084,6.419718123007882,0.080305251068948
23.642464,6.4270295737171175,0.0801493742110487
23.64486,6.437414060359408,0.0799676607343
23.647248,6.448729712561477,0.079780755614461
23.649632,6.467913998122352,0.0795376659101647
23.652028,6.484584326257615,0.0792958961580791
23.654416,6.497529992153764,0.0790732440792663
23.6568,6.517692665102662,0.0787854759036626
23.659196,6.540696056559138,0.0784465687758072
23.66158,6.557041519470306,0.0781461199595716
23.663964,6.5665892842093045,0.0778879173068022
23.66636,6.5771154363363244,0.0775826637568261
23.668748,6.586710422903568,0.0772813190246139
23.671132,6.60231171171006,0.0769354486871891
23.673528,6.617913000516553,0.0765888783114589
23.675916,6.632443354136407,0.0762532752566808
23.678296,6.649115578129536,0.0758964664009483
23.680692,6.673004809175417,0.0754812520115277
23.68308,6.696102644288379,0.0750655623339382
23.685464,6.718269313841565,0.0746522615425812
23.68786,6.735780155595857,0.0742624754641522
23.690248,6.748495399924398,0.0738994423447643
23.692632,6.755855968319744,0.0735893147053944
23.695028,6.765358407088371,0.0732591609807944
23.697416,6.770205018058103,0.0729492253565034
23.699812,6.774632320147256,0.0726587739275805
23.702208,6.779990787796187,0.0723648318611966
23.704596,6.783766463579283,0.0720671507609434
23.706976,6.780836988988826,0.0718427076970831
23.709372,6.778978449585007,0.071607623608315
23.71176,6.782195046860663,0.0713356242955177
23.71414,6.785783731188653,0.0710874396250468
23.716536,6.790443350703284,0.0708294274279028
23.71892,6.789795516112964,0.0705777913466882
23.721304,6.794362587828977,0.0702863103895602
23.7237,6.80014036435849,0.0699788574960231
23.726084,6.806197680141721,0.0696601307972267
23.72848,6.803035888125788,0.0694069771236068
23.730876,6.799594556856133,0.0691667164813365
23.733264,6.801088592639091,0.0688999696151193
23.735644,6.803094485101246,0.0686495501319353
23.738048,6.80617131275004,0.0683891128256174
23.740432,6.808596514092775,0.0681167509315222
23.742812,6.8096712409951525,0.0678670769767111
23.745216,6.809535263084031,0.067632265355198
23.7476,6.811261616292465,0.0673920544097703
23.74998,6.808843998381206,0.0671810495801574
23.752376,6.804936136402728,0.0669989497017963
23.754764,6.804380849611025,0.0667827295126721
23.757144,6.806619059498657,0.0665590216392574
23.75954,6.804853067893457,0.0663583281292354
23.761928,6.803226845915114,0.0661518303572985
23.76432,6.801600623936775,0.0659454412608972
23.766724,6.802348589757187,0.0657500640010388
23.769112,6.794808613338214,0.0656131565205481
23.771492,6.789130968038796,0.0654714987359157
23.773888,6.783173783485658,0.0653427271244883
23.776276,6.781640109305935,0.0651720389273879
23.778656,6.78131713993971,0.0649866640947783
23.78106,6.776198573147733,0.0648192644561274
23.783444,6.772150941542394,0.0646435160236209
23.785824,6.77196774180303,0.0644533148220426
23.78822,6.777930613929775,0.0642256451227011
23.790608,6.783521399004184,0.0639750680814671
23.792988,6.79111428482501,0.0637136805420983
23.795392,6.796984609153139,0.0634504667202722
23.79778,6.810071940534016,0.0631417091989973
23.80016,6.822228106355116,0.0628348711410197
23.802556,6.830519840310243,0.062542176752935
23.80494,6.837228782399533,0.0622424586428013
23.80732,6.853948228220907,0.0618959837355049
23.809716,6.870016047736223,0.0615407692446384
23.812104,6.8850129320649,0.0611936158655634
23.814488,6.9000098163935775,0.0608468700688741
23.816892,6.923294642961643,0.060450240050725
23.819276,6.945648303969931,0.060058738939233
23.821656,6.966139633858663,0.059671579637573
23.824052,6.984209554120396,0.059311979995653
23.82644,7.000417143262573,0.0589568364370124
23.828836,7.016484962777889,0.0586064141115419
23.831232,7.031761386360287,0.058252926142325
23.83362,7.040240111770518,0.0579220560851783
23.836,7.044435096434193,0.0576227288678021
23.838404,7.052214973710122,0.0573256855474966
23.840788,7.063999052478883,0.057014036331925
23.843168,7.075783131247646,0.0567021698144709
23.845564,7.0844941740833525,0.0564079821044908
23.847952,7.0942761521056985,0.0561066835897797
23.850332,7.107782792367157,0.0558006430122718
23.852728,7.123011994121312,0.0555004784726604
23.855116,7.129022088076302,0.0552477357889088
23.857496,7.133821477217793,0.0550079390069813
23.8599,7.139691801545921,0.0547612852923912
23.862284,7.150916801807243,0.054483533127363
23.864668,7.155995730202454,0.0542354143984391
23.867068,7.158793018597526,0.0540064760259646
23.869456,7.1615903069926015,0.0537772073312364
23.87184,7.16746063132073,0.0535339580732047
23.874236,7.171980481208499,0.0533081804288562
23.876624,7.181295928522021,0.0530736283556325
23.879004,7.187398570275626,0.0528579904898723
23.881408,7.196154939081707,0.0526447902271855
23.883792,7.205982243074425,0.0524251282786669
23.886176,7.209803244827894,0.0522272114963224
23.888572,7.205615843595696,0.0520577403127194
23.890956,7.201428442363498,0.0518878279422897
23.893336,7.198311976317938,0.0517117772761351
23.895732,7.1950557406455165,0.0515415645038559
23.89812,7.189657634599819,0.0513839702180503
23.900516,7.181977888553986,0.0512450322189847
23.902912,7.177371178441207,0.0510929053146337
23.9053,7.175418195380903,0.0509454226786664
23.90768,7.173465212320599,0.0507979922120479
23.910076,7.163084517394045,0.0506940725187064
23.91246,7.15442638396019,0.0505948688117715
23.914844,7.147910120899612,0.0504833890362473
23.91724,7.141114318585312,0.0503830775906549
23.919624,7.134458285897871,0.0502771158058305
23.922008,7.1298043539568505,0.0501645404581451
23.924412,7.122217155709632,0.0500588428755517
23.926796,7.116771827835692,0.0499405544152223
23.929176,7.118403737387641,0.0497986556927319
