Time,Force,Position
4.163796,0.11985669113743048,0.0
4.166136,0.11384709427083257,0.0
4.168483999999999,0.10783749740423468,0.0
4.170819999999999,0.09996556941808014,0.0
4.173164,0.09102270624528706,0.0
4.175512,0.08315077825913254,0.0
4.177847999999999,0.0760702462058961,0.0
4.180199999999999,0.06912948377951988,0.0
4.182544,0.06325965653978219,0.0
4.184887999999999,0.05846076448668303,0.0
4.187223999999999,0.0539414116873043,0.0
4.189568,0.046209253328009965,0.0
4.191912,0.036614763849158995,0.0
4.194248,0.027160043997168235,0.0
4.196591999999999,0.018636489704955794,0.0
4.198931999999999,0.010112935412743352,0.0
4.201276,0.005314043359644193,0.0
4.203619999999999,0.0015860864931835658,0.0
4.205959999999999,0.0,0.0
4.2083,0.0,0.0
4.21064,0.0,0.0
4.212983999999999,0.0,0.0
4.215328,0.0,0.0
4.217672,0.0,0.0
4.220008,0.0,0.0
4.222356,0.0,0.0
4.224696,0.0,0.0
4.227039999999999,0.0,0.0
4.229379999999999,0.0,0.0
4.231724,0.0,0.0
4.234067999999999,0.0,0.0
4.236404,0.0,0.0
4.238752,0.0,0.0
4.241095999999999,0.0,0.0
4.243435999999999,0.0,0.0
4.24578,0.0,0.0
4.248123999999999,0.0,0.0
4.250472,0.0,0.0
4.252811999999999,0.0,0.0
4.255156,0.0,0.0
4.2575,0.0,0.0
4.259851999999999,0.0027967913066823066,0.0
4.262191999999999,0.0035914818669477615,0.0
4.264536,0.0035914818669477615,0.0
4.266879999999999,0.004246402800353008,0.0
4.269216,0.004246402800353008,0.0
4.271559999999999,0.005832489293536572,0.0
4.273904,0.006347640600081608,0.0
4.276256,0.008073496720125384,0.0
4.278599999999999,0.008073496720125384,0.0
4.280944,0.008073496720125384,0.0
4.28328,0.008073496720125384,0.0
4.28562,0.008073496720125384,0.0
4.287967999999999,0.008073496720125384,0.0
4.290315999999999,0.008073496720125384,0.0
4.292655999999999,0.008073496720125384,0.0
4.294995999999999,0.008073496720125384,0.0
4.297348,0.008073496720125384,0.0
4.299683999999999,0.008073496720125384,0.0
4.302028,0.008073496720125386,0.0
4.304368,0.008073496720125386,0.0
4.306716,0.005276705413443078,0.0
4.309059999999999,0.004482014853177623,0.0
4.311399999999999,0.004482014853177623,0.0
4.313744,0.003827093919772377,0.0
4.31608,0.003827093919772377,0.0
4.31842,0.0022410074265888113,0.0
4.320763999999999,0.0017258561200437761,0.0
4.323108,0.0,0.0
4.325452,0.0,0.0
4.327795999999999,0.0,0.0
4.330143999999999,0.0005151513065450352,0.0
4.332488,0.0041033385461454516,0.0
4.334828,0.007691525785745868,0.0
4.337171999999999,0.010208777838707755,0.0
4.339511999999999,0.017801166571141874,0.0
4.341847999999999,0.021249584183882078,0.0
4.344192,0.023627066609983753,0.0
4.346539999999999,0.026144318662945643,0.0
4.348884,0.03238623295502081,0.0
4.351224,0.038628147247095984,0.0
4.353567999999999,0.04701193191244822,0.0
4.355912,0.0535333854582438,0.0
4.358248,0.06377950124315268,0.0
4.360588,0.07109235072186637,0.0
4.362931999999999,0.07919659613349816,0.0
4.365267999999999,0.0843675752389348,0.0
4.367611999999999,0.08939878471751124,0.0
4.369956,0.09564069900958641,0.0
4.372304,0.10267400923457969,0.0
4.374639999999999,0.10919546278037527,0.0
4.376984,0.11133733315365234,0.0
4.379336,0.11268780759401129,0.0
4.381679999999999,0.11096524610131485,0.0
4.38402,0.11031361979525695,0.0
4.386363999999999,0.10272452569017018,0.0
4.388712,0.1030040649438906,0.0
4.391048,0.10542547457088809,0.0
4.393395999999999,0.10798665382474579,0.0
4.395747999999999,0.10603177490657209,0.0
4.398092,0.10179525598826113,0.0
4.400435999999999,0.09648780188331162,0.0
4.40278,0.09369430520397666,0.0
4.405116,0.08452241923305366,0.0
4.407456,0.07907519550124395,0.0
4.409803999999999,0.07097095008961213,0.0
4.412144,0.06579997098417548,0.0
4.414487999999999,0.06263438725250306,0.0
4.416831999999999,0.056392472960427875,0.0
4.419176,0.0493591627354346,0.0
4.421512,0.042837709189639014,0.0
4.423852,0.04083560844322216,0.0
4.4262,0.03589694676326279,0.0
4.428547999999999,0.034031321016358806,0.0
4.430883999999999,0.03216569526945482,0.0
4.433228,0.03216569526945482,0.0
4.435568,0.02843773840299419,0.0
4.437911999999999,0.023638846349895038,0.0
4.440251999999999,0.01856041504307546,0.0
4.442599999999999,0.014273379669173991,0.0
4.444948,0.012267984295409793,0.0
4.447287999999999,0.009191653735007065,0.0
4.449627999999999,0.005463696868546438,0.0
4.451979999999999,0.004389467054560563,0.0
4.454315999999999,0.0025238413076565766,0.0
4.456659999999999,0.0025238413076565766,0.0
4.459004,0.0028066751887243424,0.0
4.461352,0.0022948185095266528,0.0
4.463692,0.00644208425656791,0.0
4.46604,0.008727018884052525,0.0
4.468396,0.011011953511537142,0.0
4.470735999999999,0.012781736832476725,0.0
4.47308,0.01427527552704323,0.0
4.47542,0.014697879034971207,0.0
4.477763999999999,0.014840943289178763,0.0
4.480103999999999,0.014837648661831418,0.0
4.482448,0.014980712916038974,0.0
4.484788,0.014980712916038974,0.0
4.487128,0.01819681310330191,0.0
4.489471999999999,0.025417114783398552,0.0
4.491816,0.03557068276969036,0.0
4.494168,0.043722150009565315,0.0
4.496504,0.05173384762258007,0.0
4.498847999999999,0.0588143796758165,0.0
4.501192,0.0648239765424144,0.0
4.503532,0.07190450859565083,0.0
4.505875999999999,0.07977314195445802,0.0
4.50822,0.08643107049976648,0.0
4.510572,0.08843317124618333,0.0
4.512915999999999,0.09029550236573997,0.0
4.515264,0.09509109979149179,0.0
4.517603999999999,0.1006780931501617,0.0
4.519947999999999,0.1090585831881666,0.0
4.522288,0.12051210915922685,0.0
4.524631999999999,0.1343870447572846,0.0
4.526968,0.1485448142364101,0.0
4.529304,0.1594864835282727,0.0
4.531651999999999,0.17164215226098137,0.0
4.533992,0.18044195117956685,0.0
4.536348,0.183375217485762,0.0
4.538691999999999,0.18165265599306554,0.0
4.541032,0.18193219524678597,0.0
4.543376,0.18342243931400515,0.0
4.545715999999999,0.1861233881947231,0.0
4.548064,0.19003504188893972,0.0
4.550412,0.19101342927696124,0.0
4.552755999999999,0.18984994629170562,0.0
4.5551,0.18575319700025486,0.0
4.557447999999999,0.18552087957477761,0.0
4.559783999999999,0.1912948643885509,0.0
4.562132,0.19413558289612903,0.0
4.564472,0.19390326547065173,0.0
4.56682,0.1908774513658395,0.0
4.569156,0.1867807020743888,0.0
4.5715,0.18147324796943928,0.0
4.573848,0.17695718979740788,0.0
4.576184,0.17765603793170892,0.0
4.578531999999999,0.17421091494631605,0.0
4.580871999999999,0.17141741826698106,0.0
4.583216,0.1745830019986535,0.0
4.585555999999999,0.18086694763375522,0.0
4.587895999999999,0.1906413422246237,0.0
4.590252,0.2031601158087148,0.0
4.592592,0.22563837958090846,0.0
4.594932,0.2630568265641907,0.008454425493062736
4.597275999999999,0.3233294160877426,0.016932707262891075
4.59962,0.4084582488979811,0.02523886239138284
4.601956,0.5201205605172283,0.03326533436164536
4.6043,0.6494240042282824,0.04116947330409909
4.606639999999999,0.7905945952173694,0.04921218075834152
4.608984,0.9491721050149162,0.05742381796471552
4.611324,1.1378207644054823,0.06543315965249395
4.613667999999999,1.3585898959637273,0.07312258588588519
4.616012,1.5962087636808604,0.0808117392167891
4.618347999999999,1.8457420005042697,0.08861760079529828
4.620688,2.109004715725269,0.09654486527475678
4.623032,2.391536680874285,0.10448655682705045
4.625368,2.7016730600189485,0.11232865420328336
4.627711999999999,3.028706397150743,0.1201441900699227
4.630056,3.363604575925607,0.12801428187177216
4.632408,3.7178211223145996,0.13582643825134952
4.634751999999999,4.092194654078883,0.1435415465967057
4.6371,4.478626116292042,0.151215154528467
4.639439999999999,4.8625927387656995,0.158844242190088
4.641784,5.231247090975931,0.15799725948699073
4.644128,5.573649399488743,0.1571483512502983
4.646471999999999,5.887238485050278,0.15651625012409928
4.648812,6.17708758848214,0.15617755255108004
4.651152,6.445431127956221,0.15598559855183391
4.653499999999999,6.69157215119609,0.15569861131028845
4.65584,6.916256728164291,0.15524069360828818
4.658184,7.103979909568689,0.15510035225190563
4.660527999999999,7.2531570076855765,0.15541929103383673
4.662872,7.38678762225569,0.1557269989225362
4.665211999999999,7.508503867719528,0.15590427759353168
4.667551999999999,7.611043411053967,0.15602189017258178
4.6699,7.686445071101583,0.15621807086362588
4.672239999999999,7.742063728684112,0.156473811202182
4.674583999999999,7.788606839810077,0.15666940771910928
4.676931999999999,7.828495814106472,0.15674422052453554
4.679271999999999,7.844644806273192,0.15689401545298431
4.681623999999999,7.831187283697846,0.1572067481686509
4.683964,7.799063019814428,0.15760277145502322
4.686307999999999,7.7618182932811655,0.15800899422311201
4.688656,7.730020790479712,0.15833906477311638
4.690996,7.69938677066351,0.1586854005310862
4.693339999999999,7.673268809019343,0.15897842362457662
4.695687999999999,7.6467315384945955,0.15929497021184444
4.69802,7.628387766552749,0.15953741208077293
4.70036,7.62605890472437,0.15962076416491885
4.702703999999999,7.631364462971449,0.15966229741555057
4.705052,7.642908640883257,0.15962665255153924
4.707388,7.6652547184600675,0.1594149703647975
4.709731999999999,7.689323357529574,0.15918714883220692
4.712088,7.721912256263946,0.1588450455437684
4.71444,7.767584694663459,0.15829571068291826
4.71678,7.818891348249883,0.15762537387028788
4.719123999999999,7.860933568066768,0.15704513117978156
4.721463999999999,7.8923608796737525,0.15659459592838593
4.723796,7.922205399414903,0.1561642812600129
4.726139999999999,7.950140366208252,0.1557879578186813
4.728491999999999,7.97844742005394,0.15541688094800554
4.730832,8.012061928004577,0.1549817365868651
4.733176,8.044977587820911,0.15458583336395865
4.735519999999999,8.072351580248952,0.1543365829866375
4.737864,8.110200711260033,0.15397329208547594
4.7402,8.148701468577169,0.15361200155691815
4.742543999999999,8.188040843655465,0.1532068397495501
4.744883999999999,8.221049051270418,0.152851372114557
4.747228,8.246096077727946,0.15259499195441734
4.749571999999999,8.268257059707523,0.15234952350173453
4.751911999999999,8.295121091314234,0.15200881323077087
4.754256,8.316026042509938,0.1517255348648718
4.756592,8.33283424441419,0.15147646980847473
4.758944,8.340842647399857,0.15135719125095465
4.761287999999999,8.34172659113139,0.1513804169717507
4.763627999999999,8.343354708967603,0.15143342625256723
4.765976,8.350290280908762,0.15143162904376592
4.768315999999999,8.362300989529395,0.15135328872557252
4.770664,8.37109889259011,0.15132922569957635
4.772995999999999,8.391769630502466,0.15113852443742623
4.775343999999999,8.423102498452966,0.15080491327257764
4.777688,8.452760026739012,0.15045628744934977
4.780032,8.48474641685344,0.15003715284600985
4.782375999999999,8.523205639915941,0.14948513860874868
4.784716,8.555426243313713,0.149002957573189
4.787068,8.588578012271265,0.14851164792601812
4.789403999999999,8.623731881975234,0.1479956681667609
4.791756,8.65981691723898,0.14747008571877354
4.794103999999999,8.696041722129586,0.14694188254227122
4.796448,8.732079535565088,0.14645479458147817
4.798791999999999,8.76564871754535,0.14604848691557196
4.801131999999999,8.80159208732437,0.14562733933876812
4.803476,8.83702360042419,0.14519736197000402
4.805819999999999,8.867007889792196,0.14482007874771294
4.808164,8.895688926548091,0.1444397789155949
4.810511999999999,8.926931142557844,0.14401063916146012
4.812844,8.959011976328757,0.14354701758279442
4.815187999999999,8.98513372968866,0.1431314332631012
4.817539999999999,9.008369438570615,0.14271858488546718
4.819872,9.023736514093763,0.14241104058456053
4.822211999999999,9.032817748123938,0.14219707475026236
4.824555999999999,9.039989429206313,0.14203626852752876
4.826908,9.041434347303156,0.1419425991055398
4.829243999999999,9.033799927227696,0.14196892587870125
4.831588,9.026677363831432,0.14200348290602305
4.833936,9.018623634875391,0.14204768527971526
4.836279999999999,9.008987114053514,0.14209876332595123
4.838631999999999,8.995533383193907,0.1421626324365966
4.840976,8.977051737483071,0.1422611879586541
4.843328,8.959129170279674,0.142335271883473
4.845668,8.945118256770494,0.1423312891376341
4.848008,8.928361068410224,0.14232424619542444
4.850351999999999,8.90764690038536,0.14233624554243793
4.852696,8.892287408293692,0.1422689373780387
4.855039999999999,8.874506506575026,0.14224646209061553
4.857384,8.852581633736664,0.14228122006605656
4.859731999999999,8.828514890525026,0.14234660446977274
4.862067999999999,8.805519082500028,0.14239671545761387
4.864407999999999,8.779030929661392,0.1425108396306023
4.866759999999999,8.754125568688593,0.14261753288442583
4.869104,8.736576984395404,0.14261491773319737
4.871443999999999,8.725081924169707,0.1425002764491055
4.873792,8.70893103614512,0.1424353440546788
4.87614,8.691337125881558,0.14237286103714666
4.878484,8.673231358938796,0.14230180276876278
4.880835999999999,8.656336296809535,0.14220760017703804
4.883175999999999,8.636927277254658,0.14213041732381726
4.88552,8.616819409565482,0.14208488425712762
4.887867999999999,8.598386881540756,0.14205993644408024
4.890212,8.58046621019523,0.14204317641926048
4.892564,8.56347670440948,0.1420140309329728
4.894907999999999,8.550211860862845,0.14194407220846553
4.897252,8.543557724033276,0.141830955094939
4.8996,8.537787530935239,0.14174151942264393
4.901944,8.538442948957035,0.1415552466575042
4.904283999999999,8.544872351792606,0.14127144698663563
4.906635999999999,8.55092966757584,0.1409725278134248
4.908971999999999,8.557219300784547,0.1406932829839036
4.91132,8.575381768844897,0.1402647612577706
4.91366,8.595314020226187,0.13979175463791982
4.916012,8.60928719119647,0.13936762746460504
4.918348,8.614832650300507,0.13906386927227735
4.920691999999999,8.625406024255769,0.13872399446859418
4.92304,8.64794478086129,0.13826777697068818
4.925376,8.674627508586505,0.13775954087188408
4.927719999999999,8.699727444445886,0.13726007957375555
4.930059999999999,8.725059697730742,0.1367794375953437
4.932404,8.755839174747408,0.13624672380868486
4.934747999999999,8.79025076620457,0.13564917025679135
4.937087999999999,8.826991219490113,0.13498863327026517
4.939435999999999,8.85642211792429,0.13439946052489604
4.941775999999999,8.886225103410805,0.13382847207767334
4.94412,8.91509692333754,0.13326990018803364
4.94646,8.9432245691596,0.13268398200781614
4.9488,8.963902890503434,0.13217171071183703
4.951136,8.976805126287077,0.13177744944994005
4.953479999999999,8.989240831361899,0.13143269311102626
4.955819999999999,9.005401198675832,0.13105223936710086
4.958164,9.015834803004235,0.1307344916292032
4.960504,9.02319537139958,0.13045574330356208
4.962847999999999,9.02822707796655,0.13024399673723833
4.965192,9.035632972332273,0.13002233024985776
4.967528,9.049464477817825,0.1297147451956614
4.969871999999999,9.051470370279981,0.12950930056367496
4.972211999999999,9.047749499756605,0.12936155825314358
4.974556,9.045471651472207,0.12921430861824307
4.976896,9.04812917024042,0.12901353455637415
4.979239999999999,9.050414601956296,0.1287989174453351
4.981579999999999,9.052048407366113,0.12858208293955675
4.983915999999999,9.044974961655964,0.12848252643704958
4.98626,9.042649891543322,0.12836784534754364
4.9886,9.04018505180382,0.1282590902199301
4.990959999999999,9.035997650571622,0.1281609318486966
4.9933,9.031251170831982,0.128085539590835
4.995643999999999,9.033022850010791,0.1279533878813626
4.997992,9.039357809189871,0.1277544064116446
5.000328,9.050535587622951,0.12747831408753543
5.002675999999999,9.058408012697498,0.12721761117858
5.005027999999999,9.062416005906071,0.12699383314972737
5.007372,9.066284229487781,0.1267754249366157
5.009715999999999,9.07178246676357,0.1265194627536301
5.01206,9.07984188329322,0.12621882716667032
5.014412,9.080963832023842,0.12599315940614295
5.016748,9.088324400419191,0.12572218028419435
5.0191,9.099409631053652,0.12541977700785922
5.021452,9.108632530568556,0.12513376038275828
5.023788,9.115201703030987,0.12486748650758284
5.026128,9.121491336239696,0.12461363909906062
5.028476,9.127501430194684,0.12437211261912606
5.030816,9.140588761575563,0.12405305927500807
5.033156,9.152512609971184,0.1237225757756418
5.035499999999999,9.16257412724725,0.12340770925778523
5.037847999999999,9.174497975642874,0.12307796565514333
5.040184,9.186701363292217,0.12273751374507183
5.042527999999999,9.195971484635365,0.12242724441485177
5.044875999999999,9.206684628217488,0.12212095350258198
5.047208,9.214184966239696,0.12185515302509507
5.049552,9.224059492060658,0.12158375532975084
5.051891999999999,9.243525212733124,0.12122954661031779
5.054243999999999,9.265132803778867,0.12085049936854549
5.05658,9.289254352250225,0.12046195143445033
5.058923999999999,9.313096361467862,0.12008662801664467
5.061271999999999,9.340663032924613,0.11968348973464271
5.063604,9.365436207702029,0.1193027661039718
5.065944,9.386996576919529,0.11896070556070518
5.068287999999999,9.410279507629728,0.11861045683179267
5.070639999999999,9.432072194272704,0.1182891268020923
5.072975999999999,9.452933715355904,0.1179759776987875
5.07532,9.470861970132907,0.11768926327586468
5.077667999999999,9.487719289723271,0.1174168135166904
5.080015999999999,9.501875660432923,0.11719000376843239
5.08236,9.52110716782204,0.11691435355024803
5.084703999999999,9.53940750965138,0.11664653985312813
5.087047999999999,9.559290643346559,0.11637717075274383
5.089383999999999,9.579825403347796,0.11611238220394308
5.091728,9.595285026669558,0.11589772282326025
5.094075999999999,9.61074464999132,0.11568353349359685
5.09642,9.627554747753443,0.11544817173849188
5.098763999999999,9.636635981783616,0.11527772963746614
5.101108,9.64636884211985,0.11511219649340187
5.103448,9.654518910590248,0.11494992666614469
5.105791999999999,9.664531310180202,0.1147759992495219
5.108143999999999,9.674264170516434,0.11461344391582182
5.110496,9.687070066785722,0.11442227503319335
5.11284,9.70588226529426,0.11417976376168945
5.115183999999999,9.7246944638028,0.11393821480902423
5.117528,9.743506662311338,0.1136959687162286
5.119876,9.763110256752796,0.11345337444088258
5.122219999999999,9.786857822313946,0.1131715428324961
5.124568,9.811676323061736,0.11288059630276011
5.126916,9.843851600489137,0.11251853825681922
5.129256,9.870020575677286,0.11220979565951575
5.131599999999999,9.898191651611851,0.11188589345051057
5.133939999999999,9.92356923086708,0.11158065022035024
5.136284,9.948574723069974,0.1112624649178559
5.138627999999999,9.975070459340087,0.1109173359881994
5.140972,10.002357591543115,0.11057232622572737
5.143319999999999,10.029784493373004,0.11022556563849135
5.14566,10.062146762255507,0.10984116371055407
5.148004,10.092786469645313,0.10946505683497375
5.150347999999999,10.127150839274233,0.10906951618946444
5.152683999999999,10.155788445917622,0.10871353435819675
5.155032,10.17990999438898,0.10838065875579492
5.157371999999999,10.201098276554143,0.10807079966066528
5.15972,10.214697464614218,0.10781189973995715
5.162059999999999,10.229647127114653,0.10753437187033199
5.164403999999999,10.248089134428723,0.10721709206836995
5.166751999999999,10.265879515436735,0.10689651126808854
5.169087999999999,10.282319422004388,0.10659754402553917
5.171427999999999,10.295686292638987,0.10632507755473078
5.173772,10.30132429954164,0.1061058361389101
5.176124,10.308964407190711,0.10587090824635352
5.178459999999999,10.312740082973805,0.10566222130713265
5.180804,10.317586693943538,0.10544340996622496
5.183147999999999,10.322945161592468,0.10523414388996687
5.18548,10.329886421107235,0.1050241732035722
5.187819999999999,10.33431372319639,0.10482032648792844
5.190163999999999,10.335667989352485,0.10464198094501719
5.192508,10.333157823642612,0.10448935357559394
5.194844,10.330927197186455,0.10432733245921161
5.197187999999999,10.320967706998353,0.10421538933669362
5.199532,10.313150087183526,0.10408346635302795
5.201872,10.311478539234813,0.10390216301721972
5.204215999999999,10.310598387219017,0.10372042594437964
5.20656,10.310369861509278,0.10354233415072503
5.208903999999999,10.306928530239622,0.10339390723549893
5.21124,10.298923918969694,0.10329404649091745
5.213583999999999,10.291570934005822,0.10319858190522394
5.215923999999999,10.277420250869781,0.10314774184035608
