Time,Force,Position
4.806256,0.009999401838902069,0.0
4.808632,0.01921850963806821,0.0
4.811027999999999,0.029493971693516554,0.0
4.813415999999999,0.03962966412210468,0.0
4.815796,0.0528383924837482,0.0
4.8182,0.06604712084539172,0.0
4.820583999999999,0.07711397883375816,0.0
4.822964,0.08710990163548607,0.0
4.825360000000001,0.09417255813101885,0.0
4.827748000000001,0.10216638018632992,0.0
4.830132,0.1061560007488073,0.0
4.832527999999999,0.10814352056486781,0.0
4.834912,0.10826870926137169,0.0
4.837295999999999,0.10826870926137169,0.0
4.839688,0.10826870926137169,0.0
4.842076,0.10826870926137169,0.0
4.844468,0.10826870926137169,0.0
4.846863999999999,0.10800375093800761,0.0
4.849248,0.10800375093800761,0.0
4.851628000000001,0.10466575668158815,0.0
4.854031999999999,0.09839449611897351,0.0
4.856419999999999,0.08905019962330349,0.0
4.8588,0.07877473756785514,0.0
4.861204,0.06863904513926701,0.0
4.863592,0.05543031677762348,0.0
4.865968,0.042221588415979956,0.0
4.868364000000001,0.03115473042761351,0.0
4.870752,0.021158807625885588,0.0
4.873131999999999,0.014640648707437344,0.0
4.875535999999999,0.008541798669569726,0.0
4.877923999999999,0.01073089087108994,0.0
4.880304,0.016924184565443853,0.0
4.882700000000001,0.027121679752631467,0.0
4.8850880000000005,0.03758413326318317,0.0
4.887467999999999,0.048977752333513196,0.0
4.889872,0.0594402058440649,0.0
4.892256000000001,0.06776078898133953,0.0
4.89464,0.07729207693211292,0.0
4.897035999999999,0.08482126413646945,0.0
4.899424000000001,0.09048812022126934,0.0
4.901803999999999,0.09694637223898733,0.0
4.904208,0.1046153290702041,0.0
4.906592000000001,0.11107358108792209,0.0
4.908976,0.11632112829214138,0.0
4.911368,0.12277938030985935,0.0
4.913756,0.1309601938202738,0.0
4.916151999999999,0.13592820177077264,0.0
4.918548,0.14490041121410518,0.0
4.920936,0.15025508714729785,0.0
4.923316000000001,0.15318835345349302,0.0
4.925712,0.15048740457277512,0.0
4.928095999999999,0.14671552050541867,0.0
4.930476,0.14159316199770325,0.0
4.932872000000001,0.142197566475518,0.0
4.935256,0.14215034464727488,0.0
4.937651999999999,0.14368591468486794,0.0
4.940043999999999,0.1485740599092368,0.0
4.942431999999999,0.15304289625302506,0.0
4.944812,0.16258686927628554,0.0
4.947204,0.17599527416551952,0.0
4.949592,0.18996275756219433,0.0
4.951984,0.20257976651851017,0.0
4.954388000000001,0.21547631472854642,0.0
4.9567760000000005,0.22958356775208144,0.0
4.959155999999999,0.24033824558884065,0.0
4.961548,0.2493703619329034,0.0
4.963936,0.26361738458329864,0.0
4.966316,0.26971623462116623,0.0
4.968716,0.27995905577872776,0.0
4.971104,0.29020187693628924,0.0
4.973484,0.304076812534347,0.0
4.975888,0.3140873162664312,0.0
4.978276,0.3213043233191806,0.0
4.980656000000001,0.3195817618264842,0.0
4.983059999999999,0.31636895626656864,0.0
4.985444,0.3126442940274553,0.0
4.987824000000001,0.3057068262284265,0.0
4.990227999999999,0.2961156313769228,0.0
4.992615999999999,0.283591170219224,0.0
4.994996,0.2689248386882481,0.0
4.9974,0.2546305942096098,0.0
4.999783999999999,0.2406158889846918,0.0
5.002164,0.2284635148793305,0.0
5.004568,0.2133778744677741,0.0
5.006951999999999,0.20150503961613322,0.0
5.009332,0.18776987364493566,0.0
5.011728000000001,0.17203260692732125,0.0
5.014112,0.16137047688917908,0.0
5.016492,0.14535367091784424,0.0
5.018884000000001,0.13028261143664407,0.0
5.021272000000001,0.11292991195530667,0.0
5.023668,0.09851047878016442,0.0
5.026072,0.08609314635143901,0.0
5.028455999999999,0.076748849855769,0.0
5.030836,0.0805508930305454,0.0
5.033231999999999,0.10082868945400342,0.0
5.035616,0.1473132036045069,0.013408340045581299
5.037996000000001,0.22205375805671582,0.024462090846688142
5.040399999999999,0.315738697212847,0.03487458738009227
5.042784,0.4235724236471486,0.045251902160846375
5.045164000000001,0.5427142188520426,0.05577815483303681
5.047567999999999,0.6831273647313698,0.06595398759166995
5.049956000000001,0.8496546805391256,0.07554254546385007
5.052332000000001,1.04448525847683,0.08467681562806147
5.054728,1.2578881340661194,0.09363598224466504
5.057111999999999,1.4890246895458321,0.10261301588430036
5.059508,1.7430626093940573,0.11144943504960973
5.061908,2.0184191017449593,0.12016831818109874
5.064291999999999,2.320496064359974,0.1287290278776231
5.066672,2.6419693614573783,0.13718733851959963
5.069076,2.983924509154167,0.1455217435523181
5.071464,3.3497140826371155,0.1536704955608461
5.073844,3.73365854074894,0.16170702577145896
5.076244,4.134828613787729,0.1695523964315514
5.078627999999999,4.525553296036788,0.17735730281985307
5.081012,4.899058050932492,0.18512458511273372
5.083412,5.243190504369477,0.17953798818158181
5.0858,5.558647608624176,0.17635287924197346
5.08818,5.852366831495618,0.1738408487485603
5.090576,6.130913553730495,0.17135423149362564
5.092960000000001,6.39340383159727,0.16873518210471092
5.095339999999999,6.628104599871163,0.16655333010970186
5.097736,6.826960233738265,0.16510737586315385
5.10012,7.000817958833951,0.16413189895956162
5.1025160000000005,7.152750811091276,0.16338352678756837
5.104907999999999,7.291605811257069,0.1625738091019291
5.107292,7.402484310374877,0.16200082970124158
5.109687999999999,7.48948305773615,0.161599317624068
5.112084,7.562285795991009,0.1612313523667695
5.114468,7.6178194892064015,0.1609295920291185
5.116848,7.6542218062627665,0.1607149774950324
5.119243999999999,7.6658585319731944,0.1607001323509165
5.121628,7.661482243428023,0.16075437255966213
5.124024,7.642673836635223,0.16095818186415267
5.126428,7.625168682454538,0.16116146828951375
5.128816,7.614274234990918,0.16130055934109386
5.131192,7.609478637565167,0.1613721080679585
5.133596,7.608407702378528,0.161392188914663
5.135984,7.615670035401652,0.16133304953411765
5.138364,7.632336571821176,0.16117860560403213
5.1407560000000005,7.658966390144539,0.16090349099301016
5.143144,7.699983000745159,0.16042301083718066
5.145523999999999,7.755526173249894,0.15972070818544104
5.14792,7.808555388329017,0.15903716442728202
5.150308,7.866659740087611,0.1582685416032932
5.152688,7.9230415303535064,0.157526075441585
5.155084,7.985848931739235,0.1566575222118796
5.157471999999999,8.053638922005817,0.15567767363588675
5.159864,8.11039469518192,0.15485441012130938
5.162268,8.166731159477443,0.15405861560506573
5.164651999999999,8.219295739705611,0.15334643916742371
5.167032,8.274793586239973,0.15259225803328957
5.169440000000001,8.333876325386589,0.1518115161080368
5.171824,8.390817194159926,0.15107438371356097
5.1742040000000005,8.448549458866182,0.15034307767561286
5.176608000000001,8.500787278012385,0.14972178772411293
5.178996000000001,8.555027197905005,0.14907688275841868
5.181375999999999,8.606101534065955,0.14845074166700256
5.183768,8.652055407577054,0.14784752238504303
5.186156,8.68883739511723,0.14735952139464775
5.188536,8.7194733107913,0.14697165289476688
5.190936,8.741029888293061,0.14671866636113323
5.193319999999999,8.75807040762279,0.1465164727647268
5.1957,8.779115128445355,0.1462591669789904
5.198092,8.800159849267919,0.1460050066342047
5.20048,8.822927131583178,0.1457386051544453
5.20286,8.847277205764277,0.14546702844560427
5.205264000000001,8.866691912892762,0.1452602862246116
5.207648,8.884244288901689,0.1450706265937116
5.210028,8.897699915619164,0.1449074482008916
5.212424,8.917860692710192,0.14463370826632646
5.2148080000000006,8.936578447562244,0.1443638925070554
5.217204,8.943610359017761,0.14420843092906901
5.219608,8.946545521181827,0.14407876117005705
5.221991999999999,8.943102294054302,0.14401466563184723
5.224372,8.935282778381609,0.14398978182901717
5.226776,8.922947204536882,0.14400990799135416
5.229164,8.912381414013096,0.143982347084207
5.231544,8.897811421996476,0.14400846670145565
5.233948000000001,8.88002862441994,0.14408610511143297
5.236332,8.862245826843402,0.14416343187307393
5.238715999999999,8.845953273334086,0.14420529998975443
5.241112,8.824213496092959,0.14430416300243717
5.243496,8.798656508814103,0.1444170011923067
5.245876,8.767512528176574,0.14459268368915185
5.24828,8.733854590113433,0.14478485905662858
5.250668,8.699824564997954,0.1449578368429132
5.253048000000001,8.671149215815666,0.1450462615674885
5.255444,8.650482269619049,0.1450288646055904
5.257832,8.637916274206715,0.144932411451021
5.260212,8.622789099540524,0.1448857669069288
5.262616,8.605240515247335,0.1448832038633826
5.265,8.594210089872593,0.14481111713973854
5.26738,8.58997736267002,0.14465669862460162
5.2697840000000005,8.590260693639479,0.14445837782179524
5.272172,8.6014856939008,0.14412122837380537
5.274552000000001,8.617925600468455,0.14371205267330106
5.276948,8.636739694834864,0.1432944618796836
5.279336,8.658998912186663,0.1428476648009711
5.281716,8.69126863327055,0.14227377407080144
5.284112,8.727170468794931,0.14164057795807572
5.2864960000000005,8.759627181333922,0.14103254988892458
5.288875999999999,8.795948325738884,0.14037562820694244
5.291272,8.837809241674272,0.13969617579602642
5.29366,8.888330186901387,0.13892191968748324
5.296055999999999,8.940061836942,0.13813009430101775
5.298452,8.986997889556863,0.1373949986506433
5.300835999999999,9.023364359932197,0.13680714016647003
5.303216,9.05437615437434,0.13629894753932664
5.305611999999999,9.079009559524895,0.13585494134416787
5.307996,9.101827855384137,0.13539895843514996
5.310379999999999,9.128278265683875,0.13487996297138913
5.312776,9.152447035983476,0.13439711134256918
5.31516,9.176196497402495,0.13393766400875634
5.317559999999999,9.199713641396041,0.13346064090411255
5.319952,9.21405889941866,0.13307167949648604
5.322335999999999,9.221326920015393,0.13276863166620112
5.324716,9.224311199865568,0.13252447961975347
5.32712,9.22929758046216,0.13225760566074787
5.329503999999999,9.228696967700087,0.13204470472788776
5.331884,9.219156786392563,0.13193217512950015
5.334288,9.212642419189853,0.13181364223071035
5.336676,9.20636036941262,0.13171520964847686
5.339052,9.194910635157298,0.1316511037928345
5.341448000000001,9.17615134605061,0.13164869758288789
5.3438360000000005,9.153387855451086,0.13169131509236434
5.346227999999999,9.132067387090544,0.13173440750873833
5.348624,9.122759523208499,0.13164078079109798
5.351012,9.117735400073009,0.1314900063967611
5.353388,9.11205965063146,0.13133588791755477
5.355784000000001,9.101680851562778,0.13125610156144285
5.358172000000001,9.089392499546294,0.13122506511421542
5.360563999999999,9.081899744955562,0.13114537450397695
5.36296,9.065607191446245,0.13116026035817674
5.365348,9.04810393312343,0.13119441537648907
5.3677280000000005,9.033486719278567,0.13122910937101298
5.370124,9.02431672916551,0.13121842913060852
5.372508000000001,9.017288609425735,0.13117906935964802
5.374892,9.009748633006762,0.1311305886797016
5.377292,9.002488195841508,0.1310703425314192
5.37968,8.999743816848284,0.13097337451252244
5.38206,8.99900153860148,0.13085385222430065
5.384464,9.000680669981671,0.13069471939753122
5.386852,9.001149096548366,0.1305548318060033
5.389232000000001,9.003991710913812,0.13040681811454133
5.391628,9.01013967863779,0.13024187837601103
5.394011999999999,9.018149977481327,0.1300600772968353
5.396408,9.018151873339198,0.12996969356525068
5.398803999999999,9.015872129196929,0.12991357230338765
5.401188,9.017968673599832,0.12982733135772948
5.403567999999999,9.029935952107957,0.12963500737573594
5.405964,9.039529042817332,0.1294496500605881
5.408347999999999,9.047259802407149,0.12928228453232754
5.410728,9.062998964982633,0.12902423059452128
5.413136000000001,9.079529523491034,0.12876445247103563
5.41552,9.092614959014043,0.1285256442660879
5.4179,9.102906897857716,0.12831233682678966
5.420296,9.114921398194088,0.12808919272354607
5.422683999999999,9.123164014463102,0.1279307322557557
5.42508,9.131918487411312,0.12778185357584249
5.427476,9.142954600359662,0.12760027760360354
5.429860000000001,9.151057447001817,0.127449132413621
5.432239999999999,9.156878653643831,0.12733180285913337
5.434639999999999,9.170708263271518,0.12712837709378674
5.437028000000001,9.183886246593143,0.12692220158383877
5.439407999999999,9.19748353879535,0.12669989971829806
5.441804,9.210941061370693,0.1264840075936991
5.444192,9.22998557730471,0.12622069339399486
5.446572000000001,9.251171963612004,0.12593162253152396
5.448975999999999,9.267422982866686,0.12569342905837264
5.451364000000001,9.278598865441895,0.12551285787068092
5.453744,9.295361741375775,0.1252863742018136
5.45614,9.310774142869295,0.12508468742071813
5.458528,9.325115609176175,0.12489747969811174
5.460908000000001,9.33731520510978,0.12473654111729135
5.463304,9.358035060708248,0.12450310740791326
5.465692,9.382619348172694,0.12423537908310191
5.468084,9.40333920377116,0.1240033584215506
5.470484,9.4315556056761,0.12368226834609221
5.472872,9.45963223795418,0.12336789827394865
5.475252,9.488360496538318,0.12306043176325529
5.477647999999999,9.523234826988565,0.12269082516840475
5.480035999999999,9.561182193371868,0.12229123634652433
5.482416,9.594566279754897,0.12195649844630584
5.48482,9.628462222817124,0.12163136001488148
5.487208,9.662358165879349,0.12130826799438571
5.489588,9.695742252262377,0.12097762660107274
5.491984,9.725681215660012,0.1206659213151539
5.494371999999999,9.751755747191675,0.12038786028241713
5.496752,9.782114019469892,0.12006145235135282
5.499156,9.813682996561607,0.11971860724251257
5.501544,9.844320808093542,0.11938618957249697
5.5039240000000005,9.876309094065837,0.11903212539264081
5.50632,9.91043925041141,0.11865735544128836
5.508708,9.950995017876815,0.11821500478302463
5.511088,9.98596379198355,0.11781727044024541
5.513483999999999,10.018139069410951,0.11744178544484014
5.515868,10.054178778704324,0.11703544159591722
5.518248000000001,10.084351955385305,0.11668154619343407
5.520651999999999,10.110148843521115,0.1163485533581429
5.523039999999999,10.131709212738613,0.11603374981594015
5.52542,10.146471883783947,0.11577536215447962
5.527824,10.155647561470607,0.11555513591583469
5.530212,10.163799525798874,0.11531760890965172
5.532592,10.170927776768746,0.11506291180236974
5.534992,10.180197898111896,0.1147874704139254
5.537375999999999,10.19039918501482,0.11450670630815078
5.539756,10.19873814079819,0.11423732485342324
5.542155999999999,10.210150132514615,0.1139395876993906
5.5445400000000005,10.218908397178565,0.1136562079245963
5.546919999999999,10.227015035536457,0.11336980536301713
5.549320000000001,10.232467946841872,0.113097218575104
5.551704,10.239411102214511,0.11280044854815141
5.554099999999999,10.240767264228475,0.11253954674559624
5.556500000000001,10.234394562510495,0.11233591165202411
5.558884,10.225368133740043,0.11214446340484037
5.561267999999999,10.210475172357196,0.11199742837189507
5.563664,10.189343591309623,0.11188155093988024
5.566052,10.168212010262048,0.11176536009975778
5.5684320000000005,10.15494906257328,0.1115868633508066
5.570828,10.14219797156371,0.11141680046747254
5.573216,10.128236175740646,0.11126206077043685
5.575596,10.12042045178369,0.11105194523931555
5.577991999999999,10.112464958199872,0.11084640558001758
5.580380000000001,10.105161090922117,0.11064467382131644
5.582776,10.091850921405104,0.11049248523967319
5.58518,10.075607485581902,0.1103622925301384
5.587568,10.066581056811447,0.11016696270772337
5.589948000000001,10.055552527294576,0.109987847672158
5.592351999999999,10.04610678964354,0.10980700688531919
5.594740000000001,10.035310577552146,0.10964627013364311
5.597119999999999,10.02358319990097,0.10949074134624455
5.599516,10.007572081503247,0.10937691714015507
5.601904,9.995425394971491,0.10923536610930819
5.604284000000001,9.986863601051992,0.10907603261288713
5.606684,9.982166238998463,0.1088891840418976
5.609068,9.98747938067702,0.10862189589766251
5.611452000000001,10.000241846833804,0.10830993793247887
5.613848,10.013144082617448,0.10799288430604816
5.616236,10.018829311348343,0.1077398211649643
5.618616,10.024933848959819,0.10747185665992513
5.621012,10.038674702504624,0.10712744260003568
5.623399999999999,10.04505877936982,0.1068506617506772
5.62578,10.051303086608156,0.10657852617815272
5.628184,10.05861832903313,0.10629690185378482
5.630572,10.069006607391158,0.10598874009329104
5.632955999999999,10.080465820935826,0.10566973471771289
5.635352,10.084568257800884,0.10541851498354249
5.63774,10.091743730598997,0.10514225964255028
5.6401200000000005,10.097056872277555,0.10487686020351324
5.642524000000001,10.102649553209833,0.10460145504334308
5.644908,10.109964795634808,0.10432011676163197
5.6472880000000005,10.11592956361942,0.10405731890329782
5.649684,10.11747082123062,0.10383989420546377
5.652072,10.116218582162487,0.10363833307766485
5.654452,10.112684703094216,0.10346208822053723
5.656856,10.10486708327939,0.10332671460215186
5.659244,10.096397837158502,0.10318710294778863
5.661624000000001,10.088719986970537,0.10304701153279822
5.664027999999999,10.083463546409565,0.10287692827675658
5.666415999999999,10.07978989771443,0.10270629961259911
5.668796,10.068479933085968,0.10260958042411739
5.6711920000000005,10.063316040323615,0.1024631667483615
5.673576,10.061225183494319,0.10229224849479539
5.675956,10.055921521105105,0.10215058378875372
5.6783600000000005,10.051549024275673,0.1020040490280675
5.680748,10.05290329043177,0.1018239873323683
5.683127999999999,10.060915485133176,0.10160550302151206
5.685524,10.066134183155244,0.10140219644066649
5.687912,10.073354981923732,0.10118487463712751
5.690292,10.081506946251997,0.10096294435176936
5.692688,10.088587975393624,0.10075044926258454
5.695075999999999,10.099021579722026,0.10050415857012915
5.697456,10.11467009035676,0.10021496674610378
5.699851999999999,10.129107896177995,0.09993862635007578
5.702243999999999,10.146618737932284,0.09963920384348442
5.704624,10.167342385246492,0.09931309116143472
5.707028,10.182711356627506,0.0990344801937052
5.709412,10.200082428754937,0.09874302252305688
5.711792,10.219687919054262,0.09845727809320703
5.714196,10.239433178980452,0.0981681895086171
5.71658,10.261971935585974,0.09786416550738702
5.71896,10.284231152937776,0.09757186504603153
5.721355999999999,10.302486168796744,0.09730787159138468
5.723743999999999,10.323534681335046,0.09703020559794291
5.726124,10.344583193873348,0.09675402598946836
5.728528,10.358694238612623,0.0965244581446246
5.730911999999999,10.367078520366366,0.09632672192609837
5.733292,10.375834889172447,0.09614309690642328
5.735688000000001,10.384591257978528,0.0959602577770137
5.738072,10.395070188277305,0.09577410808649114
5.740467999999999,10.410624255255556,0.09555395473945369
5.742864,10.427900883726503,0.09533090591479777
5.745252,10.445317281824307,0.09510513450729269
5.747632,10.470881852534639,0.09482486459390335
5.750028,10.496586192871833,0.0945425184876355
5.7524120000000005,10.518426101343051,0.09428244534196202
5.754808,10.548414182426802,0.09396945490937007
5.757204000000001,10.575608766831214,0.09366972622934276
5.7595920000000005,10.601360328996652,0.09336576214580675
5.761968,10.624970020788812,0.093079049169783
5.764376,10.65086135258111,0.09277241679212384
5.7667600000000006,10.674890353253849,0.09247479878297736
5.769139999999999,10.701573080979065,0.09217009918229158
5.771544,10.726673016838443,0.09186487545530209
5.773931999999999,10.750702017511184,0.09156890160832637
5.776307999999999,10.77873521967676,0.09124957274670131
5.778704,10.810120997029111,0.09090198530392667
5.781092,10.839923982515625,0.09055270835334472
5.783472000000001,10.8686560328155,0.0902127938522962
5.785875999999999,10.895525751995818,0.08988174229680115
5.788264000000001,10.92039337042972,0.08956561902965851
5.790644,10.942607261811148,0.08925708792424301
5.79304,10.964681383565713,0.08895508619226006
5.795431999999999,10.981820138267667,0.08868173204142282
5.797812,10.992812821103513,0.08844619894192066
5.800216,11.003665734312497,0.08821482416048029
5.802604,11.009583280468869,0.08801072541337342
5.804984,11.016292222558159,0.08780751199158023
5.807388,11.026213970207365,0.08758265503168328
5.809776,11.039348523416487,0.08733576396732166
5.812156000000001,11.05183145031955,0.08708517078039126
