Time,Force,Position
6.613192000000001,0.0007147917162865385,0.0
6.6155800000000005,0.000839870148952539,0.0
6.617959999999999,0.001616574887676439,0.0
6.620356,0.0021137403726799184,0.0
6.622744,0.0021137403726799184,0.0
6.6251240000000005,0.0021137403726799184,0.0
6.62752,0.0021137403726799184,0.0
6.629908,0.0021137403726799184,0.0
6.6322920000000005,0.002471136230823188,0.0
6.634688,0.0021137403726799184,0.0
6.637072000000001,0.0017563445145366491,0.0
6.639468,0.0022535099995401285,0.0
6.641868,0.0076860425371556304,0.0
6.644252000000001,0.015260445448048193,0.0
6.646631999999999,0.025907884291996135,0.0
6.649031999999999,0.03920905018841883,0.0
6.651420000000001,0.052649985711701736,0.0
6.6538,0.06674254754104254,0.0
6.656196,0.08083510937038335,0.0
6.65858,0.09879210306569766,0.0
6.660976000000001,0.11181372970839994,0.0
6.663372,0.12335980347807726,0.0
6.66576,0.1314607542623617,0.0
6.66814,0.14091217948700513,0.0
6.6705440000000005,0.15472520206262552,0.0
6.672928,0.1668156631455495,0.0
6.675308,0.17811472829555533,0.0
6.677715999999999,0.18834285825892264,0.0
6.6801,0.2031489594167587,0.0
6.682480000000001,0.2181726868058778,0.0
6.684883999999999,0.23198570938149818,0.0
6.687271999999999,0.24651227128561384,0.0
6.689652,0.2520992646442838,0.0
6.692048000000001,0.2544734524430381,0.0
6.6944360000000005,0.25428646098793467,0.0
6.696815999999999,0.24665014505460484,0.0
6.69922,0.23831498098697385,0.0
6.701604000000001,0.227885168374309,0.0
6.703983999999999,0.21610488132128514,0.0
6.70638,0.19814788762597085,0.0
6.708768,0.1890213276254218,0.0
6.711151999999999,0.17966245019939545,0.0
6.713548,0.17388846538562214,0.0
6.715932,0.16746285426579094,0.0
6.718312,0.15731258090684647,0.0
6.720712,0.14888486904059842,0.0
6.7231,0.14096901385354807,0.0
6.72548,0.13305315866649772,0.0
6.727875999999999,0.1178896616505184,0.0
6.730268,0.10286593426139928,0.0
6.732648,0.0890529116857789,0.0
6.735043999999999,0.07402918429665978,0.0
6.737428,0.06300965840037434,0.0
6.739812,0.05306106769072744,0.0
6.742208000000001,0.04260062030188285,0.0
6.7445960000000005,0.036935770338790086,0.0
6.746988000000001,0.03182999888313815,0.0
6.749384,0.028167249666462228,0.0
6.751772,0.025854974890145262,0.0
6.754152,0.025854974890145262,0.0
6.756548,0.02195990824799207,0.0
6.758935999999999,0.019647633471675103,0.0
6.76132,0.016543962762440023,0.0
6.763716,0.01302098317262431,0.0
6.766104,0.00935823395594839,0.0
6.768484,0.00569548473927247,0.0
6.770888,0.0023122747763169695,0.0
6.773276,0.0,0.0
6.775656000000001,0.0,0.0
6.778056,0.0,0.0
6.78044,0.00031017402990011827,0.0
6.782824000000001,0.00031017402990011827,0.0
6.785227999999999,0.0014117439927183468,0.0
6.787616000000001,0.0014117439927183466,0.0
6.789996,0.0014117439927183466,0.0
6.792392,0.0014117439927183468,0.0
6.79478,0.002653083582396786,0.0
6.797160000000001,0.005756754291631866,0.0
6.799556,0.013656022426618758,0.0
6.801944,0.02104343388240796,0.0
6.804328000000001,0.030432946084614013,0.0
6.806724,0.04010199754054049,0.0
6.809112,0.04669801306341158,0.0
6.811492,0.05329402858628267,0.0
6.813888,0.06016958336287418,0.0
6.816275999999999,0.06890746925902233,0.0
6.818672,0.07257021847569825,0.0
6.821068,0.08009739955834766,0.0
6.8234520000000005,0.08776435026785728,0.0
6.825831999999999,0.09636246653714522,0.0
6.828228,0.10492994803025348,0.0
6.830616,0.1159494739265389,0.0
6.8329960000000005,0.12493626430022779,0.0
6.835396,0.1367471861294313,0.0
6.83778,0.14697531609279862,0.0
6.840164000000001,0.16185927385505758,0.0
6.842568000000001,0.17657282721427653,0.0
6.844952,0.19021544538685703,0.0
6.847335999999999,0.1953378038945724,0.0
6.849732,0.2017634150144036,0.0
6.852116,0.2081890261342348,0.0
6.854500000000001,0.2151264939332637,0.0
6.856896,0.22727886803862501,0.0
6.859279999999999,0.24022263807690444,0.0
6.861676,0.25195570330168515,0.0
6.864071999999999,0.258893171100714,0.0
6.866460000000001,0.2710455452060753,0.0
6.86884,0.27640022113926793,0.0
6.871244,0.2826860626322389,0.0
6.873632,0.2837569978188774,0.0
6.876016000000001,0.2836172281920172,0.0
6.878412,0.279985113751521,0.0
6.880795999999999,0.2772841648708031,0.0
6.883176,0.27300042412424896,0.0
6.885576,0.26829737449711427,0.0
6.887963999999999,0.256145000391753,0.0
6.890344,0.2401901074428555,0.0
6.892740000000001,0.22344381856103993,0.0
6.895128000000001,0.21042219191833764,0.0
6.897507999999999,0.19660916934271724,0.0
6.899908000000001,0.18079404602068,0.0
6.902296000000001,0.16418752676572465,0.0
6.904675999999999,0.14543913713749226,0.0
6.907076000000001,0.12589935157634174,0.0
6.909464000000001,0.10729073157496954,0.0
6.911843999999999,0.09161537787979251,0.0
6.91424,0.07580025455775527,0.0
6.916628,0.06291839754191321,0.0
6.919023999999999,0.0489656053394326,0.0
6.921423999999999,0.039296553883506134,0.0
6.923812000000001,0.030558667987357978,0.0
6.926192,0.023171256531568776,0.0
6.928591999999999,0.015783845075779575,0.0
6.930980000000001,0.008256663993130162,0.0
6.93336,0.0027315836568976,0.0
6.935759999999999,0.0,0.0
6.938148000000001,0.0,0.0
6.940528,0.0,0.0
6.94292,0.0,0.0
6.945308,0.0,0.0
6.947684,0.0,0.0
6.950080000000001,0.0,0.0
6.952464,0.0,0.0
6.954859999999999,0.0,0.0
6.957256,0.0,0.0
6.959644,0.0,0.0
6.962024,0.0,0.0
6.964428000000001,0.0,0.0
6.966816000000001,0.0,0.0
6.969195999999999,0.0,0.0
6.971592,0.0,0.0
6.973976,0.0,0.0
6.976356,0.0,0.0
6.978751999999999,0.0,0.0
6.981140000000001,0.0,0.0
6.983536,0.0,0.0
6.985931999999999,0.0,0.0
6.988316,0.00408205809725655,0.0
6.9907,0.00523084988831793,0.0
6.993096,0.012525713545490074,0.0
6.99548,0.01982057720266222,0.0
6.99786,0.023623096046198347,0.0
7.000255999999999,0.0269590841809107,0.0
7.002643999999999,0.029082471644255065,0.0
7.005036,0.03641697369819338,0.0
7.007435999999999,0.053943283365711595,0.0
7.00982,0.09260306993867225,0.0
7.012200000000001,0.14550608744628968,0.009883265265609573
7.014608,0.20948675215689141,0.019556675558849608
7.016991999999999,0.28519669037653533,0.029074821984498737
7.019376,0.3712382058366193,0.038830721600335426
7.021780000000001,0.4761315582020085,0.04814107925654216
7.024164,0.6039281707937798,0.05678839345358927
7.026544,0.7465270928276487,0.06527433455765563
7.028944,0.8996445835570609,0.07384930227577202
7.031327999999999,1.0663064570868288,0.08244961648357531
7.033708,1.248235274909649,0.09102377259918905
7.036116000000001,1.441675740010228,0.09947251220228989
7.0385,1.6498259667542876,0.1078639968613644
7.0408800000000005,1.8596949632753055,0.11638665499572072
7.043284000000001,2.083248112223539,0.12491811927254694
7.045672000000001,2.3317066221445715,0.13325304226388265
7.048051999999999,2.6002767914705203,0.141354466464077
7.050448,2.885143306021525,0.149241591549725
7.052836,3.168243828967328,0.15707768016296844
7.055212,3.4434341842996883,0.16485043351706846
7.057620000000001,3.6928352349277147,0.172710056344749
7.060004,3.9273414283150254,0.17068457382981345
7.062387999999999,4.1509097441262135,0.16885918452558885
7.064784,4.359675750495303,0.1672623015429731
7.067168,4.556667157384978,0.1654341610117459
7.069552000000001,4.732060452518255,0.16405469830971237
7.071955999999999,4.881943982200918,0.1633313298873405
7.074344000000001,5.008644712403479,0.1629412980718498
7.076724,5.116818470924828,0.16266816415263083
7.0791200000000005,5.205441544406572,0.16253260580297435
7.081508,5.279728839155041,0.16240115733199056
7.083888000000001,5.340005220394332,0.16237386975431434
7.086284,5.389668589281592,0.16241623765991076
7.088672,5.433421995443958,0.162329210491635
7.091055999999999,5.467215911418221,0.16214840217348733
7.093452,5.478293558621205,0.162162548704851
7.095835999999999,5.465210018956066,0.1625061333650971
7.09822,5.436111569177461,0.16308585082139943
7.100616,5.406361493092798,0.16365157164449715
7.103003999999999,5.372607215515302,0.16431267085506807
7.105384,5.3449990098039155,0.1648209755980221
7.107780000000001,5.319253135212087,0.16528787584547958
7.110168000000001,5.296021218045871,0.16571276750598543
7.112547999999999,5.2803783949847425,0.16597332919492686
7.114944,5.273488149013957,0.16608169903083
7.117332,5.270787200133239,0.166179712762603
7.119727999999999,5.263987606103202,0.16648441977880046
7.122124,5.274460848828371,0.16645375895209033
7.124512,5.306118582002965,0.16595530077366255
7.126892000000001,5.354584517081811,0.16507478272224257
7.129288,5.400536494735042,0.16422995064557588
7.131676,5.440389622350407,0.16347840069100059
7.134056,5.4787997277267975,0.1627331521596526
7.136451999999999,5.513113083811734,0.1620383536862021
7.138839999999999,5.54291038172464,0.1614359489889008
7.14122,5.577083968182718,0.16076612812524788
7.143624,5.6154940735591055,0.16001908747088062
7.146007999999999,5.652646252293752,0.15935188259910357
7.148388,5.6920328492002925,0.1586864485745956
7.150784000000001,5.741662267264395,0.15783495631946715
7.1531720000000005,5.790080980514999,0.1570314625723586
7.155568,5.840082485631438,0.1562249063584687
7.157964000000001,5.889664681867297,0.15545971947026954
7.1603520000000005,5.941248978849572,0.1546816754427099
7.162731999999999,5.985151633928146,0.1540296024475116
7.165128,6.027518718969125,0.15334786351006655
7.167516,6.07994352957043,0.15238977234907783
7.1698960000000005,6.1202631878946185,0.15166314730623429
7.172292,6.1494088595014675,0.15116133952070823
7.17468,6.166449378831198,0.1508731051953298
7.1770640000000006,6.185771538161065,0.15052879846352799
7.17946,6.212403252342299,0.15007063804538506
7.181844000000001,6.244621959882202,0.14952866261595935
7.18424,6.285780235967552,0.14882634825192684
7.186635999999999,6.3261471161199845,0.14812634354266027
7.189024000000001,6.360927002913745,0.14751822081028457
7.191404,6.398128299334504,0.14684922707002304
7.193803999999999,6.445806630196172,0.14593079360594685
7.196188,6.4862226280347155,0.1450810314733031
7.198568000000001,6.515092552103582,0.14439524752547928
7.200971999999999,6.539446418000417,0.14376618200441418
7.203360000000001,6.559656312777557,0.1432203626760829
7.20574,6.5802855164352785,0.14265476771289437
7.208136,6.595095409308853,0.14215315938126252
7.21052,6.608042971062871,0.14167694774483777
7.2129,6.620012145428868,0.14125833069883365
7.215307999999999,6.625788026100509,0.1409989063683121
7.217692,6.6392927705041,0.14061509757780666
7.220071999999999,6.649212622295435,0.14027775555771724
7.222468,6.654988502967079,0.1400158841638674
7.224856,6.658063434758003,0.1398313426654113
7.227236,6.654992294682818,0.13976283254251934
7.229632,6.647172779010122,0.13972578288575738
7.232016000000001,6.628598585500667,0.13982334979442199
7.234412,6.611374866431573,0.13988247550684563
7.236812,6.595594169601454,0.139941113637071
7.239196000000001,6.578323228704115,0.1400450702117127
7.24158,6.549970848888055,0.14033887132812492
7.243976000000001,6.526274296870884,0.1405649431497804
7.246364000000001,6.5038809974658305,0.14080034093373486
7.248743999999999,6.487027469591204,0.14100328748414595
7.25114,6.470593250597157,0.1411832879198408
7.253528,6.448060181565244,0.14143286060620014
7.255908000000001,6.424036868466111,0.14172801399010365
7.258308,6.404389843912149,0.14197164496769393
7.260696,6.383811653798408,0.1422316992082005
7.263076000000001,6.367424656632606,0.142368870175336
7.265472,6.347220449429072,0.1425191621328832
7.26786,6.32580553741204,0.1427023776244362
7.27024,6.310908784313458,0.1427928095758282
7.272647999999999,6.299596923827126,0.14283751373944328
7.275032,6.295641840020405,0.14273561101945634
7.277416,6.290987908079384,0.1426758525831877
7.279812000000001,6.2898716469223706,0.14261510813197342
7.2822,6.294434926922644,0.14251033182012435
7.284584,6.301000307669337,0.14236989258604657
7.286980000000001,6.307193601363691,0.14220967558970535
7.289368,6.315388995804461,0.1420122716699192
7.291747999999999,6.320092045431595,0.1418988004486957
7.294144,6.327448822111206,0.14175275199906265
7.296532,6.336994690992335,0.14151984602815054
7.298927999999999,6.348822199873603,0.14123561152771222
7.301324,6.365957162859819,0.14088668852692765
7.303712,6.380950255472758,0.1405783770430103
7.306092,6.3935219384587,0.14033231065849025
7.308496000000001,6.410237592564336,0.14000722403355792
7.310884000000001,6.429746743349306,0.13964827543549901
7.313263999999999,6.447625880440198,0.13934487195020945
7.31566,6.472162946076398,0.13894225695525492
7.318048,6.50163537876521,0.13846801429784536
7.320431999999999,6.530363637349346,0.1379583171553136
7.322836,6.5517823410821165,0.13754396681583833
7.325223999999999,6.574551519255247,0.1370940341671677
7.327604,6.598810941495597,0.13659938911350078
7.329999999999999,6.615388721832241,0.13618094360597727
7.332384,6.6286611488103535,0.13578708766912506
7.334767999999999,6.6435163676543025,0.1353867298087069
7.337164,6.663167183924003,0.13492069685544156
7.339552,6.683097539447423,0.13443659991794152
7.341936,6.703027894970845,0.13395459324184664
7.344332,6.7171842656804905,0.1335986809833573
7.34672,6.7312008667632774,0.13325339942062508
7.349100000000001,6.742843280047311,0.13292161298364916
7.351496,6.7583501251973175,0.13253238431625952
7.353884,6.774416048854764,0.1321114555661289
7.356264,6.788619641392655,0.1317171345081174
7.358659999999999,6.7966771620644355,0.13142693560975097
7.361047999999999,6.805805617922853,0.13111670501444517
7.363428,6.808695454116544,0.130873962549296
7.365828,6.799712455458593,0.1308105161122169
7.368212000000001,6.789611299785761,0.13080920186443115
7.370596,6.785608994150796,0.1307498474570332
7.372992000000001,6.780815292582914,0.13069406787724386
7.375380000000001,6.77737206545539,0.13060351311726687
7.377776,6.777885817992458,0.13049474976130804
7.380172000000001,6.783846794261334,0.1303261226356956
7.382560000000001,6.785431481985039,0.13019838489717747
7.384944,6.778356140417019,0.13018765050575892
7.387339999999999,6.774214065155194,0.13013519369316848
7.389724,6.767697802094615,0.13009314181455423
7.392107999999999,6.764022257541614,0.12997445536922414
7.394504,6.759275777801974,0.12987472560119373
7.396892,6.755180924368393,0.1297790519302896
7.399272000000001,6.75257631500203,0.12964179063006467
7.401668,6.753556598247921,0.12946920500776915
7.404056,6.7582615437329245,0.12925495095958187
7.406440000000001,6.767250229964483,0.12896798177818183
7.408836,6.776099146569181,0.12868870086138612
7.411224,6.788113646905551,0.12839602431177688
7.413608000000001,6.809998881347146,0.1279639048785825
7.416004,6.833374359855959,0.12749163098231275
7.418392,6.855167046498937,0.12703030896602888
7.420775999999999,6.873467388328278,0.1266363160666384
7.423172,6.893490291650316,0.12623565343658663
7.42556,6.910068071986961,0.1258618711072208
7.427943999999999,6.924364212323469,0.125534146494512
7.43034,6.945038741951564,0.12514329783115316
7.432728,6.972371200124969,0.12467040266145862
7.435108,6.9963510831115965,0.12425916155035768
7.437508,7.024847024270256,0.12380667880610419
7.439896,7.054646218041031,0.12336688725488618
7.442279999999999,7.086167973304504,0.12291666390765509
7.444676,7.1204832252473125,0.12244040888167432
7.447064,7.1533082331229,0.12200808408994884
7.449444000000001,7.1816171828264554,0.1216215786963708
7.45184,7.205921931037178,0.12129202260045394
7.454224000000001,7.2270138736879845,0.12101408906714517
7.456615999999999,7.249735830032871,0.12069318594032984
7.459012,7.274087800071837,0.12033063763708436
7.461396,7.294854877498549,0.12000252365005624
7.463792000000001,7.3165531204850405,0.11966839336590246
7.466195999999999,7.337180428284893,0.11935172760300397
7.46858,7.365955908697273,0.11893016453250292
7.470960000000001,7.388585317243543,0.1185921546372323
7.473356,7.413868452842286,0.11823382446661038
7.475739999999999,7.438360192508113,0.11787798190818076
7.47812,7.460337974748325,0.11753964171896616
7.480524,7.480453425868979,0.11722057825438163
7.482912,7.507274027363185,0.11679956061139003
7.485292,7.531161362551196,0.11641414915280282
7.487696000000001,7.55481638031373,0.11600740205412544
7.49008,7.5731639439713145,0.1156366636277388
7.49246,7.5859245142702285,0.11531652913714768
7.494864000000001,7.5969625230764475,0.11500657904348748
7.497248,7.610794028562,0.11467290385092226
7.499628,7.6250448429281334,0.11431985040873674
7.502032000000001,7.645581498787239,0.11388829848468739
7.50442,7.666350472071821,0.11348499422632695
7.506799999999999,7.684558266102545,0.11313242548314383
7.509196,7.70248652087955,0.1127937681624613
7.511579999999999,7.719623379723636,0.11245928887943887
7.513964,7.736900008194582,0.11211895228192302
7.516368000000001,7.750451974426415,0.11181379182246264
7.518752,7.76363185360591,0.11148838760022725
7.521132000000001,7.77429777535979,0.11117297647708348
7.523535999999999,7.787664645994388,0.11080573147568695
7.52592,7.798098250322791,0.11046792421872566
7.528300000000001,7.809742559464694,0.11011091102375396
7.530703999999999,7.816171962300263,0.10981991734220437
7.533092000000001,7.824603465882249,0.10950916361990072
7.535471999999999,7.831404955770156,0.10923811130784228
7.537868,7.844584834949652,0.10892271576534793
7.540252,7.861629145995121,0.10857156473843757
7.542632,7.880675557787006,0.10820028382903364
7.545027999999999,7.8938554369665015,0.10788419996115844
7.547415999999999,7.906755776892275,0.1075813549563751
7.549796,7.9136498145787995,0.10734256682423975
7.552192000000001,7.915888024466433,0.10713876954059383
7.55458,7.919476708794424,0.10690952885158347
7.556976,7.922925623495555,0.10668659420934205
7.55938,7.922742423756192,0.10652197988059894
7.561763999999999,7.924281785509524,0.10635007902613179
7.564144,7.926333003942053,0.1061906051722563
7.566548,7.932620741292894,0.10601510395763555
7.568936,7.942353601629127,0.10582457200810945
7.571316,7.947243642711366,0.10571133782699271
7.573711999999999,7.956649741965635,0.10557054210620392
7.576099999999999,7.9657763019661845,0.10544290227946068
7.57848,7.973831926780094,0.10532819576789934
7.580884,7.9778833501011714,0.1052528149643192
7.583267999999999,7.984076643795525,0.10515218832581866
7.585648,7.9884076063703215,0.10506555364566729
7.588052,7.995532065624454,0.1049603180921201
7.590435999999999,8.001585589691947,0.10486793782029684
7.592816,8.016438912678026,0.10470016782231757
7.595211999999999,8.032083631597025,0.10453244333677907
7.597600000000001,8.048240207195219,0.10437614223048557
7.599979999999999,8.07333635133886,0.10414046676059119
7.602376,8.097641099549584,0.10390670367552937
7.60476,8.124227487760443,0.10364422623134517
7.60714,8.15472552966552,0.10331549354496461
7.609535999999999,8.18256984451812,0.10300089049428907
7.611923999999999,8.20589810119869,0.10271107734742707
7.61432,8.23057683231962,0.10240066334144048
7.616715999999999,8.253021145268656,0.10208642723359444
7.619103999999999,8.277886867844689,0.10173542743729368
7.621484,8.297956992994969,0.10142148044694069
7.623888,8.31830665739897,0.10109761900759573
7.626271999999999,8.339587487362751,0.1007676314258824
7.628652,8.364081122886445,0.10040215633389388
7.631056,8.385641492103945,0.1000617251052392
7.633444,8.405619069455609,0.09972233892795357
7.635824,8.418938718261963,0.09943114052288028
7.638224,8.435610942255094,0.09910150060903813
7.640607999999999,8.44469407214314,0.09882536968870838
7.642988,8.454476050165486,0.09852186252187384
7.645384000000001,8.462954775575714,0.0982061882705691
7.647772000000001,8.46277347169422,0.09795421678081845
7.650151999999999,8.465385664492059,0.09768676567381346
7.652551999999999,8.467997857289896,0.0974209254127774
7.654940000000001,8.470190741207155,0.09717294814837307
7.657319999999999,8.474245956243971,0.09691453704989678
7.659716,8.482445142400481,0.09661776696297078
7.662104,8.49078409818385,0.09631839471228626
7.664484000000001,8.502568176952613,0.0960108770928245
7.666887999999999,8.517425291654428,0.09567910760967159
7.669276000000001,8.535634981543023,0.09531031670127284
7.671656,8.553844671431618,0.09494358069750315
7.674055999999999,8.571402735014154,0.09457107734282626
7.67644,8.58896079859669,0.0942005965049901
