Time,Force,Position
6.26862,0.014087807280445298,0.0
6.270999999999999,0.01892529113420052,0.0
6.273396,0.025764875734372597,0.0
6.275784,0.030747464615227767,0.0
6.278164,0.03758704921539984,0.0
6.280556000000001,0.04591687788279108,0.0
6.28294,0.050242505057348605,0.0
6.2853200000000005,0.05736162891124111,0.0
6.287716,0.06755378869818898,0.0
6.290100000000001,0.08081898441819223,0.0
6.292479999999999,0.09436371939191592,0.0
6.294896,0.10776868473877937,0.0
6.297280000000001,0.12131341971250306,0.0
6.299659999999999,0.13271628431294968,0.0
6.302064,0.14183750891325902,0.0
6.304447999999999,0.1552424742601225,0.0
6.306827999999999,0.16529486442021016,0.0
6.309232,0.18014285200604963,0.0
6.31162,0.18735985905879893,0.0
6.314,0.18936195980521575,0.0
6.3163920000000005,0.18600938461843997,0.0
6.31878,0.18787171573799663,0.0
6.321159999999999,0.1837277446183027,0.0
6.323563999999999,0.18116656536444506,0.0
6.325951999999999,0.17688282461789093,0.0
6.328327999999999,0.17455396278951052,0.0
6.330736,0.17837117282724085,0.0
6.333119999999999,0.17711324618549895,0.0
6.3355,0.1691973909984486,0.0
6.337904,0.15593219527844532,0.0
6.340292,0.14480353453147937,0.0
6.342672,0.1313985691846159,0.0
6.345076000000001,0.11933874287787166,0.0
6.34746,0.10848962138462614,0.0
6.349843999999999,0.10206401026479496,0.0
6.352248,0.09028372321177112,0.0
6.3546320000000005,0.08506881690543869,0.0
6.357011999999999,0.07226481649401946,0.0
6.359416,0.07240458612087969,0.0
6.361803999999999,0.07003039832212535,0.0
6.364184,0.07966881500187213,0.0
6.366579999999999,0.08516326056192498,0.0
6.368964,0.09652423873436819,0.0
6.371347999999999,0.10430032429455831,0.0
6.373744,0.11486990653408341,0.0
6.376128,0.11640737242954571,0.0
6.378508,0.11952763019084424,0.0
6.380912,0.12055323940710887,0.0
6.3833,0.12753792903438088,0.0
6.385680000000001,0.13786985844818897,0.0
6.388083999999999,0.13949987214226836,0.0
6.390468,0.14661899599616085,0.0
6.392847999999999,0.14918017525001853,0.0
6.395239999999999,0.15760788711626655,0.0
6.397627999999999,0.16189162786282066,0.0
6.400012,0.16445280711667837,0.0
6.402407999999999,0.16273024562398192,0.0
6.404795999999999,0.16259047599712173,0.0
6.407176,0.1546799562103111,0.0
6.409571999999999,0.14942316347597528,0.0
6.4119600000000005,0.13629773738283224,0.0
6.414356,0.12410347684946754,0.0
6.416752000000001,0.11004688519654615,0.0
6.4191400000000005,0.09878379022295974,0.0
6.421519999999999,0.0856583641298167,0.0
6.423916,0.07881344412940489,0.0
6.4263,0.06945456670337852,0.0
6.42868,0.06898803599455475,0.0
6.431084,0.06656662636755728,0.0
6.433472,0.060792641553783985,0.0
6.435855999999999,0.06344636860625875,0.0
6.438252,0.06167658528531917,0.0
6.44064,0.06512170827071204,0.0
6.443020000000001,0.06055842827043748,0.0
6.445423999999999,0.060139119389856846,0.0
6.447811999999999,0.06116283274825223,0.0
6.450192,0.06325748129328614,0.0
6.452588,0.06763376983845731,0.0
6.454976,0.07405404555804876,0.0
6.457355999999999,0.0804743212776402,0.0
6.459759999999999,0.08875692811678829,0.0
6.462147999999999,0.09717930458279658,0.0
6.464528,0.10667261623544341,0.0
6.466932,0.11616592788809024,0.0
6.469315999999999,0.12551946991387686,0.0
6.4717,0.13352787289954426,0.0
6.474095999999999,0.13818370069843589,0.0
6.4764800000000005,0.13967394476565506,0.0
6.478859999999999,0.13953417513879482,0.0
6.481268,0.14540070775118516,0.0
6.483651999999999,0.14912536999029846,0.0
6.486032,0.15448004592349113,0.0
6.488427999999999,0.15876378667004526,0.0
6.490816000000001,0.16640010260337512,0.0
6.4932,0.16989244741701115,0.0
6.495595999999999,0.1799501729773386,0.0
6.49798,0.19000789853766595,0.0
6.500363999999999,0.196992588164938,0.0
6.502768,0.20583960891176667,0.0
6.505156,0.21561779521837365,0.0
6.507536,0.2203208448455084,0.0
6.509931999999999,0.22581529040556125,0.0
6.512319999999999,0.22995926152525514,0.0
6.5147,0.23410323264494903,0.0
6.517096,0.23931813895128146,0.0
6.519484,0.24183209637689607,0.0
6.521863999999999,0.24341488824273225,0.0
6.52426,0.24150533529493248,0.0
6.526648,0.2388043864142146,0.0
6.529028,0.2317271489883255,0.0
6.531428,0.22558107712221473,0.0
6.533811999999999,0.22087802749507998,0.0
6.536208,0.211099841188473,0.0
6.5386120000000005,0.202764677120842,0.0
6.541,0.19922511047896282,0.0
6.543379999999999,0.18846853678433437,0.0
6.545783999999999,0.1777119630897059,0.0
6.548171999999999,0.17081982126105094,0.0
6.550552,0.15964393868584187,0.0
6.552948000000001,0.14581432905815805,0.0
6.5553360000000005,0.13440612905747168,0.0
6.557715999999999,0.1209958283103685,0.0
6.56012,0.10800483644384594,0.0
6.562507999999999,0.09436755367150519,0.0
6.564888,0.07979910533938614,0.0
6.567292,0.06871766642066335,0.0
6.569675999999999,0.0627113641814128,0.0
6.5720600000000005,0.05777599712880075,0.0
6.57446,0.05698460119588264,0.0
6.576848,0.05670506194216222,0.0
6.5792280000000005,0.054563191568885165,0.0
6.581628,0.04990736376999356,0.0
6.584012,0.056332974889824736,0.0
6.586396000000001,0.059173693397402846,0.0
6.588792,0.055356483359672505,0.0
6.59118,0.05554347481477587,0.0
6.593564000000001,0.05479930071010092,0.0
6.59596,0.05033046436631268,0.0
6.598348,0.05028513839593877,0.0
6.600728,0.051403295410820456,0.0
6.603132,0.055779583955991634,0.0
6.605516,0.06285492552401148,0.0
6.607896,0.07784233056334318,0.0
6.6103000000000005,0.10557738706987273,0.0
6.612688,0.14788053973515333,0.009193979706317596
6.615067999999999,0.20717853358642224,0.017942434282368632
6.617464,0.2803476713200104,0.026247980766555823
6.619852,0.3670158658835803,0.034438875752162104
6.622232,0.460850053955918,0.04291661846934387
6.624636000000001,0.5679490855748909,0.05152345691597017
6.6270240000000005,0.6991148604055013,0.059681354640058686
6.629403999999999,0.8429410743049324,0.0678611017991206
6.6318,0.9861118701825671,0.07625433415557498
6.634188,1.1412442569947214,0.08479137143465532
6.6365680000000005,1.3175101207123179,0.09322711531504507
6.638971999999999,1.5094622376035471,0.10153551774832105
6.641360000000001,1.719010160616209,0.1097079613535856
6.643739999999999,1.941777601205132,0.11787961842826383
6.646144,2.1698487041832664,0.12621829291068165
6.648531999999999,2.410300706976501,0.134620974992897
6.650912,2.6690945858537116,0.1427910287989109
6.653307999999999,2.9423678048067954,0.15076104181681776
6.6557,3.210615004766519,0.15870766359787714
6.65808,3.4627566426720295,0.16674827448035662
6.660475999999999,3.7008892629262298,0.16555450370061547
6.662863999999999,3.9193786503422063,0.1648422243872408
6.665244,4.119061526823252,0.16464042689824246
6.6676400000000005,4.304453950541398,0.16459218563426517
6.670024,4.481469675937277,0.16423757818214188
6.672404,4.643917305174406,0.16376168745012942
6.674804,4.775919801908309,0.1638849836839052
6.677192,4.896984421066087,0.1639658540707614
6.679572,5.011347681566052,0.1638547712732049
6.681964000000001,5.115611682251054,0.1635998835530225
6.6843520000000005,5.203537803456366,0.16342575972438106
6.686731999999999,5.268420894808436,0.16353810421706916
6.689136,5.313566309665797,0.1638738320274159
6.691523999999999,5.349868495492066,0.1641671511372653
6.693904,5.383380976354739,0.16418711470554984
6.696308,5.411869334081923,0.16397933515026927
6.698691999999999,5.412751381955589,0.1641679193949577
6.7010760000000005,5.395523871170754,0.1646095645937975
6.703472,5.374851237400527,0.16510747689238714
6.705855999999999,5.3591139706829125,0.1654900845374566
6.708235999999999,5.344028330271357,0.16587019813518136
6.71064,5.336252244711167,0.1661005829082082
6.713028,5.334994318069425,0.16619400420236688
6.715408,5.337553601465413,0.1662518822120898
6.717812,5.34663104377985,0.16617661441657086
6.720196,5.3596654657588765,0.16605812130939984
6.722576,5.382663169641745,0.16574479262270156
6.72498,5.40724366539045,0.16541794833477605
6.727368,5.43447788819163,0.16504565855958248
6.729747999999999,5.464086298791561,0.16464983949029086
6.732151999999999,5.494765644578134,0.1642307548409493
6.734539999999999,5.533872702230954,0.1635832948465883
6.73692,5.5788462924961655,0.1627989243708651
6.7393160000000005,5.619675911641681,0.16212037413982594
6.741704,5.6590152867199786,0.16151903831305417
6.744083999999999,5.692627898812747,0.16105600573962278
6.746487999999999,5.7342489138911805,0.1603949156976697
6.748872,5.777732260089172,0.15968987253518205
6.751251999999999,5.825219807779998,0.15889728023997704
6.753655999999999,5.881367384762549,0.15795590961655484
6.756043999999999,5.940028919170714,0.15699899441532036
6.758424,5.9920325250335695,0.1561848930720015
6.760828,6.040311468657313,0.15544872262694673
6.763216,6.0895687996690775,0.15465719740966646
6.765599999999999,6.131237036575755,0.15402678544880402
6.767996,6.171602020870317,0.15340060736612443
6.770379999999999,6.2090809606869275,0.15279120688560374
6.7727640000000005,6.2413922160254485,0.15225031114833157
6.77516,6.270770205057775,0.1517673310120608
6.777544000000001,6.297774006291346,0.1513078801698881
6.779923999999999,6.324265950845719,0.1508438699234746
6.782328,6.348523477228198,0.15039850759409676
6.784716,6.367194010252008,0.15004538635388912
6.787096,6.388565492156536,0.14960683745392023
6.7895,6.405048828836694,0.14921757857253537
6.791888,6.416876337717961,0.1489033733071511
6.794268000000001,6.427121054733392,0.14860362265771876
6.796664,6.435643210256127,0.1483243049927211
6.799052,6.441232099472666,0.1481022233826221
6.801432,6.431083721971589,0.14817631277686397
6.803827999999999,6.412182767380173,0.1483670442449889
6.806215999999999,6.390116229057082,0.14858887617934216
6.808596,6.367258294801074,0.14881859025028876
6.810992000000001,6.344260590918205,0.14905133167164117
6.81338,6.321542426289058,0.14926643201522238
6.815764,6.298312404980712,0.14946687822309188
6.818160000000001,6.274523305164926,0.14970196552579423
6.8205480000000005,6.252177227588116,0.14993714346374287
6.822927999999999,6.234394430011581,0.15005619684209417
6.825332,6.222757704301155,0.15004720039403363
6.827719999999999,6.201529783739227,0.15020734417575968
6.8301,6.176949287990523,0.15044750921413394
6.832495999999999,6.157955785600487,0.15059727155388528
6.834884000000001,6.144549276569123,0.1506531416290693
6.837263999999999,6.136497443470951,0.15059170281733728
6.83966,6.130867019999775,0.15046620369742963
6.842048,6.123886122088241,0.15038113949686407
6.844431999999999,6.120350347162102,0.15025474831064073
6.846828,6.116162945929903,0.15012579433933373
6.849212,6.123755831750728,0.149738793628812
6.851596000000001,6.13865827242292,0.14924041522028086
6.853992,6.155375822386426,0.14874908416247629
6.85638,6.172605229029129,0.14826705194706385
6.85876,6.189974405298691,0.14778339372910246
6.8611640000000005,6.2049693937695,0.14731668715311852
6.863552,6.2176827422401715,0.1469067763153128
6.865936,6.228114450710706,0.14655012453217328
6.8683320000000005,6.2422708214203535,0.1461333233719802
6.87072,6.253773465077526,0.14575870721678014
6.873096,6.253962352390499,0.1455717161312148
6.875492,6.267047787913508,0.14518410728621176
6.877879999999999,6.285300907914606,0.14473390039168002
6.880276,6.301831466423009,0.14430913332990686
6.882672,6.309050369333626,0.14403394051946383
6.8850560000000005,6.310914596311052,0.14387525404562687
6.887435999999999,6.31580463739329,0.14370311290165397
6.88984,6.324000031834061,0.14349977963650107
6.892227999999999,6.332754504782272,0.14326408201613577
6.894608,6.343790617730621,0.14297645409527648
6.897012,6.3485408891859985,0.1428174456610047
6.8994,6.352080455827878,0.1426900314702449
6.9017800000000005,6.364699360642063,0.14240126184185284
6.904176,6.381369688777325,0.14200091613784122
6.906564,6.389519757247722,0.14172640797135982
6.908944,6.400835409449792,0.1414314215212274
6.911339999999999,6.4125231487041985,0.1411545172450757
6.913727999999999,6.428354859078298,0.14079661074737243
6.916112,6.43943819385489,0.1404699841962984
6.918507999999999,6.449171054191123,0.1401832950731154
6.920892,6.46686509568478,0.13979891430131053
6.923271999999999,6.481765640499103,0.1394612652284222
6.925663999999999,6.488937321581477,0.1392444095190355
6.928051999999999,6.495038067477215,0.1390497615780578
6.930427999999999,6.502721605238788,0.1388433827173889
6.932828000000001,6.512127704493057,0.1386176401180039
6.935212,6.517809141508213,0.13844589151253076
6.937592,6.522047556284393,0.13827646931987925
6.939988,6.523352704754379,0.13815605156869296
6.942375999999999,6.523586918037726,0.13805789967448606
6.944756,6.523262052813632,0.13799276235239744
6.947151999999999,6.518793216469843,0.13800580670919332
6.949539999999999,6.507666451580747,0.13811803158040228
6.951919999999999,6.490905471504737,0.13835174312787085
6.954316,6.486389413332707,0.1384081392778366
6.9567,6.482804520720453,0.13845121260074933
6.959083999999999,6.484714073668254,0.13838161647570107
6.961496,6.490488058482026,0.13825520875471614
6.963884,6.502360893333668,0.1380673162182264
6.966264000000001,6.512231627438892,0.13791113112928421
6.96866,6.520379800051418,0.13777323400977215
6.971048,6.524803310424833,0.13768448936841737
6.973428,6.54058779897069,0.13739857397392083
6.975823999999999,6.556651826770268,0.1370972504346211
6.978211999999999,6.574997494569983,0.13674803130471963
6.980592,6.594553867183198,0.13637225315366652
6.982988000000001,6.621047707595441,0.135892547892813
6.9853760000000005,6.649543648754101,0.13538470172206904
6.987755999999999,6.680693316965235,0.1348507781821905
6.990152,6.710632280362872,0.1343465190858265
6.99254,6.744343127827864,0.13375499846823072
6.9949200000000005,6.7852709823456046,0.133044319179413
6.997332,6.830854664662238,0.13228165788355206
6.99972,6.881653253285203,0.13143300239532402
7.0021,6.924350891123884,0.13068462573707318
7.004516000000001,6.963463636350312,0.12997463043971785
7.0069,6.999503345643683,0.12932444506761612
7.009295999999999,7.028885126391747,0.1287642878961219
7.011696000000001,7.057195971953171,0.12823103720523746
7.01408,7.09072172382093,0.12761673318649475
7.01646,7.124247475688689,0.12700599916261354
7.018864000000001,7.163360220915116,0.12633556003323046
7.0212520000000005,7.1952559590887954,0.12578379268729256
7.023631999999999,7.227663553941672,0.12524514383240326
7.026028,7.261142083981186,0.12469475745429476
7.028416,7.29541200995362,0.12414635782967354
7.030799999999999,7.324606799246581,0.1236757849536789
7.033204,7.351008091860207,0.12323704091744123
7.035588000000001,7.375035196675078,0.12280818831639163
7.037972,7.397479509624112,0.12238355369738979
7.040376,7.418293808879068,0.12200764609716434
7.04276,7.434172741081412,0.1216963958633463
7.0451440000000005,7.444604449551946,0.12143632681824154
7.04754,7.4496814820892885,0.12125823878976996
7.049928,7.45419943611919,0.12110702792229117
7.052308,7.462721591641923,0.1209047007090397
7.054703999999999,7.469101876791381,0.1207352202164314
7.057088,7.476413327500616,0.12055563563896099
7.059467999999999,7.478557093731762,0.12041164828953378
7.061864,7.476836428096937,0.12031230749309227
7.064252,7.475395301715829,0.12019937542850281
7.066632,7.467436016416273,0.12015049722192253
7.0690360000000005,7.460407896676497,0.12009250196818583
7.071424,7.451005589137965,0.12004124207683178
7.073803999999999,7.437459310479741,0.12004699914719051
7.076207999999999,7.421910931075098,0.12007732848521353
7.078592,7.405710925364399,0.12010290433425631
7.080971999999999,7.390953941892676,0.12013081724879039
7.083376,7.380573246966125,0.12012637615632911
7.085763999999999,7.3725667398383266,0.12011557173133187
7.088139999999999,7.362697901590971,0.1201227186392507
7.090548,7.352689293716756,0.12013689463222066
7.092931999999999,7.345334412895015,0.12013078375953347
7.095312,7.341471876886911,0.12006327980084741
7.097716,7.341753311998501,0.1199391307487113
7.100104,7.338821941550174,0.11986262397819053
7.1024840000000005,7.337101275915346,0.11976336483679705
7.104887999999999,7.339245042146492,0.11962198824723648
7.107272,7.34562532729595,0.11945669661469194
7.1096520000000005,7.354659339497882,0.11927231161118894
7.112055999999999,7.362342877259455,0.11911777631694129
7.114444000000001,7.376824113193198,0.11888939674401464
7.116828,7.392516053940439,0.11863961194640128
7.11922,7.412863822486571,0.11834797993730996
7.121608,7.438007188458455,0.11800745520434315
7.123991999999999,7.463849402564639,0.11763473210272458
7.126388,7.490483012603741,0.11726033670166676
7.128776,7.516884305217369,0.1168625573876682
7.131155999999999,7.535836273352767,0.11653317180610182
7.133552,7.555347319995607,0.11617876380242197
7.13594,7.574998136265307,0.1158165858129635
7.13832,7.595999426975367,0.11542593700400551
7.140715999999999,7.614346990632952,0.11505390803718019
7.143103999999999,7.631483849477038,0.11470518677450078
7.145484,7.647969082015066,0.11435456668863575
7.147888,7.666735954553231,0.11396827202149432
7.150276,7.6875049278378125,0.11356165011973894
7.152656,7.704689008510142,0.11318330373470008
7.155056,7.718567735823937,0.11281793405475637
7.157444,7.729932505712119,0.11246463419893482
7.159827999999999,7.740925188547963,0.11209320329585752
7.162224,7.748053439517833,0.11176247512676961
7.164607999999999,7.754669833808506,0.11142138076427326
7.1669920000000005,7.757561565860065,0.11111221907939824
7.169388,7.757147944553092,0.11081521930989342
7.171776,7.7540333743654015,0.11057125317670127
7.1741600000000005,7.751058573804571,0.11032093889926263
7.176563999999999,7.748735399549798,0.11007633970533336
7.178948,7.7514873619744975,0.10977460859267818
7.181328000000001,7.754379094026057,0.10946782826884376
7.183724,7.761275027570451,0.10912033053650004
7.186112,7.77096445779418,0.10875340849753182
7.188496000000001,7.786520420630298,0.10833320654025787
7.190887999999999,7.80035382197372,0.10792028174356431
7.193275999999999,7.810974417757227,0.10754775420091701
7.19566,7.821455243913873,0.1071832981662757
7.1980640000000005,7.826860933391048,0.10687247616434363
7.200448,7.835060119547558,0.10654188279345121
7.202828,7.847915133502959,0.10617817827002932
7.205223999999999,7.859419673018,0.10583890613570593
7.207611999999999,7.87143606921224,0.10551169405810991
7.209992,7.881450364660062,0.10520391860221794
7.212396,7.888763711227168,0.10494693014967477
7.214784,7.897799619286968,0.10468282119593197
7.217164,7.9094892543992446,0.104405864381639
7.219559999999999,7.926393795817853,0.10407116801547722
7.221947999999999,7.945300437982879,0.10371900345888002
7.224328,7.963275914588126,0.10337486365195181
7.226723999999999,7.980040686379875,0.10305128807337662
7.229112000000001,7.994663587798347,0.10275405614301912
7.231491999999999,8.004490891791066,0.10249637296097469
7.233896,8.010313994290954,0.10227752914236946
7.236283999999999,8.010922190484505,0.10211548378329795
7.238664,8.014323883357394,0.10193458238490634
7.241059999999999,8.021590008096254,0.10172284911803144
7.243444,8.027645428021618,0.10152985317958103
7.245839999999999,8.03477178313362,0.10132323972036805
7.248244,8.037614397499064,0.10116606131721045
7.250631999999999,8.037383975931457,0.10104027731668938
7.253012,8.041297525483543,0.10087187935631133
7.255407999999999,8.04455944872957,0.100697603431954
7.257795999999999,8.047681602348739,0.10052851399158927
7.260175999999999,8.054156331154683,0.10031654715041817
7.262572,8.061981534400985,0.10008174469458873
7.264956,8.06780463690087,0.09986616712765566
7.267339999999999,8.069763307534782,0.09968141643895069
7.269736,8.06864894223564,0.0995267344311771
7.272124,8.066323872122998,0.0993897347644496
7.274504,8.065861133129912,0.09924132026287971
7.276899999999999,8.068052121189302,0.09908157372653545
7.279284,8.073036605928026,0.09890437533275442
7.281663999999999,8.080162961040028,0.09870407992007882
7.28406,8.08756885540575,0.09849156687863173
7.286443999999999,8.095114519398333,0.09827420850625074
7.288824,8.101729017831136,0.09806377456284174
7.291219999999999,8.107971429211602,0.09783559963787737
7.293607999999999,8.122222243577736,0.09754149733232106
7.295992,8.141827733877063,0.09719165089961405
