Time,Force,Position
11.65168,0.19346589159044814,0.0
11.65406,0.2021731427104166,0.0
11.656456000000002,0.21311481200227916,0.0
11.65884,0.22582626461508132,0.0
11.661236,0.23132071017513417,0.0
11.663632,0.24336595555152213,0.0
11.66602,0.25114204111171223,0.0
11.668396,0.25863858741818196,0.0
11.670792000000002,0.2545418381267312,0.0
11.673180000000002,0.25873303107466833,0.0
11.675576,0.24890951879768738,0.0
11.677972,0.24201927282690167,0.0
11.680356,0.22567760163147252,0.0
11.682736000000002,0.21678525491426992,0.0
11.68514,0.20216614521153722,0.0
11.687528,0.18698795700136367,0.0
11.689908,0.16656222158697087,0.0
11.692304,0.14986114841169135,0.0
11.694692,0.13423101042305038,0.0
11.697072000000002,0.12060297318082625,0.0
11.699476,0.10911680631187917,0.0
11.701864,0.09534899944279482,0.0
11.704244,0.08547826533757076,0.0
11.70664,0.07411728716512755,0.0
11.709028,0.06862284160507467,0.0
11.711412,0.06177792160466286,0.0
11.713808,0.05693510235066789,0.0
11.716196,0.05451369272367042,0.0
11.718576,0.05739973720162243,0.0
11.72098,0.051206443507268516,0.0
11.723368,0.05316132242544222,0.0
11.725748,0.0501808342910039,0.0
11.728152,0.05371850507501382,0.0
11.730536,0.04966708175393697,0.0
11.732916,0.047213031229052675,0.0
11.735312,0.047724887908250364,0.0
11.7377,0.051621960672110674,0.0
11.74008,0.05766090380924804,0.0
11.742476,0.0627686813866071,0.0
11.744864,0.06852808527002403,0.0
11.747244000000002,0.07614982027299763,0.0
11.749648,0.0829801593430531,0.0
11.752036,0.08391132490283142,0.0
11.754416,0.08912623120916388,0.0
11.75682,0.09103578415696367,0.0
11.759204,0.09122277561206703,0.0
11.761584,0.09047860150739206,0.0
11.76398,0.09303978076124975,0.0
11.766368,0.09816213926896514,0.0
11.768748000000002,0.10607799445601548,0.0
11.771152,0.11050150482942982,0.0
11.77354,0.11264337520270688,0.0
11.77592,0.11385408001620562,0.0
11.778316,0.11878944706881765,0.0
11.780704,0.12385000281793354,0.0
11.783088,0.12515325543004935,0.0
11.785484,0.12203299766875084,0.0
11.787872,0.11599405453161345,0.0
11.790252,0.1108862769542544,0.0
11.792648,0.10512687307083746,0.0
11.795036,0.09750513806786386,0.0
11.797432,0.09067479899780838,0.0
11.799828000000002,0.08691749586080828,0.0
11.802216,0.0800871567907528,0.0
11.804596,0.07376867439989501,0.0
11.807000000000002,0.06838135756881554,0.0
11.809384,0.06285427111087585,0.0
11.811768,0.05467345760046143,0.0
11.814164000000002,0.043279838530131405,0.0
11.816548,0.03309692427330012,0.0
11.818932,0.024264484456827783,0.0
11.821328,0.02212261408355072,0.0
11.823712,0.01664274945385419,0.0
11.826092,0.012778317587880696,0.0
11.828496,0.009333194602487835,0.0
11.830884,0.010823438669706998,0.0
11.833264,0.01673719311034049,0.0
11.835664,0.026081489606010512,0.0
11.838048,0.03263228942234557,0.0
11.840432,0.04104542035823727,0.0
11.842828,0.05066925610762771,0.0
11.845216,0.06108448778993627,0.0
11.847608,0.07070832353932671,0.0
11.850012,0.08005262003499672,0.0
11.852396,0.08646365022447157,0.0
11.854780000000002,0.09073281004066938,0.0
11.85718,0.09407080429708885,0.0
11.859568,0.09913136004620474,0.0
11.861948000000002,0.10591447728801706,0.0
11.864352,0.109624558596774,0.0
11.86674,0.11240347434575262,0.0
11.86912,0.10999664564911149,0.0
11.871516,0.11277556139809011,0.0
11.873904,0.11129989826122727,0.0
11.876284000000002,0.11246338124648286,0.0
11.87868,0.10962266273890475,0.0
11.881068,0.10293209329570949,0.0
11.883448,0.09358779680003945,0.0
11.885844,0.08703699698370441,0.0
11.888232000000002,0.0786238660478127,0.0
11.890612,0.06900003029842229,0.0
11.893016,0.06136371436509236,0.0
11.895404,0.05558972955131908,0.0
11.897784,0.0493038880583481,0.0
11.900188,0.050095283991266205,0.0
11.902576,0.054239255110960116,0.0
11.904956000000002,0.057172521417155286,0.0
11.907352,0.05437902473782032,0.0
11.90974,0.05014250581950935,0.0
11.912120000000002,0.052843454700227256,0.0
11.914524,0.05554440358094516,0.0
11.916912,0.06074472895692126,0.0
11.919292000000002,0.061024268210641684,0.0
11.921696,0.06408272321334074,0.0
11.924084,0.0613038074643621,0.0
11.926464,0.05959582690202201,0.0
11.928864,0.05959582690202202,0.0
11.931248,0.0597210155985259,0.0
11.933628,0.05972101559852589,0.0
11.936036,0.05972101559852589,0.0
11.93842,0.05972101559852589,0.0
11.9408,0.05694209984954727,0.0
11.9432,0.053092248913930114,0.0
11.945588,0.05003379391123106,0.0
11.947968,0.042831367788838094,0.0
11.950364,0.0344182368529464,0.0
11.952752,0.02814697629033176,0.0
11.955132,0.02587991722055082,0.0
11.957532,0.023333318897049465,0.0
11.959916,0.016922288707574614,0.0
11.962296000000002,0.011442424077878082,0.0
11.964696,0.006242098701901972,0.0
11.967084,0.003183643699202924,0.0
11.969464000000002,0.00012518869650387645,0.0
11.97186,0.00012518869650387645,0.0
11.974248,0.00012518869650387645,0.0
11.976628000000002,0.00012518869650387645,0.0
11.979024,0.00031218015160723784,0.0
11.981412,0.0007641299300746851,0.0
11.983792,0.003078410828098773,0.0
11.986188000000002,0.006184087659040971,0.0
11.988576000000002,0.01208326116931813,0.0
11.990956,0.016771729866096548,0.0
11.993352000000002,0.01973763707017854,0.0
11.99574,0.021772378714482205,0.0
11.998136,0.024878055545424403,0.0
12.000532,0.026912797189728076,0.0
12.00292,0.02959916514008964,0.0
12.005300000000002,0.03135436753067289,0.0
12.007704,0.036182605854311524,0.0
12.010092,0.04287317529750679,0.0
12.012472,0.04914443586012143,0.0
12.014872,0.05462430048981796,0.0
12.017256,0.05810206437309763,0.0
12.01964,0.061719597883237526,0.0
12.022036,0.062264095460322036,0.0
12.024424,0.06226409546032204,0.0
12.026804000000002,0.06195191530871481,0.0
12.0292,0.06149996553024736,0.0
12.031588,0.05918568463222327,0.0
12.033972000000002,0.05608000780128107,0.0
12.036368,0.05018083429100391,0.0
12.038756,0.04593862779908522,0.0
12.041136000000002,0.05519358227927906,0.0
12.04354,0.08390477814259284,0.0
12.045928,0.13514525132208197,0.010152670270273263
12.048308000000002,0.20859013659365205,0.01927143059920712
12.050704,0.294276152053462,0.02835794771280587
12.053092,0.39588073811238195,0.03738424513316665
12.055472000000002,0.507210601076058,0.04664800343525327
12.057876,0.6384160143034346,0.05558537019334805
12.060264,0.7927570051826707,0.06415776998803624
12.062644,0.9623649403549588,0.07272165823887049
12.06504,1.1488698335143785,0.08123246749541914
12.067428,1.3528760891387446,0.08968657013484371
12.069808000000002,1.5823921102137242,0.09795872263223634
12.072212,1.8314442353979534,0.10614403414410715
12.0746,2.097253548942454,0.114272075130376
12.07698,2.3731621223019173,0.12249409798871298
12.079376,2.6632667047677945,0.1307481693564358
12.081764,2.96994148413884,0.13900573238211542
12.084144000000002,3.2962141703777346,0.14711806058108495
12.086544,3.638894122286397,0.15498545713499015
12.088928,3.9767841643429147,0.1626853625152317
12.091312000000002,4.291028667926247,0.17040471525868475
12.093708,4.5723613034089805,0.1681190094982911
12.096096,4.828276721239717,0.16696257699755193
12.098476000000002,5.071578921829876,0.1658213734639926
12.100872,5.299568852156609,0.1646779765185959
12.10326,5.5128528125556,0.16324822625961488
12.105656,5.69736887597369,0.1622443775685509
12.108052,5.854093533941026,0.16171334618991173
12.11044,6.0011382409739795,0.16110046924289848
12.11282,6.135150421885776,0.16050875271792722
12.115216,6.247005412533735,0.1600453891033267
12.117604,6.331068997730945,0.15989184367988052
12.119984,6.401029121620356,0.1597695190744712
12.12238,6.463636260545899,0.15957959019084234
12.124764,6.517307622641733,0.1593071292554131
12.127148000000002,6.5629290474972635,0.15887663758242335
12.129552,6.588674922089092,0.15847815641792315
12.13194,6.592820789066655,0.15826418576741766
12.13432,6.579693819289009,0.1583207164181406
12.136716,6.558650994324315,0.15856037484441116
12.1391,6.545150041636462,0.15871544419151998
12.141496,6.538307017493919,0.1587608809655574
12.143900000000002,6.536259590777128,0.1587210018049372
12.146288000000002,6.542265893016377,0.15860417499394142
12.148668,6.5549282279430665,0.15849735043217958
12.151064000000002,6.568939141452247,0.15847197663987386
12.153452,6.592773567238406,0.15830344054018122
12.155832,6.622846612689295,0.15803849609229925
12.158228,6.64700590369955,0.15792849274376236
12.160616,6.672747986575642,0.1578084795947996
12.162996,6.708081264303237,0.15752228389869813
12.165392,6.748816439792268,0.15706719617075743
12.167776,6.779216246325121,0.15674396613373448
12.170156000000002,6.794205547222322,0.15665689484079232
12.172552,6.814549524052715,0.15645679890108288
12.17494,6.826745328270581,0.15641935421492958
12.177324000000002,6.8425260251007,0.1563303421148604
12.17972,6.858027182677099,0.15625521306349602
12.182104,6.87697346323889,0.1561367574794437
12.1845,6.9005283497713314,0.15598684581290342
12.186896,6.923896244848669,0.15589116563538105
12.189284,6.952851133284676,0.15570768136799804
12.191664,6.9867413887732965,0.15543983327726923
12.194064,7.01495210310463,0.15523340856643297
12.196452,7.039485377025092,0.15504732478290628
12.198832,7.0695130965056086,0.1547491286174717
12.201228,7.096515001881312,0.15447038716966607
12.203616,7.122540415726862,0.15413387043814342
12.205996,7.150754921773935,0.15371289453436776
12.2084,7.174313600022113,0.1533610851959314
12.210788,7.191726206404182,0.15312383031047783
12.213168,7.212816253197119,0.15287737667904241
12.215572000000002,7.241355624468284,0.15252269079138012
12.217956,7.275621758724977,0.15207123575238127
12.22034,7.304161129996142,0.15171629741311837
12.222736,7.33721655943934,0.1513024494221164
12.22512,7.376138521494927,0.1508045757356779
12.2275,7.421905403550927,0.1501654489726391
12.2299,7.46799904668889,0.1494827658811032
12.232288,7.510555019042841,0.14880905915560427
12.234668,7.554368918038536,0.1480793004308279
12.237064,7.599812830728309,0.14731632116861113
12.239452,7.6397169718876565,0.14659828772621405
12.241848,7.6736620326359954,0.14593497626960597
12.244244000000002,7.704441509652661,0.14529422565443512
12.246632000000002,7.7321479507362705,0.1447119022207391
12.249016,7.759946939618499,0.1441604514877246
12.251412000000002,7.790072894471236,0.1436372019455473
12.253800000000002,7.824203050816809,0.14306270277736075
12.256184,7.862477178282077,0.14242430205056783
12.258580000000002,7.902753406493759,0.1417559262899146
12.260964,7.940515677279828,0.1411150136705784
12.263344,7.978697256946479,0.1404609739121774
12.265744000000002,8.013992792135177,0.13980583663544077
12.268128,8.046402282845923,0.1391530432103761
12.270508,8.071921527585884,0.1385591978775578
12.272908,8.091434470086593,0.13805891154298966
12.275296,8.104521801467468,0.13766684331348217
12.277676,8.108809333929763,0.13739090839341672
12.280072,8.109511973779803,0.13715020617864898
12.28246,8.102438528069651,0.13704632013612011
12.284856,8.089591097545727,0.1370500522931044
12.287256,8.07697598444728,0.13707628523998663
12.289640000000002,8.069156468774587,0.13704212692419657
12.292024,8.060126248288391,0.13703221878560706
12.29442,8.04550903444353,0.13708719349227294
12.296808000000002,8.035035791718359,0.13707802079517747
12.299188,8.018883007835901,0.13710287264700216
12.301584000000002,7.993558337982522,0.13722608013282703
12.303972000000002,7.962274587718136,0.13739544557706476
12.306352,7.93127037670747,0.13754951727837492
12.308756,7.899195230510164,0.13771932481113905
12.311144,7.860042846886969,0.1379904223247876
12.313528000000002,7.82927095330178,0.13816389080712949
12.315924,7.797380902701707,0.1383945696982199
12.318312,7.773591802885922,0.1385440215814136
12.320692,7.751665034189691,0.13867111846111702
12.323088000000002,7.731088739933821,0.13876812848861633
12.325476000000002,7.71065221530481,0.13886243900944895
12.327856,7.694871518474691,0.13890313471582763
12.330256000000002,7.687238994257099,0.13882318294607973
12.332644000000002,7.681096714106727,0.13870477016193036
12.335024,7.673371642090517,0.13859399637206968
12.337424000000002,7.662433764514393,0.13853619992495336
12.339808,7.652287282871188,0.13847460849582133
12.342192,7.648798729773288,0.13832962457231832
12.344588000000002,7.642516679996055,0.1382174874915378
12.346976000000002,7.641542084323772,0.13805440658601964
12.349356,7.645874942756437,0.13783986879096036
12.351756000000002,7.654536867906033,0.13762225976240086
12.354144000000002,7.6626397145481855,0.13743309687590305
12.356524,7.671161870070921,0.13722374745685628
12.358924000000002,7.684898931899989,0.13693109751079105
12.361312000000002,7.690907129997109,0.13674004965001316
12.363692,7.707484910333752,0.13638299443568902
12.366092000000002,7.720757337311864,0.13605050826638593
12.368476,7.730305102050863,0.13576006372127855
12.37086,7.740923801976499,0.13545291283507058
12.373256,7.761925092686557,0.13502520975160867
12.37564,7.779993117090421,0.13463540281801945
12.378040000000002,7.793545083322254,0.1342928731075011
12.380432,7.8081679847407255,0.13393489420295424
12.38282,7.824373678025033,0.13356958919424625
12.3852,7.845235199108231,0.1331545914807428
12.387596000000002,7.869029986497625,0.13270349585624583
12.389984000000002,7.891241982021185,0.1322634842017808
12.392364,7.9118711856789075,0.13183158327030178
12.394760000000002,7.927704791910877,0.13145593183482202
12.397148,7.940465362209791,0.13112313291679292
12.399544,7.955415024710224,0.13072382031129826
12.401948,7.968409808292484,0.13031383467380983
12.404332,7.979914347807523,0.12994022992357818
12.406716,7.992210283255483,0.1295652567884137
12.409112,8.009162046502333,0.12914199374162505
12.411496,8.018757033069576,0.12883024191472567
12.41388,8.027141314823321,0.12854102973998008
12.416276,8.036456762136842,0.12824126219888818
12.418664,8.047215231689341,0.12794381941738978
12.421044000000002,8.052898564562367,0.12771480823539083
12.423444,8.065891452286758,0.1274203165262267
12.425832,8.081957375944205,0.12708712903355576
12.428212000000002,8.097743760347932,0.12676855779917243
12.430608,8.114461310311436,0.12644189816554055
12.432996,8.127454198035826,0.12615241111141806
12.435376000000002,8.141657790573715,0.12584448951169497
12.437772,8.155442074231022,0.12555685333638342
12.44016,8.16852750975403,0.12530013265629802
12.442544000000002,8.187339708262567,0.12498530783259776
12.444936000000002,8.210016338637079,0.12462956433234385
12.447324000000002,8.229200624197954,0.12433391116057947
12.449708,8.253692363863781,0.12400177801595867
12.452104000000002,8.277904564275888,0.12368037430543913
12.454492000000002,8.301557686180553,0.12338550355517174
12.456888,8.32292916808508,0.12312751762368544
12.459284,8.344300649989606,0.12286953169219914
12.461676,8.372469830066304,0.12254412911195553
12.464056,8.40571414682247,0.12216227616074213
12.46646,8.43895846357864,0.12178400972141201
12.468844,8.474344650708087,0.1213794331843431
12.471224,8.504283614105722,0.12102192938904557
12.473616,8.53180116787636,0.12070663768428143
12.476004,8.55731662090058,0.12041342072070016
12.478384000000002,8.585905109857858,0.12008855990758324
12.48078,8.61635592993469,0.11974859595711096
12.483168,8.64266277889183,0.11945939253366683
12.485548,8.668178231916052,0.11917278026186177
12.487952,8.69583555531355,0.11885894883239544
12.490336,8.723213339457331,0.11856076356853566
12.492716,8.750591123601108,0.11826525847531705
12.495112,8.779039842931528,0.11795722890167833
12.4975,8.802553195209335,0.11770009935591182
12.499884000000002,8.829698661927635,0.11738702893683739
12.50228,8.860056934205852,0.11703780222855495
12.504664000000002,8.891625911297567,0.11667043173955952
12.50706,8.923474427643004,0.11629214290023518
12.509456,8.947454310629633,0.11599201848509581
12.511844,8.967010683242847,0.11575122899639564
12.514224000000002,8.983633789549865,0.11553792029041528
12.516628,9.000117126230021,0.11533203315215236
12.519016,9.018882102910318,0.11509685546950643
12.521396,9.041651281083446,0.114824889432757
12.5238,9.06856443037627,0.11451040293224879
12.526188,9.088679881496926,0.1142559120377421
12.528568,9.109866267804223,0.11399090305163505
12.530964,9.13119242373838,0.11371969968106779
12.533352,9.153449745232308,0.11344254473644234
12.535732,9.179711268219075,0.11313135453974643
12.538128,9.203598603407084,0.11282568940537752
12.540516,9.226834312289037,0.1125178939259008
12.542896,9.25034956042471,0.11220100414647843
12.5453,9.278008779680075,0.11184391108641639
12.547688,9.305528229308582,0.11149580998754936
12.550068,9.328531620765057,0.11117623965566642
12.552472000000002,9.35395642184853,0.11082622080932228
12.55486,9.381383323678419,0.11046073662853512
12.55724,9.410952095881585,0.11007183597174142
12.559636,9.440148781032415,0.10966787410759365
12.562024,9.470695940623607,0.10924208438063934
12.564404,9.496727042042764,0.10884164653645556
12.5668,9.518753941969088,0.10847719804416621
12.569188,9.537195949283158,0.10813432417369986
12.571568,9.549911193611697,0.10783308929349555
12.573972,9.565559704246432,0.10750796339176998
12.576356,9.578834027082411,0.10718629549164099
12.57874,9.594389989918529,0.10683787727518573
12.581136,9.60757176495589,0.10649168937747987
12.58352,9.61330421551503,0.10619344773926642
12.5859,9.619036666074166,0.10589565635094098
12.588296,9.619833749580692,0.10563636576525741
12.590684,9.616626631594386,0.10541013828403646
12.593068,9.609694851368966,0.10520722083460113
12.595464,9.600760970397127,0.1050210210003331
12.597852,9.593549650917984,0.10482860903217996
12.600248,9.581123425132512,0.10468463202083343
12.602644000000002,9.563901601921286,0.10457326310539286
12.605032,9.546819548336915,0.10445640330619552
12.607416,9.527595624379273,0.10436053971217751
12.609812000000002,9.50744053486185,0.1042696823966887
12.6122,9.489147776463987,0.10416746596144233
12.61458,9.473788284372318,0.10404311676521757
12.616984000000002,9.45614715228051,0.10394501135100799
12.619372000000002,9.440368351308262,0.10383550469508523
12.621752,9.423658384776234,0.10373123962111529
12.624148000000002,9.404387238990346,0.10366358761632596
12.626536000000002,9.380832352457904,0.10363860920410345
12.628916,9.360582819283998,0.10360644740333985
12.631312,9.342707473908845,0.10357319296079329
12.6337,9.324552589279971,0.10354993720307858
12.63608,9.312124467636627,0.10348825930168545
12.63848,9.304631713045897,0.1033884523245791
12.640864,9.299001289574722,0.10327755136704192
12.643248,9.29229993091691,0.10317717400604515
12.645644,9.281594370766264,0.10310889846883677
12.648032,9.270749040988756,0.10304576915610497
12.650412,9.261486503077085,0.10298193586254553
12.652808,9.25287559147147,0.10292288640577
12.655196,9.249200046918471,0.1028257626221495
12.657592,9.247107294231308,0.10272811565202046
12.659988000000002,9.246876872663698,0.1026195927409022
12.662376000000002,9.242502479976396,0.10254834765214316
12.66476,9.237336691356175,0.102477107010803
12.667164,9.23510416904215,0.1023842170486127
12.669552,9.234594208220823,0.10228568744348297
12.671932000000002,9.236086348145912,0.1021705820853156
12.674328,9.243724559937112,0.10200188380352564
12.676716,9.248057418369779,0.10183950278503298
12.679100000000002,9.251878420123248,0.1016667750765175
12.681496,9.255047795570658,0.1014889636583589
12.683884,9.25742577508515,0.10131209095638227
12.686264,9.255939322733669,0.10116184775316492
12.688668,9.251379834449134,0.10103780367957037
12.691056,9.249241755791596,0.10088242613507402
12.693436000000002,9.254460453813666,0.10065970494403888
12.695832,9.262100561462734,0.10040556189774777
12.69822,9.271230913179021,0.10012549949119962
12.700604000000002,9.278918242656335,0.09984070387382513
12.703,9.28381207545431,0.09957211321290474
12.705388,9.289125217132868,0.09928901814265759
12.707768000000002,9.295788833251782,0.09898700624935752
12.710164,9.309669456423448,0.09862546439318726
12.712552,9.328764985901445,0.09821912375792965
12.714932,9.347069119446525,0.09781523791264035
12.717328000000002,9.36393023075263,0.09740664646463522
12.719716000000002,9.383864377991786,0.09697457770462331
12.722096,9.399654554111255,0.09657860701844707
