Time,Force,Position
12.518548,0.06525281886318275,0.0
12.520932,0.07180152207783567,0.0
12.523328,0.07984046935970776,0.0
12.525712,0.08960197813427627,0.0
12.528096,0.09829255172220627,0.0
12.530492,0.10283915419044234,0.0
12.53288,0.11152972777837233,0.0
12.53526,0.11728703506010715,0.0
12.537656,0.12304434234184197,0.0
12.54004,0.12773071443693826,0.0
12.542419999999998,0.13255685615889476,0.0
12.544824,0.13097406429305852,0.0
12.547212,0.1268773150016078,0.0
12.549596,0.12357196164307514,0.0
12.551992,0.12333964421759787,0.0
12.554376,0.12124499567256394,0.0
12.55676,0.1179396423140313,0.0
12.559156,0.11756755526169382,0.0
12.561544,0.11668361153015865,0.0
12.563923999999998,0.12380807078429089,0.0
12.56632,0.13600766671789535,0.0
12.568708,0.1489986585844179,0.0
12.571104,0.16129080231663945,0.0
12.5735,0.1701378230634681,0.0
12.575888,0.17884507418343656,0.0
12.578268,0.19369839716951578,0.0
12.580664,0.19840144679665053,0.0
12.583052,0.21069359052887204,0.0
12.585436,0.21739874090242367,0.0
12.587832,0.22782855351508852,0.0
12.59022,0.2322520638885029,0.0
12.592604,0.23974861019497257,0.0
12.595,0.24561514280736288,0.0
12.597388,0.25083004911369533,0.0
12.599768,0.25017842280763747,0.0
12.602164,0.2541826243004712,0.0
12.604552,0.25525355948710976,0.0
12.606932,0.2543223939273314,0.0
12.609328,0.2508300491136954,0.0
12.611716,0.23839813575461363,0.0
12.614095999999998,0.22540714388809108,0.0
12.616496,0.20586744880691557,0.0
12.61888,0.18570667171588687,0.0
12.62128,0.16726845611755456,0.0
12.623675999999998,0.15218281570599806,0.0
12.626064,0.13551438342860533,0.0
12.628444,0.12978762044307524,0.0
12.63084,0.11689107223303898,0.0
12.633228,0.11395780592684382,0.0
12.635612,0.10678802070233764,0.0
12.638008,0.10813849514269662,0.0
12.640396,0.10883734327699766,0.0
12.642776,0.11032758734421678,0.0
12.645176,0.10781362991860224,0.0
12.64756,0.1095361914112987,0.0
12.64994,0.10488036361240709,0.0
12.652347999999998,0.09870374745009163,0.0
12.654735999999998,0.0937683803974796,0.0
12.657116,0.08773153386202437,0.0
12.659515999999998,0.08787130348888458,0.0
12.661903999999998,0.08397632732670642,0.0
12.664288,0.0872196771828267,0.0
12.66668,0.08735944680968691,0.0
12.669064,0.09029271311588208,0.0
12.671444,0.09108410904880018,0.0
12.67384,0.09103688722055704,0.0
12.676224,0.08337002699102243,0.0
12.678603999999998,0.07875952516250474,0.0
12.681008,0.07005227404253628,0.0
12.683392,0.06385898034818237,0.0
12.685768,0.05529149885507411,0.0
12.688183999999998,0.05044867960107915,0.0
12.690568,0.05259054997435621,0.0
12.692948,0.06180965777352235,0.0
12.695344,0.07144807445326914,0.0
12.697728,0.08252951337199191,0.0
12.700103999999998,0.09913594214697224,0.0
12.7025,0.11249902106583232,0.0
12.704883999999998,0.12682380984067537,0.0
12.707264,0.13469244319948256,0.0
12.709656,0.14766675753396666,0.0
12.712044,0.1526021245865787,0.0
12.714424,0.16140192350516422,0.0
12.716816,0.16354379387844126,0.0
12.7192,0.16568566425171832,0.0
12.72158,0.16531357719938083,0.0
12.723995999999998,0.1724213589214746,0.0
12.72638,0.17805557410838763,0.0
12.72876,0.18126837966830325,0.0
12.731156,0.18382955892216096,0.0
12.73354,0.18583165966857781,0.0
12.735919999999998,0.1850402637356597,0.0
12.738312,0.1735089716401516,0.0
12.7407,0.15876487398472794,0.0
12.74308,0.14308961076952592,0.0
12.745492,0.12879536629088756,0.0
12.747876,0.1152925177451673,0.0
12.750255999999998,0.1047229355056422,0.0
12.752652,0.09149962621364233,0.0
12.75504,0.08456215841461347,0.0
12.757419999999998,0.07390002837647129,0.0
12.759835999999998,0.07003559651049782,0.0
12.76222,0.06337766796518934,0.0
12.7646,0.061655106472492914,0.0
12.767016,0.05900137942001816,0.0
12.7694,0.06328512016657228,0.0
12.771779999999998,0.060631393114097536,0.0
12.774171999999998,0.055975565315205936,0.0
12.776556,0.053461607889591395,0.0
12.778936,0.05038857195653601,0.0
12.781352,0.052530442329813076,0.0
12.783736,0.050528341583396225,0.0
12.786115999999998,0.0537716914395165,0.0
12.788531999999998,0.054081774989441604,0.0
12.790916,0.054391858539366705,0.0
12.793311999999998,0.05422154461630181,0.0
12.795704,0.05111796438704175,0.0
12.798087999999998,0.047083218598003365,0.0
12.800468,0.04598173911516015,0.0
12.802872,0.042738389259039875,0.0
12.80526,0.043250245938237564,0.0
12.80764,0.04269116743079673,0.0
12.810031999999998,0.043714880789192105,0.0
12.812416,0.04660092526714413,0.0
12.814811999999998,0.04920743049137572,0.0
12.817208,0.04594740310321699,0.0
12.819596,0.04189597978214013,0.0
12.821976,0.04385085870031383,0.0
12.82438,0.045665967991627324,0.0
12.826764,0.04682945097688291,0.0
12.829144,0.04065283481456746,0.0
12.831535999999998,0.0391625907473483,0.0
12.833923999999998,0.03967444742654599,0.0
12.83632,0.04512167115835571,0.0
12.838724,0.05056889489016542,0.0
12.841112,0.056186432545040015,0.0
12.843492,0.061943739826774834,0.0
12.845895999999998,0.06569894636209281,0.0
12.84828,0.06959392252427099,0.0
12.85066,0.07348889868644916,0.0
12.853063999999998,0.0714867979400323,0.0
12.855451999999998,0.06773159140471434,0.0
12.857832,0.06493809472537938,0.0
12.860228,0.058529161137586654,0.0
12.862612,0.055084038152193794,0.0
12.864996,0.054432411846135904,0.0
12.867399999999998,0.06178918852574541,0.0
12.869784,0.06407082852588267,0.0
12.872164,0.0677029429663789,0.0
12.874567999999998,0.07412855408621008,0.0
12.876955999999998,0.0846814587936967,0.0
12.879336,0.09362102733914243,0.0
12.88174,0.09720591995139549,0.0
12.884123999999998,0.09999941663073045,0.0
12.886508,0.10372407886984375,0.0
12.888903999999998,0.10987015073595452,0.0
12.891288,0.11694738816184358,0.0
12.893668,0.12895999264034472,0.0
12.896071999999998,0.1408328274919856,0.0
12.898459999999998,0.153776597530265,0.0
12.90084,0.16979340350159985,0.0
12.903235999999998,0.18784285451555618,0.0
12.90562,0.20548967418097036,0.0
12.908,0.2228874988888688,0.0
12.910396,0.23867198743472637,0.0
12.912784,0.25352531042080556,0.0
12.915164,0.25929929523457884,0.0
12.91756,0.2690774815411858,0.0
12.919948,0.27750519340743385,0.0
12.922327999999998,0.2809975382210698,0.0
12.924724,0.28197592560909135,0.0
12.927108,0.2837457089300309,0.0
12.929504,0.2891476066914667,0.0
12.931896,0.2930592603856834,0.0
12.93428,0.29310648221392654,0.0
12.936659999999998,0.2876592584821169,0.0
12.939056,0.2830034306832252,0.0
12.941439999999998,0.27355200545858177,0.0
12.94382,0.2650317457937167,0.0
12.946236,0.25236751500915766,0.0
12.94862,0.23984305385145885,0.0
12.951,0.22410578713384446,0.0
12.953396,0.2057767968661677,0.0
12.95578,0.18837897215826924,0.0
12.958163999999998,0.17084137782351058,0.0
12.960568,0.15330378348875195,0.0
12.962952,0.13977039064682703,0.0
12.965331999999998,0.12423489705848528,0.0
12.967736,0.1088391730970037,0.0
12.97012,0.09651648506857746,0.0
12.972499999999998,0.08498519297306936,0.0
12.974904,0.07359367050442148,0.0
12.977288,0.06085167359541461,0.0
12.979667999999998,0.0483892159401282,0.0
12.982072,0.03886002459103694,0.0
12.98446,0.03254363880186129,0.0
12.98684,0.024364921893128996,0.0
12.989236,0.01804853610395334,0.0
12.99162,0.010800984754999356,0.0
12.993999999999998,0.006626469339100761,0.0
12.996396,0.002312184296341955,0.0
12.998779999999998,0.0,0.0
13.00116,3.054429620468322e-05,0.0
13.003555999999998,0.0020631893388262175,0.0
13.00594,0.004887230314365862,0.0
13.00832,0.008642436849683827,0.0
13.010716,0.014539513758278853,0.0
13.0131,0.0213677562266522,0.0
13.015484,0.028335768321885755,0.0
13.017896,0.03530378041711931,0.0
13.020283999999998,0.04040946139279622,0.0
13.022664,0.04458397680869483,0.0
13.02508,0.04796709629167532,0.0
13.027464,0.05027928058801726,0.0
13.029844,0.052591464884359215,0.0
13.032244,0.05504341880756138,0.0
13.034628,0.05656420717098523,0.0
13.037007999999998,0.05780545628068865,0.0
13.039416,0.05890693576353187,0.0
13.0418,0.06308145117943047,0.0
13.04418,0.0652538658489122,0.0
13.046584,0.06565649719745437,0.0
13.048972,0.06562595290124969,0.0
13.051352,0.06359330785862816,0.0
13.053748,0.060769266883088514,0.0
13.056136,0.06629766326629982,0.0
13.058516,0.08778995621899505,0.0
13.060912,0.13437270574172333,0.011189938070005519
13.0633,0.20250824105047466,0.02087460654210816
13.065692,0.2827451369206057,0.030485623136054026
13.068091999999998,0.3726147618968758,0.04060403739939176
13.070476,0.48259225456232374,0.05042816111658886
13.07286,0.6143076286110287,0.05985734219978155
13.075256,0.762640421393145,0.06913075033654238
13.07764,0.9225627180574432,0.07837914260086681
13.08002,1.0950982319623186,0.08761885211094689
13.082412,1.28471579945156,0.0968258052094054
13.0848,1.4967700964583595,0.10578540231837608
13.087179999999998,1.7283750785047651,0.11455778260633116
13.089572,1.9687760677540178,0.12331331162364742
13.091959999999998,2.224770762378286,0.13201914930599895
13.09434,2.495288227190932,0.14074491839379544
13.096732,2.785247151712528,0.149316014522439
13.09912,3.08889212451921,0.15775696111711862
13.1015,3.403850853670093,0.1659743490897561
13.103912,3.7130655465443243,0.17405005814980215
13.1063,4.0026389024382025,0.18209523846210984
13.108679999999998,4.258322002843463,0.17911407761102394
13.111076,4.488400894141622,0.1777662428449303
13.113459999999998,4.7083805256248175,0.17644669985156847
13.11584,4.922266994643754,0.1745083461884245
13.118256,5.106129535897914,0.17301301357961937
13.120644,5.263039289462485,0.17205561087804136
13.123036,5.4123637406377085,0.17111322540394838
13.125436,5.557128703528394,0.17007996878145054
13.127819999999998,5.688628822872446,0.16904510371249634
13.1302,5.8017436360200145,0.16805876904963238
13.132604,5.889767992597551,0.1673832545664421
13.134992,5.961267478240294,0.16687942771038286
13.137372,6.025506526717782,0.16635117272795433
13.139767999999998,6.0797388631789255,0.16581225922190296
13.142152,6.1245707879594065,0.16516626964684492
13.144532,6.1505036540063385,0.16466596890060672
13.146935999999998,6.169640717738973,0.16420005309086286
13.149323999999998,6.185145667031109,0.16385898317797173
13.151704,6.196040114494728,0.16368360834072568
13.154103999999998,6.202790590838653,0.16359741655001442
13.156491999999998,6.2179687790488245,0.16331282833050487
13.158876,6.237151168751832,0.16293641396022418
13.161267999999998,6.260010998865709,0.16254679657921003
13.163655999999998,6.288363378681769,0.1621636934320248
13.166032,6.3358509263725935,0.16146685611258488
13.168435999999998,6.393768286676085,0.1605316637445531
13.170823999999998,6.442094452128074,0.15979061646766873
13.173204,6.48427454571395,0.15919328656158793
13.1756,6.5359986123230875,0.15848604606759784
13.177984,6.590516175611558,0.1577322972710369
13.180364,6.6427993207281375,0.1569718214116537
13.18278,6.686190119127512,0.1563330819617429
13.185164,6.726415333795217,0.1557315595855901
13.18754,6.766500778836059,0.15515088944443461
13.189936,6.801650856824289,0.15466911678208567
13.19232,6.834286977386904,0.15421415762470142
13.194715999999998,6.858170520859179,0.15388299366898386
13.197112,6.871531703920171,0.1537354957122017
13.1995,6.892342211459387,0.15347272645106058
13.20188,6.921346217581506,0.1531255481002441
13.204275999999998,6.946346022210792,0.15285289270209648
13.206663999999998,6.9716725879220425,0.1525201731762381
13.209044,6.99290240434184,0.1522340896516517
13.211448,7.010407558522527,0.15201375298836137
13.213836,7.0204161663967435,0.15195264120376523
13.216216,7.024837780912287,0.15197504175085091
13.21862,7.029586156509795,0.15193994716190157
13.221008,7.0335903580026296,0.151869194433046
13.223387999999998,7.02828290389768,0.15193430527316582
13.225792,7.025209867964627,0.15198958936608462
13.22818,7.032519422815991,0.15189144466772053
13.23056,7.051841582145858,0.15158808505673332
13.232956,7.073305611849003,0.15124661837499556
13.235344,7.09383847599237,0.15092267709974097
13.237723999999998,7.120609959800466,0.15052701807969993
13.240132,7.153759832900148,0.15005241757131413
13.242516,7.191845073052442,0.1495012778168424
13.244891999999998,7.236915002832009,0.14879939258415548
13.2473,7.272253968133213,0.1482502193262518
13.249684,7.304939206381942,0.14773380508854148
13.252064,7.342931898735621,0.14715507818937112
13.254468,7.37878272071602,0.14661577008325632
13.256856,7.411467958964749,0.14609707770566455
13.259236,7.441779009414723,0.14559915884695745
13.261639999999998,7.473021225424474,0.14509145630298095
13.264027999999998,7.509151586658596,0.1445511101499804
13.266408,7.547656135691472,0.14399701186498054
13.268812,7.588162785470763,0.14341531704560637
13.271195999999998,7.62573616894386,0.14287124266601886
13.27358,7.660236516483901,0.14238151566405427
13.275975999999998,7.690453123277388,0.14197744721496117
13.278363999999998,7.711218304846232,0.14170292738056484
13.280744,7.726536262683266,0.1414930408730064
13.283148,7.740550967908184,0.1412799363512116
13.285531999999998,7.748838910147571,0.14114499797427366
13.287912,7.753402190147845,0.14105720885374606
13.29032,7.75330964234923,0.14102645741111888
13.292704,7.748701036378581,0.1410447394834213
13.295087999999998,7.750518041527764,0.14095414447354296
13.297484,7.756479017796641,0.14079903839830446
13.299867999999998,7.763510929252157,0.14062754714882972
13.302252,7.774547042200506,0.1403991008358468
13.304647999999998,7.787305716641551,0.14015524194763718
13.307035999999998,7.79792252070932,0.13994698659052984
13.309416,7.806816763284392,0.13975429370405415
13.311811999999998,7.807982142127517,0.13966226361834558
13.314199999999998,7.8112893913439185,0.1395357152828212
13.31658,7.8085903383210695,0.13949405985776323
13.318976,7.813527601231551,0.1393226489307303
13.32136,7.819815338582392,0.13912027915468628
13.32374,7.8233095792538965,0.13894985828795245
13.326144,7.83332197884385,0.13870420978427495
13.328532,7.840820421008189,0.1384747527571289
13.330908,7.844314661679694,0.13830229524978416
13.333304,7.8496712334707555,0.1381078019338566
13.335688,7.854468726754378,0.13794092399170463
13.338067999999998,7.862059716717335,0.13774124155489345
13.340472,7.870022793732628,0.1375583178076219
13.34286,7.875052604441725,0.13741601532847006
13.34524,7.876869609590908,0.13732744604020294
13.347644,7.876824283620534,0.1372605691057366
13.350032,7.877430583956219,0.1371971529394233
13.352412,7.880970150598098,0.13709647795600385
13.354815999999998,7.883997860560779,0.13698561238693227
13.357204,7.88702557052346,0.13687474681786066
13.359584,7.897921913844949,0.1366607687457826
13.361987999999998,7.901601250113689,0.13655277368130553
13.364372,7.909704096755843,0.13636870558407646
13.366752,7.91445436821122,0.13624438408437298
13.369148,7.919996035599516,0.13611720086336881
13.371532,7.929122595600065,0.13595579795888435
13.373916,7.93438472373464,0.13584243797827025
13.376312,7.949098277093858,0.13562197549944216
13.3787,7.967536492692191,0.13536008064486063
13.38108,7.987185413104023,0.13507650410229427
13.383476,8.007253642396435,0.1347728784210858
13.385864,8.026250936502208,0.13448713592437256
13.388243999999998,8.042594503555508,0.13422352969606288
13.39064,8.059077840235666,0.13395385290044334
13.393028,8.073838615423128,0.1336975087373182
13.395424,8.08859939061059,0.1334424594610933
13.39782,8.096842006879603,0.1332572506634843
13.400208,8.100568564976586,0.13311589643044
13.402588,8.104527440499044,0.1329968677709858
13.404984,8.107555150461728,0.13288767343233124
13.407368,8.106858198185297,0.13281886251948058
13.409752,8.109513821095641,0.13269315178891788
13.412148,8.112681300685182,0.13257766984750924
13.414532,8.112915513968527,0.13249857097344256
13.416916,8.113429266505594,0.1324067603198505
13.419312,8.112779536057404,0.13230212872643937
13.421696,8.113480280049576,0.13216808847050102
13.424096,8.10631239068294,0.1321314907407763
13.426491999999998,8.099424040570023,0.13208173335193218
13.428876,8.09081312896441,0.1320444376065235
13.43126,8.082341986985655,0.13200050197244498
13.433652,8.072008513887347,0.13197565257054195
13.43604,8.06754157340143,0.13188047272627565
13.43842,8.065588590341125,0.13176997851621813
13.440824,8.064706542467459,0.13164350424040314
13.443212,8.06023960198154,0.13154820996631367
13.445592,8.058705927801816,0.13141745589154788
13.447988,8.05633363586093,0.1313252912189681
13.450376,8.058664393547181,0.1311494618860489
13.452756,8.064207956793346,0.13092595791548411
13.455152,8.068168728173674,0.13070823578026067
13.45754,8.074411139554142,0.1304526092292348
13.459936,8.07986215500169,0.13020059875892365
13.462331999999998,8.087315271195655,0.12992255867619465
13.464719999999998,8.091043725150506,0.12968266082461843
13.4671,8.094213100597917,0.1294688877980793
13.469504,8.094821296791471,0.1293058995055634
13.471892,8.09836275929122,0.12910748004293385
13.474272,8.099762351417692,0.1289410549371163
13.476667999999998,8.100370547611245,0.12877754984033007
13.479055999999998,8.102980844551215,0.1285894831032383
13.481436,8.10852440779738,0.12836689094501263
13.483831999999998,8.114067971043543,0.12814669660475914
13.486216,8.114304080184757,0.12796863570285258
13.488596,8.117892764512748,0.12773894907965
13.490992,8.12613727663963,0.1274642359341619
13.49338,8.13731505507271,0.1271573280846784
13.495776,8.151193782386503,0.1267933911553653
13.498176,8.162139243394103,0.12646522830122292
13.500564,8.171082603655284,0.1261625728726312
13.502944,8.184681791715358,0.12581753684000088
13.505348,8.199724002014408,0.12547723263963959
13.507732,8.215557608246376,0.12513564209895386
13.510112,8.231530984105204,0.12478838402431307
13.512508,8.24936669108359,0.12442370485549077
13.514895999999998,8.270694742875612,0.1240056547223133
13.517276,8.297237700973966,0.12352212731773601
13.51968,8.32392042869918,0.1230332744141036
13.522068,8.353024566051392,0.12250424411888335
13.524447999999998,8.38492220008294,0.1219530334487566
13.526844,8.412955402248514,0.12144255032518879
13.529232,8.43912627329453,0.1209496349592035
13.531612,8.45821990691466,0.12053827078134256
13.534007999999998,8.481177972400761,0.12008779383895289
13.536395999999998,8.500783462700086,0.11968949294971679
13.538776,8.518386852252997,0.1193151588120226
13.54118,8.533708601805767,0.11897654799407628
13.543563999999998,8.550892682478095,0.11862420914319638
13.545944,8.567657454269844,0.1182904007448257
13.548339999999998,8.584422226061593,0.11795728542346898
13.550724,8.598113961920282,0.117661519927478
13.553108,8.607941265913002,0.11740369295325076
13.555504,8.616837404345944,0.11715409026550981
13.557892,8.624802377219106,0.11691216656768603
13.560276,8.634909220465543,0.11664459875516264
13.56268,8.64101186221915,0.11642020686403817
13.565067999999998,8.646323108039837,0.11619932164414894
13.567444,8.652705289047162,0.11596601477485087
13.569848,8.658668161173908,0.11575102946558563
13.572235999999998,8.664491263673794,0.11554325508258562
13.57462,8.674039028412793,0.11530749007413532
13.577016,8.685588893898208,0.11505243482969489
13.579399999999998,8.704076227182652,0.11473061415046304
13.58178,8.72028192046696,0.11444053295978683
13.584176,8.733554347445072,0.1141762169407719
13.586564,8.746175148117127,0.11390759960079491
13.588959999999998,8.759075488042901,0.11362776295134341
13.591356,8.770113496849119,0.11336341976802841
13.593744,8.782501980095695,0.11307577065226765
13.596123999999998,8.793819528155634,0.11280071334224061
13.59852,8.805416615469294,0.11251474173547128
13.600908,8.815011602036536,0.11224690214890516
13.603288,8.825677523790418,0.11196713181823816
13.605692,8.838066007036995,0.11167964001044506
13.60808,8.847893311029713,0.1114353930947724
13.610459999999998,8.85809270207477,0.11120692062026244
13.612856,8.862937417186634,0.11104095700931586
13.615244,8.868573528231417,0.11087483370555158
13.617624,8.874209639276199,0.11070927137240803
13.620019999999998,8.873048052148812,0.11060155625079922
13.622407999999998,8.86988436427501,0.11051306056239141
13.624792,8.866580906774347,0.11043028397776769
13.627188,8.859552787034568,0.1103738214713578
13.629575999999998,8.856668638414487,0.11027452656589025
