Time,Force,Position
17.572552,0.17364379017205547,0.0
17.574948,0.17871892685152768,0.0
17.577336000000003,0.1842777526812254,0.0
17.579720000000002,0.19400871715958923,0.0
17.582120000000003,0.1993633930927819,0.0
17.584508,0.20201712014525663,0.0
17.586896000000003,0.2054622431306495,0.0
17.589296000000004,0.2018301286901533,0.0
17.591684,0.2034129205559895,0.0
17.594072000000004,0.19298310794332463,0.0
17.596472000000006,0.18376400014415847,0.0
17.598860000000002,0.16884629688843442,0.0
17.601248000000005,0.15506390908899373,0.0
17.603648,0.13735270915393472,0.0
17.606036000000003,0.12350594108484916,0.0
17.608424,0.11086987782926239,0.0
17.610820000000004,0.10009614569323222,0.0
17.613208,0.08746008243764544,0.0
17.615592,0.07789705511511402,0.0
17.617988000000004,0.06740286223280428,0.0
17.620376,0.06162887741903101,0.0
17.622764000000004,0.05634959084305372,0.0
17.62516,0.05113468453672128,0.0
17.627548000000004,0.040920030908131975,0.0
17.629936,0.0332193347051572,0.0
17.632332000000005,0.02500678182298474,0.0
17.63472,0.017725394500590606,0.0
17.637108000000005,0.01258587755147353,0.0
17.639504000000002,0.006235655788857712,0.0
17.641896000000003,0.0044658724679181305,0.0
17.644292,0.003487485079896658,0.0
17.646692,0.003487485079896658,0.0
17.649080000000005,0.003487485079896658,0.0
17.651476000000002,0.0035518653495415016,0.0
17.653872,0.003551865349541502,0.0
17.656260000000003,0.003551865349541502,0.0
17.658660000000005,0.003551865349541502,0.0
17.661056000000002,0.003551865349541502,0.0
17.663448000000002,0.003551865349541502,0.0
17.665844,0.003551865349541502,0.0
17.668240000000004,0.002556319520118338,0.0
17.670628,0.002556319520118338,0.0
17.673024000000005,0.0022123999967530745,0.0
17.675428000000004,0.0022123999967530745,0.0
17.677816,0.003068176199316028,0.0
17.680212000000004,0.005134657215377723,0.0
17.682612000000006,0.005134657215377722,0.0
17.685004,0.005134657215377722,0.0
17.687400000000004,0.005134657215377722,0.0
17.689792000000004,0.0045584202665351885,0.0
17.692188,0.003051017757914335,0.0
17.694584,0.003051017757914335,0.0
17.696976,0.002986637488269491,0.0
17.699372000000004,0.0029222572186246476,0.0
17.701768,0.0029222572186246476,0.0
17.704156000000005,0.0029222572186246476,0.0
17.706552000000002,0.0029222572186246476,0.0
17.708948,0.0029222572186246476,0.0
17.711336000000003,0.0029222572186246476,0.0
17.713720000000002,0.002922257218624648,0.0
17.716120000000004,0.0029222572186246485,0.0
17.718508,0.0029222572186246485,0.0
17.720888000000002,0.0029222572186246485,0.0
17.723288000000004,0.0029222572186246485,0.0
17.725676,0.0020664810160616947,0.0
17.72806,0.0,0.0
17.73046,0.0,0.0
17.732848000000004,0.0,0.0
17.735228,0.0014110629942653081,0.0
17.737628,0.015482565057351131,0.0
17.740016000000004,0.04454147215976864,0.0
17.742400000000004,0.1003680713545417,0.008122437039066724
17.744796,0.1747688640587688,0.01555750078508196
17.747184000000004,0.2562903243013896,0.02327967437881014
17.749568000000004,0.3392510150672479,0.031968862466184716
17.751968000000005,0.44185493867132963,0.04036995417030992
17.754356,0.5621472161954608,0.04856796771668308
17.756736000000004,0.6957987809227136,0.05666031018544657
17.759136000000005,0.8395042794945553,0.06475250370187831
17.761524,0.9885606622838512,0.07312021101843724
17.763908,1.1542344638065583,0.08139495720758198
17.766308000000002,1.337736388876175,0.08953314268569369
17.768696000000006,1.5396727378283854,0.09743072038667391
17.771076,1.7539446606253222,0.10525015982877486
17.773476000000002,1.9707739709603784,0.11333557437932332
17.775864000000006,2.201706742603231,0.12141882287291006
17.778244,2.4521901992856896,0.12938472096987944
17.780640000000005,2.7126350420141203,0.13731031061401916
17.783028,2.974415096599378,0.14523258333585826
17.785412,3.224093790623255,0.15311214900543352
17.787812000000002,3.4577613662494056,0.16096639641269306
17.790200000000006,3.6547905156779765,0.16094353319084567
17.79258,3.8269596301041227,0.16179483926865895
17.794976000000005,3.9920080769918744,0.1623590354987593
17.797368000000006,4.166373867051019,0.1615750512453354
17.799748,4.313042695315897,0.16118329912955012
17.802144000000006,4.44085968667547,0.16097974963271205
17.804536000000006,4.55531739083192,0.1608818712134836
17.806916,4.6609318659572825,0.16074056976607365
17.809316000000003,4.760264291305411,0.1603445711379822
17.811704000000006,4.838975096427295,0.1601495838635891
17.814084,4.896784742069215,0.1601804520456076
17.816484000000003,4.933738554201542,0.1605446462771817
17.818872,4.957797713981703,0.1610350371240905
17.821252,4.984234853276357,0.16112271158434147
17.823652000000003,4.994706200143657,0.16125710409566607
17.82604,4.98097103417246,0.16162329350498483
17.828424000000005,4.964723806633517,0.16184877170067993
17.830820000000003,4.950665671296093,0.16194719060748552
17.833208,4.928878672226723,0.16223803095994566
17.835588,4.9082551561426095,0.1625424149158211
17.837988000000003,4.896431438977081,0.16263554714065517
17.840376,4.8944784559167775,0.16246531735714817
17.842760000000006,4.893316868789391,0.16228497628891275
17.845156000000003,4.880560090206214,0.16255551586053302
17.847544,4.8782312283778335,0.162691201404977
17.849928000000006,4.878880958826023,0.1628573429121536
17.852328,4.886700474498718,0.16287802002327548
17.854716000000003,4.897406034649365,0.16288521204517561
17.857096000000006,4.915049062599041,0.1627230079196943
17.859496,4.9351135001757145,0.1624696847943979
17.861884000000003,4.957040268871944,0.16216756228787169
17.864268000000003,4.979526116075615,0.1618116878533392
17.866664,5.005644077719781,0.16132829335378468
17.869052000000003,5.031250182684749,0.16085432360539428
17.871436000000003,5.064073294702468,0.16019502478928113
17.873832,5.099550133772661,0.1594667392890261
17.876220000000004,5.12622717392427,0.15896806373186556
17.878604000000003,5.145267898142547,0.15869841309041827
17.881,5.177437487996338,0.1581925082994714
17.883388000000004,5.206254502663353,0.15778346500042917
17.885768000000006,5.236794078823065,0.15734255843415557
17.888168,5.2710583172218906,0.15684522342380186
17.890556000000004,5.311561175285445,0.15625107715640044
17.892936000000006,5.353554277416217,0.15558985249125556
17.895336,5.395594601375232,0.15488818447524197
17.897724000000004,5.43465633305768,0.15415582499719913
17.900104,5.459750581343451,0.1537051518964125
17.902504,5.479537375524273,0.1533484990931568
17.904892000000004,5.4921071626523466,0.1531777103040469
17.907272,5.507330676832893,0.1529626143699076
17.909672,5.526977701386855,0.15262613897877272
17.912060000000004,5.5528633456055445,0.1521867376830778
17.914444000000003,5.578981307249711,0.15179024416500786
17.916844000000005,5.598626435945803,0.15161348095102029
17.919232,5.612637349454983,0.15159664635047332
17.921616,5.631583630016773,0.15147551713629276
17.924016,5.651088989086006,0.15131261653759837
17.926404000000005,5.676088793715291,0.15100255355596434
17.928784,5.698993949799542,0.1507065415053688
17.931184000000002,5.729535421817122,0.15021860910146922
17.933572000000005,5.762917612342282,0.14963925574926704
17.935952,5.78046998835121,0.14933702012507669
17.938352000000002,5.789269787269795,0.1491635201844447
17.940740000000005,5.79942006062874,0.14894716020577164
17.94312,5.805938219547188,0.14883587137497564
17.945520000000002,5.815621962197309,0.14869961928911155
17.947908000000005,5.837969935631989,0.14831903257790469
17.950292000000005,5.861249074626445,0.1479193834639707
17.952688000000002,5.890115206979574,0.1474273717030379
17.955076000000005,5.922706001571816,0.146883262837251
17.957460000000005,5.949849572432248,0.146427319267394
17.95986,5.970242666948754,0.14605149350037186
17.962248000000002,5.986399242546949,0.14572646773729817
17.964628000000005,6.006747011093081,0.14526315301934556
17.967028,6.027514088519793,0.1447719641101788
17.969416000000002,6.046046747774613,0.14429611483661858
17.9718,6.062717075909875,0.14384662216611557
17.974196,6.078456238485358,0.1434176584170405
17.976584000000003,6.089120264381369,0.1430926227079949
17.978968000000002,6.095221010277105,0.142883177011823
17.981364,6.095315453933592,0.14278789625062996
17.983752000000003,6.105140862068441,0.14251664730210897
17.986136000000002,6.117060918748326,0.14224460829603786
17.988532,6.130563767294046,0.141965434284749
17.990920000000003,6.146627795093624,0.1416126414171232
17.993304000000002,6.158315534348031,0.14131526944546685
17.995704000000003,6.162693718751071,0.14112763909457848
17.998092,6.169213773527389,0.14089444947502597
18.000476,6.172568244572034,0.14068538354565419
18.002872000000004,6.173967836698505,0.1404690642637099
18.00526,6.178952321437229,0.14020690949946937
18.007644,6.185100289161209,0.13995865417660308
18.010044,6.190689178377749,0.13974353708121565
18.012436,6.198931794646764,0.1394999214592544
18.014816000000003,6.207314180542638,0.13924825849075398
18.017212,6.21048166013218,0.13909707736535598
18.019604,6.218025428266892,0.13889481005601242
18.021984000000003,6.219562894162355,0.1387995403596619
18.024384000000005,6.226315266364149,0.1386022917221827
18.026772,6.233114860394187,0.13835858604410275
18.029160000000005,6.241776785543781,0.13808605581804015
18.03156,6.251369876253153,0.13780254635111358
18.033948,6.260730649537049,0.13748961547762284
18.036332,6.263992572783078,0.1372459315021583
18.038728,6.266323330469326,0.13701657574489903
18.04112,6.269026175207914,0.13680636178417932
18.0435,6.274754834051311,0.1365854115614039
18.045900000000003,6.281414658454492,0.13635345729935455
18.048292000000004,6.286724008417309,0.13616084098766282
18.050676000000003,6.287190539126134,0.13608916291700013
18.053072,6.283233559461545,0.13611246391572318
18.055460000000004,6.282349615730009,0.13607929687396852
18.057844000000003,6.286028951998747,0.13594291012904217
18.06024,6.283981525281956,0.13589376941590062
18.062632,6.283144803378665,0.13581500724775802
18.065012000000003,6.290828341140238,0.13561252012721425
18.067408,6.296929087035974,0.13541971589188004
18.0698,6.312109171104018,0.1350709782418037
18.072180000000003,6.3232850536792276,0.134792780317897
18.074580000000005,6.33613627591889,0.1345446047197223
18.076968,6.352292851517086,0.13427300945847703
18.079348000000003,6.364957082301645,0.13407990122718416
18.081748000000005,6.381345975325318,0.13384055191458424
18.084136,6.402902552827079,0.1335528130507438
18.086516000000003,6.426553778873875,0.13327210800746528
18.088916000000005,6.457142472719698,0.13288631135747836
18.091304,6.487219309886325,0.132491202154596
18.093688,6.514642420000477,0.13212718923094602
18.096088,6.544486939741626,0.13171085860863027
18.098476000000005,6.573400293922998,0.13129988405816542
18.100860000000004,6.6076683240375615,0.13078849644391624
18.10326000000001,6.641284727846067,0.13027800589136307
18.105648,6.6718280957215175,0.12982335074149576
18.108032,6.705304729903163,0.12932755228744391
18.11042800000001,6.735009480017452,0.12892137099583345
18.11282,6.762572359758464,0.12856098030610616
18.1152,6.79399967136545,0.12815291925920144
18.117600000000003,6.822493716666239,0.12779430373506254
18.119988,6.849265200474333,0.12744851842714508
18.12237200000001,6.87580436685695,0.12707847914154166
18.124772,6.89531351764192,0.1267715301491754
18.127160000000003,6.917663386934469,0.1263893583582552
18.129544000000003,6.937639068428263,0.1260226006830886
18.131944000000004,6.9541696269366655,0.1256849706121343
18.134332,6.9698162417135325,0.12531943854495087
18.136716,6.980946798318367,0.1250027757115061
18.139112000000004,6.991285958990284,0.12469007201325537
18.141504000000005,7.0025562852219805,0.12436810577891375
18.143888000000004,7.009682640333982,0.12410933833565592
18.146284,7.022815297685234,0.12376784569175747
18.148676,7.034597480596128,0.12346087934211569
18.151072,7.044237793133743,0.12318888826654388
18.153472,7.055228580111719,0.1228860403318996
18.155864,7.06356564003722,0.12260657846225848
18.158244000000003,7.074324109589716,0.1222767593202397
18.160644000000005,7.081497686529962,0.12197952042122108
18.163032,7.082804730857816,0.12175713592842628
18.165416,7.080526882573417,0.12156687707862192
18.167816,7.084115566901408,0.12130441196944505
18.170208,7.085422611229263,0.12108321986362912
18.172592,7.094039210408482,0.12079125707322447
18.175000000000004,7.101165565520484,0.12053885419741352
18.177392000000005,7.103728640632211,0.12036781082999916
18.179772,7.110575456490492,0.12013076239002232
18.182168000000004,7.114861093094915,0.11994911867765959
18.184556,7.115002758579646,0.11982631267465682
18.18694,7.112862784064237,0.11974404682013619
18.189336000000004,7.1110023488025496,0.1196475253428291
18.191724,7.113425654287417,0.11948452396851497
18.194108,7.117059664585782,0.11930018289844985
18.196504000000004,7.120042048578089,0.11911127783857442
18.198892,7.128379108503589,0.11884324629704479
18.201276,7.136576398802229,0.1185837690758596
18.203676,7.1447736891008695,0.11832393839213771
18.206064000000005,7.156044015332564,0.11802551270367334
18.208448000000004,7.172249708616872,0.11767051878351749
18.210844,7.189526337087818,0.11729797730102928
18.213232000000005,7.2083857574246,0.11692078521152242
18.215616000000004,7.222309810708771,0.11660438387581015
18.218012,7.240238065485776,0.1162409442275886
18.220400000000005,7.256303989143222,0.11589782628595298
18.222784000000004,7.274511783173946,0.11552566353295476
18.22518400000001,7.299796814630559,0.11506729366009888
18.227572,7.3185164653404815,0.11470856365726381
18.229952000000004,7.33951775605054,0.11431321620129574
18.23235200000001,7.3682479104925465,0.1138373242966334
18.23474,7.40033064012133,0.11330852349890125
18.237120000000004,7.431342434563473,0.11279793935551032
18.23952000000001,7.4591414234457005,0.11233552617390785
18.241908,7.478792239715402,0.11197402143705193
18.24429600000001,7.49923445191802,0.11161249537507044
18.246692000000003,7.5143219881874455,0.11132816169203583
18.249084000000003,7.525545092590898,0.11108236605854081
18.251468000000003,7.539421924046825,0.11082007616044648
18.253864,7.5502257195696965,0.1105969890400864
18.256252000000003,7.555814608786235,0.11044052752281483
18.25863200000001,7.566478634682246,0.1102265563250387
18.261032,7.579424300578395,0.10997858337272083
18.263420000000004,7.593301132034321,0.10972277915413478
18.265804000000003,7.600520034944939,0.10952748416061187
18.2682,7.60801847710928,0.10932010489328997
18.270588000000004,7.609650386661228,0.1091712022340198
18.272976,7.603553432481229,0.10909639032421552
18.275376,7.6018799886746455,0.10895803377921554
18.277764000000005,7.598995840054562,0.1088405745961107
18.280152,7.591316094008729,0.10876746101328919
18.28254800000001,7.583496578336034,0.10870060731309639
18.28494000000001,7.5743265882229815,0.10866061693392981
18.287328,7.565016828483068,0.10862715358675654
18.289724,7.561853140609264,0.10852271503450535
18.292116,7.555756186429265,0.10844713766200216
18.294504000000003,7.548588297062627,0.10838561126644523
18.2969,7.545936465868021,0.10829284886793171
18.299288000000004,7.542493238740497,0.10820126104220891
18.301680000000005,7.540260716426473,0.10808925018764218
18.304076,7.539238898925947,0.10795632737562719
18.306464000000005,7.535004275865505,0.1078657002859478
18.308864,7.526625681685368,0.10782366149588771
18.311272,7.519457792318732,0.10776116685403765
18.31366000000001,7.517085500377847,0.10765566247711593
18.31606,7.516435769929659,0.1075427070354184
18.318456000000005,7.521652572093861,0.10737358548632754
18.320848000000005,7.531944510937535,0.10714849666899383
18.323244000000003,7.54102574496771,0.1069443514170601
18.32564,7.550106978997885,0.10674043531320826
18.328032,7.559979608960977,0.10653561432203777
18.330432,7.5675705989239335,0.10636452810323291
18.332836,7.575580897767471,0.10617357121091585
18.335224000000004,7.586664232544063,0.10594886258098313
18.337624000000005,7.592532661014323,0.10578546702564214
18.34001600000001,7.604267622096972,0.1055674829708997
18.342416,7.620146554299316,0.10530208508077299
18.344812000000005,7.637375960942019,0.10501346520818758
18.347208,7.652603266838304,0.10474566382639404
18.349604,7.668621968667508,0.1044796221659968
18.352004,7.689715807176184,0.10416324332498265
18.354392000000004,7.7049431130724715,0.10389810585146685
18.35679200000001,7.72524555564823,0.10358116217735923
18.359188000000003,7.74312658859699,0.10330343010400482
18.361576,7.759796916732252,0.10304589604978805
18.36396000000001,7.770460942628263,0.10284761028017829
18.36636,7.782056134084054,0.10264487604489468
18.368752,7.794302951845903,0.1024495967998933
18.371132000000003,7.807760474421249,0.10223634546212804
18.373532000000004,7.821357766623456,0.10201734088724707
18.37592,7.837096929198939,0.10177428275813438
18.378300000000003,7.855257501401419,0.10149417867158267
18.380700000000004,7.8760718006563755,0.10120229143041758
18.383092000000005,7.894744229538055,0.10093667325792588
18.385472,7.922356226965179,0.10059236638517227
18.387868000000005,7.944241461406774,0.10029325522577773
18.390256,7.962122494355534,0.10003133183404372
18.39264,7.978001426557878,0.09979020494193337
18.395036000000005,7.992669653946723,0.09956605790831771
18.397428000000005,8.00040041353654,0.09940197534271318
18.399808,8.001985101260244,0.0992992318988941
18.402216000000003,8.01050725678298,0.09913531684515858
18.404604,8.015956376372657,0.09900264990352667
18.406988000000005,8.023687135962474,0.09883994345442124
18.409384000000003,8.032628600365788,0.0986596429252823
18.411776000000003,8.047855906262074,0.09841383200789727
18.41415600000001,8.058287614732608,0.09820448537172087
18.416552000000003,8.067927927270222,0.09799631931313368
18.41894,8.079151031673677,0.09779014956549378
18.42132400000001,8.091165532010045,0.09758483776497968
18.423724,8.098384434920666,0.09741407860862233
18.426112000000003,8.103461467458008,0.09726683221486711
18.428496000000003,8.104953607383095,0.09713650374963397
18.430896000000004,8.106865056188765,0.09698858819512489
18.433284,8.101187410889347,0.09689179778257138
18.435664000000003,8.098582801522985,0.09676655609075421
18.438064000000004,8.100261932903177,0.09659596060988912
18.440452,8.098076632417396,0.09645292038308888
18.442832000000003,8.101246007864805,0.09625353499168222
18.445232000000004,8.110281915924606,0.09600830138837001
18.44762,8.124253191037019,0.09572442920359248
18.450004,8.135430969470098,0.09545793055613146
18.452400000000004,8.147679683089814,0.09518093911854306
18.454788,8.16221003670967,0.09487846348091823
18.457172,8.174738289583107,0.0945928237075119
18.459572,8.182051636150211,0.09435744769720372
18.461960000000005,8.194440119396786,0.09407959364655924
18.464344000000004,8.202964170777388,0.09382791879104842
18.46674,8.206972163985961,0.09359695950766538
18.469132,8.209117826074978,0.09337642625224356
18.471512000000004,8.2191321215228,0.09309881841418814
18.47391200000001,8.23207968327682,0.09280104555884428
18.4763,8.247820741710171,0.09248827784315976
18.478680000000004,8.263422030516665,0.09218201422398745
18.48108000000001,8.278883549696298,0.09188018578692794
18.483472,8.293274133689293,0.09159027141227827
18.485856000000005,8.301518645816175,0.09135280605224377
18.488252000000003,8.313487820182173,0.09109497420333328
18.490644000000003,8.322383958615113,0.09086506984500826
18.493024000000005,8.330768240368856,0.09062382639295069
18.495424,8.333565528763929,0.09041192034319195
18.497812000000003,8.3380853786517,0.0901962302441574
18.50019200000001,8.337949400740577,0.09000402182069468
18.502592,8.330596415776705,0.08987351210158064
18.504980000000003,8.32631646674589,0.08971748581591818
18.50736000000001,8.324457927342074,0.0895290600650457
18.50976,8.317384481631924,0.08938692818868241
18.512148000000003,8.314315237414608,0.08921443383967462
18.514536,8.311245993197288,0.08904126186396506
18.516936,8.309387453793471,0.08885192812048814
18.519324000000005,8.300870985844345,0.08870114210888669
18.521708000000004,8.29077172602938,0.0885482523547479
