Time,Force,Position
18.169652,0.04783876993369819,0.0
18.172032,0.054080684225773355,0.0
18.174428,0.06525796557046054,0.0
18.176816,0.07350198060895256,0.0
18.1792,0.07974389490102773,0.0
18.181596,0.08398370844668607,0.0
18.183984,0.08943422680584312,0.0
18.186364,0.09102031329902668,0.0
18.18876,0.09167523423243193,0.0
18.191148,0.09167523423243193,0.0
18.193532,0.09167523423243193,0.0
18.195928,0.09167523423243193,0.0
18.198316,0.09167523423243193,0.0
18.2007,0.08985683031377109,0.0
18.203096,0.08375468564855613,0.0
18.205484,0.07886324579683991,0.0
18.207868,0.07304064038534537,0.0
18.210264,0.06707826534699063,0.0
18.212652,0.05804285437558051,0.0
18.215032,0.0499386089639487,0.0
18.217432,0.04383646429873374,0.0
18.21982,0.03759455000665857,0.0
18.222216,0.026417268661971378,0.0
18.224612,0.01817325362347936,0.0
18.227,0.011931339331404186,0.0
18.229384,0.00769152578574587,0.0
18.231784,0.0022410074265888113,0.0
18.234168,0.0006549209334052454,0.0
18.236548,0.0,0.0
18.238944,0.00014306425420755546,0.0
18.241328,0.0001463588815549007,0.0
18.243712,0.00028942313576245615,0.0
18.246108,0.00029271776310980143,0.0
18.248492,0.00029271776310980143,0.0
18.250876,0.0002927177631098015,0.0
18.253272,0.0002927177631098015,0.0
18.255656,0.0002927177631098015,0.0
18.258036,0.0002927177631098015,0.0
18.260432,0.0002927177631098015,0.0
18.26282,0.0002927177631098015,0.0
18.2652,0.0002927177631098015,0.0
18.267596,0.0002927177631098015,0.0
18.269984,0.0002927177631098015,0.0
18.272368,0.0002927177631098015,0.0
18.27478,0.0002927177631098015,0.0
18.277168,0.0002927177631098015,0.0
18.279548,0.0002927177631098015,0.0
18.281944,0.0002927177631098015,0.0
18.284332,0.0002927177631098015,0.0
18.286728,0.000149653508902246,0.0
18.289124,0.00014635888155490074,0.0
18.291512,3.2946273473452667e-06,0.0
18.293892,0.0,0.0
18.296288,0.0,0.0
18.298676,0.0005151513065450352,0.0
18.301056,0.0005151513065450351,0.0
18.303456,0.0005151513065450351,0.0
18.305844,0.0005151513065450352,0.0
18.308224,0.0005151513065450352,0.0
18.310624,0.0005151513065450352,0.0
18.313012,0.0005151513065450352,0.0
18.315392,0.0005151513065450352,0.0
18.317792,0.0005151513065450352,0.0
18.32018,0.0005151513065450352,0.0
18.32256,0.0005151513065450352,0.0
18.32496,0.0005151513065450352,0.0
18.327344,0.0005151513065450352,0.0
18.329728,0.0005151513065450352,0.0
18.332124,0.0005151513065450352,0.0
18.334512,0.0005151513065450352,0.0
18.336892,0.0005151513065450352,0.0
18.339296,0.0005151513065450352,0.0
18.341684,0.0005151513065450352,0.0
18.344064,0.0005151513065450352,0.0
18.346468,0.0,0.0
18.348856,0.0,0.0
18.351232,0.0,0.0
18.35364,0.0,0.0
18.356024,0.0,0.0
18.358404,0.0,0.0
18.360808,0.0,0.0
18.363196,0.0,0.0
18.365576,0.0,0.0
18.36798,0.0,0.0
18.370368,0.0,0.0
18.372748,0.0,0.0
18.375144,0.0,0.0
18.377532,0.0,0.0
18.379912,0.0,0.0
18.382308,0.0,0.0
18.384696,0.0,0.0
18.387076,0.0,0.0
18.389472,0.0,0.0
18.39186,0.0,0.0
18.39424,0.0,0.0
18.39664,0.0,0.0
18.399024,0.0,0.0
18.401404,0.0,0.0
18.403808,0.0,0.0
18.406196,0.0,0.0
18.40858,0.0,0.0
18.410976,0.0,0.0
18.413364,0.0,0.0
18.415744,0.002424704254344827,0.0
18.418148,0.006060113322188394,0.0
18.420536,0.010766457576670491,0.0
18.422916,0.012539535524957415,0.0
18.425312,0.014452383100104552,0.0
18.4277,0.015294295488613162,0.0
18.430084,0.01906947418331694,0.0
18.43248,0.022704883251160504,0.0
18.434868,0.028062853811700504,0.0
18.437248,0.03449175955887904,0.0
18.439652,0.042922766052474415,0.0
18.442036,0.04828073661301441,0.0
18.44442,0.05270754161377609,0.0
18.446816,0.05313014512170407,0.0
18.4492,0.054483914189410364,0.0
18.45158,0.05448391418941037,0.0
18.45398,0.05448391418941037,0.0
18.456364,0.05448391418941037,0.0
18.458748,0.05448391418941037,0.0
18.461144,0.057979553630393726,0.0
18.463532,0.057979553630393726,0.0
18.465924,0.05648930956317457,0.0
18.468324,0.05700116624237226,0.0
18.470708,0.062448389974181964,0.0
18.473088,0.06361187295943756,0.0
18.475496,0.06812793113146896,0.0
18.477884,0.06598606075819188,0.0
18.480264,0.0661258303850521,0.0
18.48266,0.0656139737058544,0.0
18.485048,0.06296024665337965,0.0
18.487432,0.06016674997404469,0.0
18.489828,0.061237685160683224,0.0
18.492216,0.06403118184001819,0.0
18.4946,0.07162027594510496,0.0
18.496996,0.07520516855735804,0.0
18.49938,0.08000406061045719,0.0
18.50176,0.0826610822902793,0.0
18.504156,0.08503856471638097,0.0
18.506544,0.08634511195584411,0.0
18.508924,0.08284947251486076,0.0
18.51132,0.08042476826051594,0.0
18.513708,0.07827960325989153,0.0
18.516092,0.07306140232621174,0.0
18.518488,0.06584110064611509,0.0
18.520876,0.06276477008571235,0.0
18.523256,0.05740679952517236,0.0
18.525656,0.05577349120374564,0.0
18.52804,0.05199831250904187,0.0
18.53044,0.04715219862769956,0.0
18.532836,0.04337701993299578,0.0
18.535219999999995,0.03773951011873536,0.0
18.537604,0.03131060437155683,0.0
18.54,0.024412774969294136,0.0
18.542387999999995,0.025846317918923927,0.0
18.544768,0.04366496217648753,0.0
18.547172,0.07647101147338281,0.0
18.54956,0.13283194730271802,0.010130425484043679
18.55194,0.20534566701450985,0.019522581952247854
18.554336,0.2892165731830063,0.02886196502984683
18.556724,0.3877060919658444,0.03805172764671729
18.559108,0.5034646557881515,0.04698751717903989
18.561504,0.6361201775975901,0.055691453581958955
18.563892,0.7845091744089044,0.0641950948592428
18.566272,0.9453262928635621,0.07262087901967086
18.568676,1.1133566266552306,0.08121363570227966
18.571064,1.289484119515445,0.09000899236393681
18.573448,1.4830204270419887,0.09867245349339475
18.575844,1.6975976636753576,0.10706444874240435
18.578228,1.9312609504973781,0.11522926090903236
18.580612,2.171253508924875,0.1234804475474467
18.583008,2.4207409226895193,0.13177103283896244
18.585392,2.6850778677245044,0.1399393626796982
18.587776,2.9586816394752904,0.14803999874297602
18.590176,3.2300528889120512,0.15602982684967395
18.59256,3.4855055677497018,0.16401327114673553
18.594944,3.7181966518457,0.17208463307125085
18.59734,3.922956560864087,0.17016576151950819
18.599728,4.111935773052355,0.16902959462774855
18.602108,4.293002921769311,0.16791699411471456
18.604504,4.456940795073659,0.16699206732183097
18.606892,4.596906368822855,0.16637898848234156
18.609288,4.713596595293332,0.16614112159333988
18.611684,4.81315565049333,0.16622018735156235
18.614072,4.9008909885278,0.16643607920258358
18.616451999999995,4.982484046411898,0.16645002425063674
18.618856,5.059239972615608,0.1661005079516915
18.621244,5.116352665981094,0.16590418299483284
18.623624,5.148512776545539,0.16614180925853206
18.62602,5.165264277332203,0.166572239347859
18.628408,5.183787457297675,0.1667379097338253
18.630792,5.193002773381103,0.1667966270813022
18.633188,5.181037390730846,0.16706210757306866
18.635576,5.154407572407482,0.16754394532563394
18.63796,5.123354243710704,0.16814916126267476
18.640356,5.103799766955357,0.16857141967034397
18.642744,5.0953720550891095,0.16880863888943878
18.645124,5.090436688036497,0.16893527781249665
18.647528,5.080333636505795,0.16916044146227183
18.649916,5.07125429833349,0.1694059661965134
18.652296,5.0749770647147345,0.16947749319898464
18.6547,5.0932244971422245,0.16935145759348288
18.657088,5.119340562928522,0.1690210133770877
18.659468,5.144480137184668,0.16860136035111475
18.661864,5.169527163642196,0.16813436404223359
18.664252,5.201556983869128,0.16760247277607718
18.666632,5.234143986745631,0.16719849337598977
18.669028,5.266591219995274,0.16679889080605165
18.671416,5.302205932834458,0.1661938354193578
18.6738,5.327065967836883,0.16579751489980005
18.676196,5.345500391719477,0.1656035283535928
18.678584,5.371429466050671,0.16535579988806942
18.680964,5.413280902696714,0.16482374464117092
18.68336,5.463839590462724,0.16403474049268252
18.685748,5.511279916325307,0.1632312416361203
18.688128,5.550292530321639,0.16267732836670087
18.690524,5.595496542154459,0.1620934499987821
18.692912,5.6490338221970395,0.16140254387903058
18.695296,5.707413921493615,0.16053984515062236
18.697692,5.764165902953979,0.15961749575077797
18.70008,5.811653450644805,0.1588487160003195
18.702464,5.854485170536738,0.15819377491843753
18.70486,5.9000631652797635,0.15755110564071292
18.707248,5.947643260769205,0.15686142423105084
18.709632,5.991406146220918,0.1561936563763869
18.712028,6.023250870850615,0.15569525336338846
18.714416,6.0544439691742555,0.15520385115794838
18.7168,6.093970335707655,0.1546169482879238
18.719204,6.132238775599314,0.15411112561186985
18.721592,6.176281200304746,0.1534262436581157
18.723972,6.217065493479888,0.1527300328951658
18.726368,6.248398361430388,0.1522226570215724
18.728756,6.267858394529245,0.1519724427675608
18.73114,6.286387262068326,0.15174690448697373
18.733536,6.302541941808651,0.15154059899882405
18.735924,6.314135237406573,0.15131632772265327
18.738304,6.313391063301896,0.15127589042912853
18.7407,6.307339435092272,0.15131286917568787
18.743088,6.305803865054678,0.151279455704511
18.745467999999995,6.300543632777972,0.1513076595476539
18.747868,6.292257586396453,0.15135423101085502
18.750256,6.279735021096624,0.15145172703929027
18.752635999999995,6.263115706505343,0.15158888065040177
18.755032,6.2530145508325115,0.1516157513721883
18.75742,6.247708992585431,0.15155851823068953
18.759803999999995,6.244545304711629,0.1514532433254721
18.7622,6.236493471613456,0.15139561044998312
18.764588,6.222901866984857,0.15138105124660284
18.766972,6.2129423767967555,0.1512688921584272
18.769368,6.201911951422014,0.15118011921554264
18.771756,6.189019194927717,0.1511221312309607
18.774136,6.179666005075298,0.15092734052187695
18.776532,6.172873994476737,0.15065733176504348
18.77892,6.160307999064403,0.15053479364629693
18.78132,6.150767817756882,0.15039494721529115
18.783716,6.147466256114087,0.1501641279797138
18.7861,6.149379600777625,0.1498196685076937
18.788484,6.152783189508383,0.14942503677438507
18.79088,6.153113742306084,0.149097436967851
18.793268,6.152186368462045,0.1488473756081908
18.795652,6.154843887230259,0.14854357554451766
18.798048,6.159410958946271,0.14816165500802084
18.800436,6.164397339542864,0.1477536513038991
18.80282,6.162446252340429,0.14748126170380327
18.805216,6.1591446906976355,0.1472506305863328
18.807604,6.162128970547813,0.1468891909704322
18.809988,6.163530458532153,0.14653651480654628
18.812384,6.163069615396937,0.1462128981951794
18.814772,6.159907823381003,0.14597193898899205
18.817152,6.163776046962715,0.1456411883823233
18.819552,6.1768161565153505,0.14517599455538138
18.82194,6.186363921254349,0.1447986923574931
18.82432,6.194049354873791,0.14444953712985165
18.82672,6.203876658866511,0.14405027932639236
18.829108,6.214495358792149,0.14364582303241324
18.831488,6.223251727598229,0.143272948432373
18.833884,6.229214599724976,0.14294498758088328
18.836276,6.231964666291805,0.14268609182203093
18.83866,6.231501927298719,0.14249584504198018
18.841056,6.237836886477803,0.14218815094938783
18.843448,6.243892306403165,0.1418982027637127
18.845832,6.245663985581974,0.14169940671695636
18.848228,6.245014255133785,0.1415639247680355
18.850616,6.242734510991517,0.14148644363466217
18.852996,6.246833156140837,0.14131875630103624
18.855396,6.245437355730105,0.14127431489407608
18.857784,6.252841354237956,0.14107999353467388
18.860164,6.260757209425007,0.14089674745481012
18.86256,6.271466561291393,0.14067206325469686
18.864948,6.279522186105304,0.14048370086283124
18.867332,6.281478960881348,0.14036605995153098
18.869728,6.28492597972461,0.1402010786974983
18.872116,6.289955790433709,0.14002582598925228
18.8745,6.300432824874616,0.13978099142320047
18.876896,6.312260333755884,0.1394999197488966
18.879284,6.323296446704232,0.13922399146299141
18.881668,6.332330458906164,0.13898122660890988
18.884064,6.34494936372035,0.13869452958805262
18.886452,6.3600822259601495,0.1383833753926355
18.888832,6.372701130774335,0.13809846651365715
18.891228,6.387601675588656,0.1377648347433653
18.893616,6.408089213761648,0.13735300710668735
18.896,6.4300197741736165,0.13693699825742367
18.8984,6.453300809025943,0.13647732327163095
18.900788,6.469132519400044,0.13612882167949625
18.903168,6.4864544738413645,0.1357342878439177
18.905564,6.493486385296879,0.13552862990108464
18.907952,6.50210108861823,0.1353134620322074
18.910336,6.51164695749936,0.13508760990095056
18.912732,6.520261660820711,0.13487626923275262
18.915116,6.527525889701703,0.13470162423612897
18.917496,6.531669860821397,0.134625609113815
18.919896,6.537676163060648,0.13452452521957664
18.92228,6.540888968620563,0.13446257516733257
18.924676,6.541959903807202,0.1344420607138604
18.927071999999995,6.544613630859677,0.1344131348646778
18.92946,6.549641545710906,0.1343710908011458
18.931844,6.554389921308415,0.1343457061056221
18.93424,6.560628540973143,0.13427609633810209
18.936624,6.569148800638008,0.1341597490224163
18.939004,6.577669060302873,0.13404541836987818
18.941404,6.584699075900519,0.13397522098072534
18.943788,6.5950816666849414,0.1338391664027176
18.946172,6.61333289082817,0.13359044678972568
18.948568,6.633725985344675,0.1333038304789
18.950956,6.654211627659799,0.13305355666572374
18.95334,6.685079860759344,0.13267058218639846
18.955736,6.718089964232165,0.13225285324671385
18.958124,6.750448441398929,0.13183656103743735
18.960519999999995,6.784669249685249,0.1314033982178429
18.962916,6.819541684277628,0.1309709338354071
18.965304,6.860560190736119,0.13043883316423874
18.967687999999995,6.902649632381245,0.1298955225234832
18.970084,6.944366986974036,0.12933832767111272
18.972472,6.98450154970099,0.12878630791921708
18.974848,7.023565177241305,0.12825466882515207
18.977244,7.065562071087816,0.12768637497598653
18.979632,7.105324546762433,0.12712203159667745
18.982012,7.143364460944353,0.1265760240270527
18.984408,7.174838994379582,0.1261468093304775
18.986796,7.204963053374452,0.1257546959050273
18.989176,7.234715025316984,0.12534455257447227
18.99158,7.2628842053936795,0.12494594864029251
18.993967999999995,7.280670794685955,0.12467098421158362
18.996348,7.296315513604952,0.12443137785955342
18.998748,7.312659080658251,0.12415688076241076
19.001132,7.321693092860182,0.12395774107742255
19.003516,7.32863245651708,0.123754292678788
19.005912,7.331847157934865,0.12359039384929354
19.0083,7.328543700434201,0.12349519805076593
19.010696,7.328592818120314,0.12334223772532
19.013092,7.326547287261392,0.12318364048755989
19.015476,7.317052431924244,0.12310216717703841
19.01786,7.304624310280902,0.12305637405119899
19.020256,7.298574577929146,0.12295014788237305
19.022644,7.294946255204389,0.12279694051433013
19.025024,7.292016780613931,0.12260993219779001
19.027424,7.288295910090557,0.12242468937604782
19.029812,7.283504104380544,0.12225547900200937
19.032196,7.281273477924388,0.12203192857708908
19.034592,7.27545795885598,0.12183850724288989
19.03698,7.2673607997874345,0.1216847225805351
19.03936,7.260194806278666,0.12152161442674753
19.04176,7.258755575755429,0.12129520325655758
19.044148,7.25852705004569,0.12104523792321753
19.046528,7.253083618029619,0.12086944120693634
19.048928,7.247640186013546,0.12069298442282696
19.051316,7.241358136236315,0.12055881328378394
19.053696,7.234144920899303,0.12043362568913435
19.0561,7.230935907055125,0.12025543583369885
19.058488,7.225445253210811,0.12011793324527331
19.060868,7.219255751232199,0.12001578683711309
19.063264,7.217722077052475,0.11986565795123827
19.065652,7.217631425111727,0.11971755978265086
19.068032,7.212093549439169,0.1196198070269986
19.070432,7.203063328952976,0.11958561754828828
19.07282,7.187747266973811,0.11964240109306522
19.075199999999995,7.174945162420261,0.11968504867728236
19.077604,7.167869820852241,0.11966432176401232
19.079988,7.164658911150195,0.11959985336588735
19.082372,7.165312433314122,0.11949187844755799
19.084768,7.173043192903937,0.11929350080622672
19.087156,7.178632082120476,0.11912797734395322
19.089535999999995,7.184220971337016,0.1189638999157279
19.091936,7.190601256486473,0.11879848759878212
19.094324,7.204989944621597,0.11853608214622949
19.096703999999995,7.22044956794336,0.11825706905309112
19.0991,7.238330600892121,0.11793466549150716
19.101488,7.26286956238619,0.11754612589366803
19.103868,7.2877806109325975,0.1171777029323004
19.106264,7.312040033172947,0.11680405835534485
19.108652,7.336439225040155,0.11642386811485292
19.111032,7.366844719146614,0.1159787250708333
19.113432,7.399671622880071,0.11549230857548368
19.115815999999995,7.432358756986667,0.1150118660768883
19.118216,7.46746730072026,0.11448836252751886
19.120612,7.505369341133191,0.11393627560565185
19.123,7.5444820863596185,0.11336744619111414
19.12538,7.576005737480959,0.11287534445408082
19.12778,7.605667057482743,0.11240555289107775
19.130168,7.637330478230945,0.11191845167230001
19.132548,7.660473639314281,0.11151203923764279
19.134952,7.680823303718283,0.11112780137715014
19.13734,7.697448305883172,0.11077617564473918
19.13972,7.714352847301781,0.11041346310419814
19.142116,7.725670395361719,0.11009960034930698
19.144504,7.744716807153605,0.10971622198043955
19.146888,7.759759017452656,0.10937676949630222
19.149284,7.7713561047663156,0.109057418320721
19.151672,7.784583205774054,0.10870086592991135
19.154052,7.801814508274626,0.10830486088854951
19.156448,7.8221188467082525,0.10787753472011458
19.158836,7.833763155850154,0.10752959148797911
19.16122,7.8426139683127225,0.10720397269031055
19.163616,7.856539917454762,0.10682741227494706
19.166004,7.871397032156579,0.10644680379675639
19.168388,7.885742290179199,0.10605444370203018
19.170784,7.896734973015043,0.10570782970122163
19.173168,7.910660922157082,0.10533371922541537
19.175548,7.924586871299121,0.10496176007035218
19.177948,7.936510719694745,0.10461208761106291
19.180336,7.956163431822314,0.10419894833633928
19.182716,7.977678475069439,0.1037705192451124
19.185112,8.001847245369042,0.1033285276935348
19.1875,8.024013914922225,0.10290702684853131
19.189896,8.046692441154606,0.10249606130863637
19.192292,8.057637902162208,0.10218953198376213
19.19468,8.071376859849144,0.10186342647429365
19.197064,8.087629774961695,0.10153275221119501
19.19946,8.101880589327829,0.1012229749508445
19.201848,8.114920698880463,0.10093461228060459
19.204228,8.126238246940403,0.10065515268717326
19.206628,8.141140687612594,0.1003569776408493
19.209016,8.15376148828465,0.10008755768336694
19.211396,8.159305051530813,0.09988519323418302
19.213796,8.160704643657285,0.09972493730862417
19.216184,8.165828898022868,0.0995415415425522
19.218568,8.172583166082532,0.09932258630721595
19.220964,8.180408369328836,0.09909258338311314
19.223352,8.188093802948277,0.09886956957108414
19.225732,8.189633164701608,0.09870412599363676
19.228128,8.187819951268164,0.09858056185931596
19.23052,8.19280443600689,0.09840634412013614
19.2329,8.196997524812696,0.09823238925132106
19.235296,8.20198200955142,0.09805855915067321
19.237684,8.211901861342758,0.09784611151821351
19.240068,8.227688245746483,0.09758733570182829
19.242464,8.243754169403932,0.0973184121575339
19.244852,8.25395356044899,0.09709464473374474
19.247232,8.262662707426825,0.09689942874439257
19.249628,8.266296717725192,0.0967490956319319
19.25202,8.269371649516117,0.09662238995786189
19.254404,8.270584250187483,0.09650671372770663
19.2568,8.27966548421766,0.09633077360301918
19.259188,8.293542315673585,0.09612174399053264
19.261568,8.310212643808848,0.09589603075238236
19.263971999999995,8.32553249750375,0.09569507181342253
19.26636,8.342155603810768,0.09550742006182639
19.268744,8.360361501983625,0.0953224077330985
19.271139999999995,8.37735669534298,0.09515451384213507
19.273528,8.40543332762106,0.09489624709626976
19.275912,8.428574592846527,0.0946736982017522
19.278308,8.443847224713187,0.09451152762171272
19.280696,8.459771482885905,0.09435595816201613
19.28308,8.475695741058622,0.09420065124163947
19.285476,8.486824401805588,0.09407747814935051
19.287864,8.49967562404525,0.09395091342438738
19.290248,8.512247307031192,0.0938362353936679
19.292648,8.530685522629526,0.09368103610293084
