Time,Force,Position
18.530028,0.04751193152815998,0.0
18.532428,0.0588028655899738,0.0
18.534812,0.06594982853209372,0.0
18.537192,0.07109469072779678,0.0
18.539604,0.0750288481100011,0.0
18.541992,0.0788232358653452,0.0
18.544372,0.07852119292363711,0.0
18.546784,0.07852119292363711,0.0
18.549172,0.07779984110134838,0.0
18.551552,0.07707848927905965,0.0
18.553968,0.07707848927905965,0.0
18.556352,0.07663667671049135,0.0
18.558732,0.07605509451506282,0.0
18.561136,0.07347141157321745,0.0
18.563524,0.06888562788495524,0.0
18.565904,0.06495147050275092,0.0
18.5683,0.06008614756076827,0.0
18.570688,0.05480151573820499,0.0
18.573068,0.048445948729003194,0.0
18.575472,0.04073990727944243,0.0
18.57786,0.03131130433718525,0.0
18.58024,0.02002037027537142,0.0
18.582644,0.012873407333251503,0.0
18.585028,0.007728545137548438,0.0
18.587412,0.003794387755344114,0.0
18.589808,0.0,0.0
18.592192,0.0,0.0
18.594576,0.0,0.0
18.596968,0.0,0.0
18.599356,0.0,0.0
18.601736,0.0,0.0
18.604132,0.0,0.0
18.60652,0.0,0.0
18.6089,0.0,0.0
18.611296,0.0,0.0
18.613684,0.0,0.0
18.61608,0.0,0.0
18.618476,0.0,0.0
18.620864,0.0,0.0
18.623244,0.0,0.0
18.625648,0.0,0.0
18.628036,0.0,0.0
18.630416,0.0,0.0
18.632812,0.0007213518222887315,0.0
18.6352,0.0007213518222887314,0.0
18.63758,0.0007213518222887314,0.0
18.639976,0.0007213518222887315,0.0
18.642364,0.004515739577632845,0.0
18.644748,0.007798270653779267,0.0
18.647144,0.01308290247634254,0.0
18.649528,0.021580339858821407,0.0
18.651912,0.03128848205479901,0.0
18.654308,0.04206755943741515,0.0
18.656696,0.05564013349936625,0.0
18.659076,0.06814177237467882,0.0
18.661484,0.07878108013043475,0.0
18.663868,0.09542669012544124,0.0
18.666248,0.10699716344097548,0.0
18.668644,0.11870740638336995,0.0
18.671032,0.1305574189526246,0.0
18.673416,0.14119672670838054,0.0
18.675812,0.15076509927749793,0.0
18.6782,0.1601937022197551,0.0
18.680596,0.16382581666025134,0.0
18.682992,0.16911044848281465,0.0
18.68538,0.17425531067851768,0.0
18.68776,0.18154204324749781,0.0
18.690156,0.18196135212807846,0.0
18.692548,0.1836839136207749,0.0
18.694928,0.1836839136207749,0.0
18.697324,0.1800517991802787,0.0
18.699712,0.17641968473978245,0.0
18.702092,0.17143709585892727,0.0
18.704488,0.16072774399254194,0.0
18.706876,0.153091428059212,0.0
18.709256,0.1470379039917183,0.0
18.711656,0.13039229399671187,0.0
18.714044,0.12033456843638446,0.0
18.716424,0.10862432549398998,0.0
18.71882,0.09677431292473532,0.0
18.721208,0.08613500516897939,0.0
18.723592,0.07656663259986198,0.0
18.725988,0.06713802965760478,0.0
18.728376,0.06378545447082898,0.0
18.730756,0.06029310965719297,0.0
18.733156,0.05628890816435926,0.0
18.735544,0.05186539779094493,0.0
18.737936,0.05144608891036431,0.0
18.740332,0.05023538409686557,0.0
18.74272,0.049396766335704306,0.0
18.745104,0.04711512633556704,0.0
18.7475,0.041341141521793745,0.0
18.749888,0.03554465302003278,0.0
18.752272,0.03268143082446699,0.0
18.754668,0.027816107882484346,0.0
18.757056,0.023230324194222125,0.0
18.759436,0.023230324194222125,0.0
18.76184,0.02171757643901528,0.0
18.764228,0.025232424940638973,0.0
18.766608,0.028607503815402457,0.0
18.769004,0.0354277056755588,0.0
18.771388,0.04317907309549346,0.0
18.773772,0.050278814209370234,0.0
18.776168,0.05423579387396078,0.0
18.778556,0.05782068648621385,0.0
18.780936,0.06312814059116335,0.0
18.783332,0.06699257245713684,0.0
18.78572,0.07192793950974886,0.0
18.788104,0.07793424174899942,0.0
18.7905,0.081147047308915,0.0
18.792888,0.0883640543616643,0.0
18.795268,0.10279806846716291,0.0
18.797664,0.12046739182056476,0.0
18.800052,0.13906788073374493,0.0
18.802432,0.1615328015128986,0.0
18.804832,0.18213539117249564,0.0
18.807216,0.20273798083209266,0.0
18.8096,0.22226963530505117,0.0
18.811996,0.23614457090310892,0.0
18.814384,0.252301146501304,0.0
18.816764,0.2591460665017158,0.0
18.819164,0.2631974898227927,0.0
18.821548,0.26976287056948406,0.0
18.823932,0.2815431576225079,0.0
18.826328,0.2916934309814524,0.0
18.828716,0.30277486990017516,0.0
18.831096,0.3103639640052619,0.0
18.833496,0.313297230311457,0.0
18.835884,0.3140886262443751,0.0
18.838264,0.3173014318042907,0.0
18.84066,0.31716166217743047,0.0
18.843048,0.30794255437826434,0.0
18.845428,0.29592994989976323,0.0
18.847828,0.28298617986148383,0.0
18.850212,0.26631774758409116,0.0
18.852596,0.25351374717267194,0.0
18.854992,0.23870764601483588,0.0
18.85738,0.22390154485699978,0.0
18.859764,0.20937498295288412,0.0
18.862176,0.1925667810486312,0.0
18.864564,0.184698147689824,0.0
18.866944,0.1766897447041566,0.0
18.86934,0.16467714022565544,0.0
18.871728,0.14852056462746047,0.0
18.874108,0.1357165642160413,0.0
18.876508,0.11818701048949966,0.0
18.878892,0.10459161414516234,0.0
18.881276,0.09292859303101102,0.0
18.883672,0.08384925485870506,0.0
18.88606,0.07556131261931724,0.0
18.88844,0.06769267926051004,0.0
18.890836,0.06517872183489552,0.0
18.893224,0.06145405959578223,0.0
18.895608,0.055797340720881494,0.0
18.898004,0.050000852219120526,0.0
18.900392,0.0422022629709427,0.0
18.902772,0.03640577446918174,0.0
18.905168,0.0316802211540593,0.0
18.907556,0.030237198915083287,0.0
18.90994,0.02800278074318916,0.0
18.912336,0.028701628877490216,0.0
18.914724,0.03447561369126349,0.0
18.917104,0.04332263443809216,0.0
18.9195,0.053380359998419565,0.0
18.921888,0.06301877667816634,0.0
18.924268,0.07766228592675598,0.0
18.926664,0.08837163779314128,0.0
18.929052,0.09915071517575741,0.0
18.931436,0.10720633998966796,0.0
18.933832,0.11325986405716167,0.0
18.936216,0.11996501443071328,0.0
18.9386,0.12639062555054448,0.0
18.940996,0.13174530148373712,0.0
18.94338,0.13838040774665933,0.0
18.94576,0.1468778451291382,0.0
18.94816,0.1533731817652002,0.0
18.950552,0.15758687840112495,0.0
18.952932,0.16194034466390994,0.0
18.955328,0.16501338059696533,0.0
18.95772,0.17209061802285444,0.0
18.9601,0.16559528138679241,0.0
18.962496,0.156026908817675,0.0
18.964888,0.1455273706887793,0.0
18.967268,0.13488806293302336,0.0
18.969664,0.12252619368457099,0.0
18.972052,0.10788268443598134,0.0
18.974436,0.09645198074730732,0.0
18.976832,0.08567290336469116,0.0
18.97922,0.07610453079557378,0.0
18.981604,0.06746732378623468,0.0
18.984,0.058969886403755827,0.0
18.986388,0.04954128346149864,0.0
18.988772,0.04225455089251851,0.0
18.991168,0.03561944462959629,0.0
18.99356,0.027122007247117424,0.0
18.99594,0.02139524426158729,0.0
18.998336,0.023025257955666664,0.0
19.000728,0.02237363164960876,0.0
19.003108,0.022373631649608764,0.0
19.005504,0.015296394223719676,0.0
19.007896,0.017647759740087778,0.0
19.010276,0.020930290816234202,0.0
19.012676,0.023281656332602305,0.0
19.015064,0.024701856289192088,0.0
19.017444,0.025190890686003546,0.0
19.01984,0.02519089068600355,0.0
19.022232,0.02519089068600355,0.0
19.024612,0.02519089068600355,0.0
19.027008,0.02519089068600355,0.0
19.0294,0.02519089068600355,0.0
19.03178,0.028885147211253636,0.0
19.034176,0.048220330939762586,0.0
19.036568,0.07886547929673308,0.0
19.038948,0.12198407526742074,0.011013156454320985
19.041344,0.17864705403846406,0.02151805392281591
19.043736,0.24678258934721545,0.03173957695648138
19.046116,0.3201292392465608,0.04179660805111468
19.048512,0.4076265722819459,0.051607108877374304
19.050904,0.5045715388262358,0.06147536792254227
19.05328,0.6229295215296886,0.07097168214225966
19.05568,0.7564619007275765,0.08014960830464274
19.058068,0.9064266030616412,0.0889461260233134
19.060452,1.068539887785329,0.09771633872176096
19.062848,1.2473178130706708,0.10631582628554455
19.06524,1.447136667462838,0.1146600579508441
19.06762,1.665552219052447,0.12285756059627115
19.070016,1.9002603241513727,0.1309137323812859
19.072404,2.1446502760425497,0.1389464664066002
19.074788,2.39793067879306,0.14696701770511714
19.0772,2.6585187405370676,0.15499460752138264
19.079588,2.9243502184434016,0.16295684956134981
19.081968,3.1771472743707085,0.17092588220727803
19.084368,3.42240624973691,0.1787668984291276
19.086752,3.649652005958968,0.17565336662843523
19.089136,3.857254529342802,0.1731518593037669
19.091532,4.049123577724761,0.17104798349430483
19.09392,4.235734289687882,0.16903116529134182
19.0963,4.410615728141961,0.16723958694562208
19.098696,4.571580696743347,0.1654145003355707
19.101084,4.707594978401561,0.16408029192264406
19.103468,4.822428561326088,0.1631841989129414
19.105864,4.91729025447256,0.16283022530781857
19.108252,5.006893611200193,0.16239296359632246
19.110632,5.0759678955002006,0.1622488042844065
19.113028,5.117622861401794,0.16253444058651204
19.115416,5.139168063756341,0.16302731833383086
19.1178,5.140229519653633,0.16386007321957755
19.120196,5.1371489002891,0.16462654361957488
19.122584,5.12811109637143,0.1653199529334568
19.124964,5.109810754542088,0.16600666861575733
19.12736,5.083271588159472,0.1666985085710286
19.129748,5.0535668380451835,0.16743170894589818
19.132132,5.02255693946091,0.16830453959797803
19.134528,5.003465201698649,0.1689665736005875
19.136916,4.992893723601256,0.16943378699004968
19.1393,4.983440402518743,0.16981971221722073
19.1417,4.964256116957866,0.17045751948708246
19.144088,4.950983689979753,0.17103557993630494
19.146472,4.948930575689355,0.17145692154648806
19.148868,4.958143995914913,0.1716737648750299
19.151256,4.971269069834688,0.1717374141674261
19.15364,4.987002544836564,0.17164035249895493
19.156036,4.998080192039549,0.17165448501045855
19.158424,5.018841581892653,0.17147639588678992
19.160808,5.0495662536495995,0.17107404756239492
19.163204,5.07898767279443,0.17065995328261982
19.165592,5.11236796746172,0.17001441736132777
19.167972,5.1417912824644185,0.16943952878546514
19.170372,5.174100641945071,0.16886423844323614
19.17276,5.213672334448845,0.16819500932424009
19.17514,5.250962386952482,0.16760330913990856
19.17754,5.284435229418389,0.16703848861469323
19.179928,5.314649940354007,0.16647113510579564
19.182308,5.3404411409162105,0.16605967209550831
19.184708,5.3708409474490635,0.1656185082096026
19.187096,5.40962124401992,0.16500664548708086
19.189476,5.456085078352349,0.16410867695173192
19.191872,5.494914492609318,0.16329735092207076
19.19426,5.526434352014921,0.16264921898545917
19.196644,5.557395132913083,0.16205622624812963
19.19904,5.592592432729556,0.16141088543354676
19.201428,5.628628350307189,0.1607098229946632
19.203812,5.659776122660455,0.16006373785268496
19.206208,5.688969016095546,0.1594286826771581
19.208596,5.719372614344137,0.1587697404825644
19.21098,5.756806228190372,0.15799926298679767
19.213376,5.795822633902444,0.15721939998701293
19.215768,5.830742290323065,0.15648690101081802
19.218148,5.857840535213124,0.15588036411668585
19.220548,5.882145283423847,0.15533861595385157
19.222936,5.9117574857395185,0.15471820023368282
19.225316,5.948958782160276,0.15395141353852035
19.227716,5.986160078581038,0.1531816021202146
19.230104,6.018892538658009,0.1524352943941494
19.232488,6.041661716831137,0.15186425342562476
19.234884,6.060426693511434,0.1513915232010591
19.237272,6.07756165649765,0.15098882752109088
19.239652,6.094556849857007,0.1505928176958177
19.242048,6.111227177992268,0.15012783378609812
19.24444,6.12394052646294,0.1496993720511945
19.24682,6.133580839000555,0.1493417644000572
19.249216,6.14238253377701,0.14903987837322064
19.251608,6.154257264486521,0.14866972955636645
19.253988,6.160265462583641,0.14841249477274765
19.256384,6.160407128068369,0.14826853289735498
19.258772,6.160036936873901,0.14811463194827712
19.261156,6.158456040865934,0.14799408685283802
19.263552,6.164883547843633,0.1477188973211553
19.265944,6.170659428515277,0.14743811140177274
19.268324,6.173269725455247,0.14718313420435475
19.27072,6.170432798663406,0.14701007286356024
19.273112,6.163591670378733,0.146914264736345
19.275492,6.1528861102280885,0.14688768242157163
19.277888,6.144974046756776,0.14681576780686953
19.28028,6.141205954405158,0.14665614727300672
19.28266,6.136506696493761,0.14651197135517754
19.28506,6.1281753241418695,0.14646658871414625
19.287448,6.121426743655813,0.14640891494450167
19.289828,6.113839545408595,0.1464047558854269
19.292224,6.108533987161516,0.1463430823956906
19.294616,6.097501665928905,0.14638214757240126
19.296996,6.0866091143231555,0.14641201011650795
19.299396,6.077439124210101,0.1464197434319078
19.301784,6.071621709283823,0.14634597975676908
19.304164,6.067946164730823,0.1462234342683075
19.30656,6.059055713871489,0.146213462310593
19.308952,6.05295875969149,0.14615735296646776
19.311332,6.037083619204885,0.14632590248569238
19.313728,6.026143845770891,0.14640106766661784
19.316116,6.011851497150123,0.14656012491940082
19.3185,5.998210774835411,0.14672387825650104
19.320896,5.986292614013396,0.14686579145555884
19.323288,5.9847570439758035,0.14682983074147382
19.325668,5.986014970617546,0.14674867596718205
19.328064,5.984339630953092,0.1467216682516533
19.330456,5.982664291288637,0.14669462337126968
19.332836,5.9862038579305175,0.14655714059821598
19.335236,5.992816460505452,0.14635862836602875
19.337624,6.001291394199943,0.1461305999662869
19.340008,6.009067479760132,0.14594853394990626
19.342404,6.025643364238909,0.1456075878830377
19.344792,6.044733206143299,0.14524341447833525
19.347176,6.063263969540249,0.14491646750048245
19.349572,6.080304488869979,0.14463898947415144
19.351964,6.098276173759487,0.14434855526675897
19.354344,6.116247858648995,0.14405400752325287
19.356744,6.1319379035383665,0.1438178687985761
19.359128,6.155915890667124,0.14341247312948732
19.361512,6.178543403355526,0.14305245558384927
19.363908,6.210529793469952,0.14250530874836456
19.366296,6.24852248582363,0.14185412481274434
19.36868,6.285304473363809,0.14123491372278318
19.371076,6.317570402731956,0.14068996709251294
19.373464,6.348113770607406,0.140172274687743
19.375848,6.381590404789052,0.13960575232297018
19.378244,6.415067038970697,0.13904342840566714
19.380632,6.444120162778929,0.1385779175793745
19.383012,6.469960481027244,0.1381813599872787
19.385408,6.4991533744623355,0.13772002026197208
19.3878,6.528905346404868,0.13722917900096074
19.39018,6.556515447974124,0.13678842248674067
19.39258,6.582542757677542,0.13636101254517333
19.394968,6.612062412194597,0.1358625771528254
19.397348,6.648147447458343,0.13524314962390027
19.399744,6.682370151602533,0.13464901910959073
19.402132,6.722459388359113,0.1339697101920398
19.404516,6.763899099556051,0.13325911346380487
19.406912,6.802545314073655,0.13259477739959424
19.4093,6.840539902285202,0.1319292949541642
19.411684,6.868104677884084,0.13144331528917846
19.41408,6.888592216057075,0.13107194172303815
19.416472,6.913363494976622,0.13062789688012028
19.418852,6.940136874642585,0.13015971723903533
19.421252,6.962626513561995,0.12976548486600284
19.42364,6.982834512481267,0.12941677120148187
19.426024,7.00169203696018,0.12910250990597102
19.428424,7.023669819200392,0.1286978656366744
19.430812,7.046206679948043,0.12826350288070415
19.433192,7.060595368083168,0.1279567053220791
19.435592,7.073773351404793,0.12767751277320677
19.43798,7.085089003606862,0.12742133754532703
19.44036,7.0946820943162345,0.12717994311597383
19.442756,7.09654632129366,0.12704079898324902
19.445144,7.091705397897534,0.12702617641966696
19.447524,7.088587035994106,0.12699764052782303
19.449924,7.081744011851562,0.12701107140183382
19.452312,7.071316095096767,0.12705882967369161
19.454696,7.057675372782057,0.1271603429525251
19.457092,7.043755111213625,0.12727628871234253
19.45948,7.041056058190778,0.1272253905766995
19.461864,7.041569810727844,0.12712094500569396
19.46426,7.03756750509288,0.12706138428960673
19.466652,7.027419127591804,0.1270928905367165
19.469032,7.0235565915836995,0.12702587032578255
19.471428,7.024117565949009,0.12688170742809515
19.473816,7.024306453261982,0.12671839223679351
19.4762,7.020863226134458,0.12662931222956433
19.4786,7.019002790872772,0.12653462980659289
19.480988,7.022217492290556,0.12636699095701487
19.483368,7.026223589641261,0.12619683506857077
19.485768,7.0283673558724065,0.1260464692069727
19.488156,7.031954144342531,0.1258977107710429
19.490536,7.040056990984684,0.12570442287312258
19.492936,7.048718916134279,0.12548098006741137
19.495328,7.056729214977814,0.1252538020685251
19.497712,7.062737413074934,0.1250538403915204
19.500108,7.072470273411167,0.12481333522945165
19.5025,7.083413838560899,0.12454636046398132
19.504884,7.093705777404573,0.1242747640586469
19.50728,7.095058147702801,0.12412642346022015
19.509672,7.09561912206811,0.12398123904448408
19.512056,7.098414514605315,0.12383528551701722
19.514452,7.105074339008493,0.12364090844209667
19.516844,7.1063794874784785,0.12353413215349762
19.519224,7.105263226321466,0.12347696436255899
19.52162,7.106660922590068,0.12340467777625495
19.524012,7.112993985911282,0.12326879752813212
19.526392,7.1194668188593555,0.12312707520760545
19.528792,7.126870817367208,0.12297692895867858
19.53118,7.131621088822587,0.12284830694305875
19.533564,7.142237892890353,0.12264881496065844
19.53596,7.152342840278924,0.12243811023952894
19.538348,7.164729427667632,0.12218954562097403
19.540732,7.178838576549037,0.12192980168494605
19.543132,7.193599351736499,0.12167565964589842
19.54552,7.212364328416795,0.12137069408338794
19.547904,7.227125103604257,0.1211173150725625
19.550304,7.244819145097915,0.12083037800694893
19.552692,7.263025043270769,0.12055482810404876
19.555092,7.284164207749819,0.12024283164173441
19.557484,7.307025933721565,0.11992151063511997
19.559868,7.326442536707919,0.11962308063485601
19.562248,7.344276347828437,0.11932954605228631
19.56464,7.366114360441789,0.11898523369590568
19.567028,7.3851588763758045,0.11866787692023122
19.569408,7.3995475645109305,0.11839606654932966
19.5718,7.4094201944740234,0.11816423839868044
19.574188,7.416499327757781,0.11796069254337341
19.576564,7.419574259548707,0.11780758925236365
19.57896,7.425442688018967,0.11762713368493656
19.581348,7.425584353503696,0.11750848679884206
19.583724,7.424794853428646,0.11739876165466112
19.58614,7.420792547793682,0.11733678826563926
19.588528,7.415859076598939,0.11728362903536248
19.590908,7.410273979098139,0.11722546877973658
19.593304,7.403617946410699,0.11718272986306401
19.595688,7.402828446335651,0.11707444724900898
19.598068,7.4012475503276836,0.11696836772816704
19.60048,7.403298768760213,0.11679710447284321
19.602868,7.408283253498937,0.1165950409366965
19.605248,7.409403306371688,0.11643299507741256
19.607664,7.411454524804217,0.11626203332900494
19.610048,7.417090635849,0.11606521996747217
19.612432,7.4217955813340035,0.11587769786727539
19.614836,7.4275714620056466,0.11567447507844125
19.61722,7.436420378610344,0.1154321875471701
19.619604,7.447923022267516,0.11517167862734108
19.621996,7.457795652230609,0.11495167639700635
19.624384,7.469670382940119,0.11470748251905097
19.626764,7.479543012903213,0.11448696964048596
19.629168,7.490346808426085,0.1142571209475981
19.631552,7.501802230255015,0.1140322584251162
19.633932,7.512466256151026,0.11380879469231237
19.636336,7.525272152420315,0.11355645193591365
19.638724,7.537938279062742,0.11331134476161143
19.641104,7.5499527793991135,0.11306215222308512
19.643508,7.557311451936592,0.1128557568058337
19.645892,7.562528254100793,0.11267937883782002
19.648272,7.561319445145164,0.11259180159605567
19.650676,7.559319240256616,0.11250606295179182
19.653064,7.56346510723418,0.11234703711687018
19.655444,7.572546341264354,0.11213706767388551
19.65784,7.579253387495775,0.11193223235266461
19.660228,7.585169037794277,0.11172913548172834
19.662604,7.596020055145392,0.11147676422682118
19.665008,7.610735504362479,0.11119063720968562
19.667396,7.624659557646651,0.11090650721321824
19.669776,7.645288761304371,0.11052879828251258
19.67218,7.6700619360817885,0.11010697026473706
19.674568,7.697256520486202,0.10964659778722509
19.676948,7.727524140823671,0.10915416040390752
19.679344,7.759933631534417,0.10863731741491012
19.681732,7.794345222991579,0.10810106345837245
19.684116,7.824612843329048,0.10761297012474089
19.686512,7.855811629226294,0.10711935168715092
19.688896,7.8865911062429594,0.10664546402406389
19.691276,7.916951274379046,0.10618900541222838
