Time,Force,Position
18.321016,0.015023083919041162,0.0
18.3234,0.011360334702365242,0.0
18.325796,0.004981945410777208,0.0
18.328184,0.009995169067812079,0.0
18.330564,0.014046592388888932,0.0
18.332968,0.020472203508720116,0.0
18.335352,0.026696131979253728,0.0
18.337736,0.03292006044978734,0.0
18.340132,0.03700211854704389,0.0
18.342516,0.04201534220407876,0.0
18.3449,0.04716833548797385,0.0
18.347304,0.052461098398729145,0.0
18.349688,0.061618293175457924,0.0
18.352068,0.06584012089957468,0.0
18.354468,0.07471777642258304,0.0
18.356852,0.08359543194559141,0.0
18.359232,0.09447518821501663,0.0
18.361632,0.10121097336474792,0.0
18.36402,0.10487372258142384,0.0
18.366412,0.10487372258142384,0.0
18.36882,0.10487372258142384,0.0
18.371204,0.10487372258142384,0.0
18.373584,0.10386470041722269,0.0
18.375984,0.09885147676018781,0.0
18.378372,0.09248777866279399,0.0
18.380756,0.08440151907270373,0.0
18.383152,0.07817759060217012,0.0
18.38554,0.07195366213163651,0.0
18.38792,0.06787160403437996,0.0
18.39032,0.06285838037734509,0.0
18.392708,0.05770538709345001,0.0
18.395088,0.05241262418269472,0.0
18.397488,0.04325542940596593,0.0
18.399876,0.03903360168184917,0.0
18.402256,0.030155946158840805,0.0
18.404652,0.02127829063583244,0.0
18.407044,0.010398534366407225,0.0
18.409424,0.003662749216675921,0.0
18.41182,0.0,0.0
18.414208,0.0,0.0
18.416588,0.0,0.0
18.418984,0.0,0.0
18.421372,0.0,0.0
18.423752,0.0,0.0
18.426152,0.0,0.0
18.428536,0.0,0.0
18.43092,0.0,0.0
18.433324,0.0,0.0
18.435712,3.0634776179697865e-05,0.0
18.438092,0.0022031399256364575,0.0
18.440488,0.004235875448233006,0.0
18.442876,0.006687919851410186,0.0
18.445256,0.007789489814228414,0.0
18.447656,0.009170599030767062,0.0
18.450044,0.013764513807221303,0.0
18.452424,0.021431464516730926,0.0
18.45482,0.03124028559951761,0.0
18.457208,0.039186775562747654,0.0
18.459588,0.049275135899254766,0.0
18.461984,0.059223726608901656,0.0
18.464372,0.06530788545257506,0.0
18.466756,0.07232320985602678,0.0
18.469152,0.07919876463261828,0.0
18.471536,0.08700548496898812,0.0
18.473936,0.08745542862574843,0.0
18.476332,0.088045141909369,0.0
18.47872,0.08928648149904743,0.0
18.4811,0.08928648149904744,0.0
18.4835,0.08925584672286774,0.0
18.485888,0.08708334157341097,0.0
18.488268,0.08505060605081444,0.0
18.490664,0.08259856164763726,0.0
18.493052,0.08149699168481903,0.0
18.495432,0.08011588246828039,0.0
18.497836,0.07552196769182613,0.0
18.500224,0.06785501698231651,0.0
18.502604,0.058046195899529814,0.0
18.505,0.050099705936299775,0.0
18.507388,0.04001134559979267,0.0
18.509768,0.030062754890145777,0.0
18.512164,0.023978596046472376,0.0
18.514552,0.016963271643020653,0.0
18.516932,0.010087716866429139,0.0
18.519332,0.002280996530059306,0.0
18.52172,0.002048679104582036,0.0
18.5241,0.0014589658209614978,0.0
18.526496,0.0002176262312830587,0.0
18.528884,0.00021762623128305874,0.0
18.531268,0.00021762623128305874,0.0
18.533664,0.00021762623128305874,0.0
18.536048,0.0008545613431467484,0.0
18.538444,0.0008545613431467483,0.0
18.540844,0.0024226620147887582,0.0
18.543228,0.00706379861948615,0.0
18.545612,0.00956306485090648,0.0
18.548008,0.01299349664210513,0.0
18.550392,0.01563253250038567,0.0
18.552776,0.021204834664861387,0.0
18.555172,0.023564331269421503,0.0
18.55756,0.027646389366678056,0.0
18.559944,0.03265961302371293,0.0
18.562344,0.03739329742702738,0.0
18.564732,0.0411958162705635,0.0
18.567116,0.04900253660693334,0.0
18.569512,0.05873350108529718,0.0
18.5719,0.06933371810100196,0.0
18.574284,0.07900276955692843,0.0
18.57668,0.09039438250555135,0.0
18.579068,0.10485903138722963,0.0
18.581448,0.11811297545540916,0.0
18.583844,0.1299385884788069,0.0
18.586236,0.1411904318005696,0.0
18.588616,0.15301604482396733,0.0
18.591016,0.16148908266058928,0.0
18.593404,0.17024165975093164,0.0
18.595784,0.17606097053507883,0.0
18.598184,0.18346307318506225,0.0
18.600572,0.1842072472897372,0.0
18.602952,0.18830399658118796,0.0
18.605352,0.1890953925141061,0.0
18.60774,0.18788468770060734,0.0
18.610124,0.18695352214082903,0.0
18.61252,0.18588258695419052,0.0
18.614904,0.17973651508807975,0.0
18.617288,0.16978792437843288,0.0
18.619684,0.1596376510194884,0.0
18.622072,0.14996859956356193,0.0
18.624452,0.13857698661493903,0.0
18.626852,0.12411233773326076,0.0
18.62924,0.1108583936650812,0.0
18.631624,0.09839584552981977,0.0
18.634028,0.08714400220805708,0.0
18.636416,0.07375028851301732,0.0
18.6388,0.060636114071697965,0.0
18.641196,0.04938427074993527,0.0
18.643584,0.04013452817458942,0.0
18.645968,0.030093389666325472,0.0
18.648368,0.023776913397174804,0.0
18.650752,0.01732066750116392,0.0
18.653132,0.012447213470989257,0.0
18.655528,0.008644694627453129,0.0
18.657916,0.005431889067537535,0.0
18.660296,0.0032900186942604742,0.0
18.662692,0.005292119440677325,0.0
18.66508,0.010165573470851985,0.0
18.66746,0.013378379030767579,0.0
18.669856,0.020998107912034047,0.0
18.672244,0.027592227577035895,0.0
18.674628,0.03511561694394682,0.0
18.677024,0.042450118997885145,0.0
18.679408,0.05913970676211134,0.0
18.681808,0.08658018064735826,0.0
18.684204,0.13128969957207418,0.010889294033613665
18.686588,0.1914059324167024,0.021064382701067228
18.688968,0.26739540989006666,0.030502542972702162
18.691372,0.35260020344685866,0.03999486770760065
18.69376,0.44911496163211234,0.04948175613429228
18.696144,0.5548903618711675,0.059256189259073645
18.69854,0.6810078430827469,0.0685053033700235
18.700928,0.8233706559753998,0.07750383057987936
18.703308,0.980815317563871,0.08628549908816746
18.705704,1.144743711578872,0.09523994793320538
18.708092,1.3249174372749468,0.10402352527176773
18.710476,1.5129087827858472,0.11289215360684332
18.712872,1.712861719231267,0.12173382711869894
18.71526,1.9255223165737503,0.13052593694364478
18.71764,2.143768011417034,0.13927414621491682
18.720044,2.3764458245079476,0.14787156323940692
18.722428,2.6237427473015935,0.15626717235287146
18.724808,2.885753223454459,0.16446077114218316
18.727212,3.1465095646813213,0.1724998832678822
18.7296,3.3999148168021813,0.1803906536523355
18.73198,3.632792892353282,0.1773829696782328
18.734376,3.8466793613722183,0.17515377545151234
18.736764,4.044785133561035,0.17370437733921057
18.739144,4.24233561895815,0.17201512949239917
18.74154,4.425829864875712,0.17033323407355674
18.743928,4.593872070902987,0.16841887301897246
18.746312,4.726813316628146,0.16733311913899687
18.748708,4.839085720298815,0.166638240330437
18.751096,4.938091384564981,0.16617421066032578
18.753476,5.037193388345502,0.1653919093977988
18.755872,5.118607038205973,0.16478887286870783
18.75826,5.180609772653699,0.16430307519738008
18.76064,5.226879032099547,0.16394597642608666
18.763048,5.263978301432344,0.16366320496457448
18.765436,5.297354804383895,0.16332657175576568
18.767816,5.31867527274444,0.1630860371319366
18.770212,5.321701086849252,0.16305528972434008
18.7726,5.306757111922426,0.16329128760788816
18.77498,5.286086374010068,0.1636498828394463
18.77738,5.263179322067947,0.16416937667204531
18.779768,5.24632389833545,0.16463361568509985
18.782148,5.2292361571774775,0.1650742091317032
18.784544,5.211264472287969,0.16548245847391305
18.786932,5.180581334785658,0.16624578606557358
18.789312,5.158975639597784,0.16691934321838342
18.791712,5.1519418322844,0.16734681431658235
18.794096,5.167815076913136,0.16725927940386312
18.796492,5.189322536728786,0.16699175992307969
18.798892,5.208735347999402,0.1667307812878487
18.801276,5.222141857030767,0.16662841792620567
18.80366,5.235501144233888,0.16657800831511219
18.806056,5.261943971102149,0.16618814206111643
18.808448,5.2899242638658714,0.16567311269196494
18.810828,5.3150657339798855,0.165121545632656
18.813224,5.332106253309616,0.1647358484294671
18.815612,5.35110165155752,0.1643602423566448
18.817992,5.373774490216295,0.16395812380004654
18.820392,5.399380595181264,0.16347954445251034
18.822776,5.419399706787564,0.16311946112987452
18.82516,5.439558588020723,0.16274979015593616
18.827564,5.457296059626886,0.1624663535879327
18.829952,5.484297965002588,0.16204080071826438
18.832332,5.510508474445373,0.1616214318512872
18.834736,5.541189716089813,0.161002710286225
18.837124,5.562466754337855,0.16054743641384359
18.839504,5.576014928853948,0.16028467565582463
18.841904,5.582346096317293,0.16021500457131216
18.844292,5.5840214359817475,0.16023986019903955
18.846672,5.581739795981608,0.1603094648725845
18.849068,5.576292572249799,0.16041570019761076
18.851456,5.575129089264544,0.16040276079957289
18.853836,5.5762000244511825,0.16037418145748672
18.856236,5.581507478556132,0.1602845746215746
18.85862,5.588397724526917,0.16017901543145488
18.861004,5.598361006430757,0.15999740962652725
18.8634,5.606601726841902,0.1598446592062755
18.865788,5.614562907999326,0.159712345453131
18.868168,5.624246650649447,0.1595549432184133
18.870564,5.638912982180422,0.15923609651805629
18.872952,5.652555600353003,0.15889517075645868
18.875336,5.668759397779442,0.15847271578553326
18.877732,5.68086644591443,0.15810711115849213
18.88012,5.695906760355612,0.15768057710447272
18.882504,5.708805204423518,0.1573071129961094
18.8849,5.726127158864837,0.1568138742973345
18.887288,5.7409351558805435,0.15635151228173527
18.889672,5.758955958456164,0.15581578339274935
18.892076,5.780282114390317,0.15523442658754338
18.894464,5.807567350735479,0.1545654890479859
18.896848,5.838856788573473,0.15380660431552634
18.899252,5.871356931224966,0.15302773562574806
18.901636,5.898781937196988,0.15238072053619947
18.90402,5.923925303168872,0.15180335293107083
18.906412,5.948556812461557,0.15121850365340764
18.9088,5.970022738022571,0.15065923665317502
18.911184,5.989254245411692,0.15011277506060858
18.91358,6.008393205002195,0.14952895682835912
18.915968,6.027811703846418,0.14893212891947918
18.918352,6.042666922690366,0.14845390162233407
18.920748,6.060455407840509,0.147924711020411
18.923132,6.07358806519176,0.14747529793170655
18.925516,6.086301413662433,0.14705605760582546
18.927916,6.0964535828792465,0.1467131421896114
18.930304,6.111261579894952,0.14629508627053733
18.932684,6.126721203216715,0.14588418273294682
18.93508,6.147116193591091,0.14538196212653307
18.937468,6.160294176912716,0.1450306708336887
18.939848,6.1760333394882,0.14460790900882836
18.942248,6.190609019078428,0.144173272848124
18.944632,6.200948179750345,0.14378571876387714
18.947016,6.200764980010979,0.14357541151072636
18.949412,6.193272225420249,0.1434738223795595
18.951804,6.185919240456378,0.14336319383689317
18.954184,6.176516932917846,0.14333872259958835
18.956584,6.171211374670766,0.1432757697491463
18.958972,6.167768147543242,0.1431830588546989
18.961352,6.165488403400974,0.14310546493548582
18.963752,6.161159336684047,0.14311327100207188
18.96614,6.162277493698929,0.14304247299956604
18.968524,6.157249578847698,0.14309442635959307
18.970928,6.156365635116162,0.1430616139246109
18.973312,6.152688194705293,0.14307231280645186
18.975696,6.148219358361506,0.14308928879418129
18.978092,6.139886090151743,0.14317317242418695
18.98048,6.130901195635923,0.14325233335422827
18.98286,6.118191638880989,0.1433872590855182
18.985256,6.1085551180591136,0.14346325055326004
18.987644,6.095286482796739,0.14363431890727468
18.990024,6.081970625706124,0.14385167424829937
18.992428,6.072891287533817,0.14402354438157977
18.994816,6.0743343097727935,0.14402129273430406
18.997196,6.086159922796192,0.14385229288757478
18.999596,6.099428558058564,0.14368304167610002
19.00198,6.1163293077614345,0.1434187800630515
19.004364,6.132997740038827,0.14312834055271406
19.00676,6.148874776383302,0.1428454591732317
19.009148,6.160095984928885,0.14263114575755187
19.011528,6.172947207168547,0.14235945824638443
19.013932,6.184495176796094,0.14208419019798704
19.01632,6.199395721610416,0.14173114375119258
19.018704,6.208662051237824,0.14150762131546618
19.0211,6.220442338290848,0.14125861434024284
19.023488,6.236878453142764,0.14093991722927182
19.025872,6.255176899114237,0.14059324113086286
19.028268,6.273335575458849,0.1402586859469101
19.030652,6.293868439602215,0.13990983184409783
19.033036,6.315052930051639,0.13956464794252635
19.035432,6.341033017926816,0.1391441769764519
19.03782,6.369574285055848,0.1386582530895383
19.0402,6.395182285878686,0.13822322626435593
19.042596,6.420138660395468,0.1377953734547213
19.044984,6.440299437486496,0.13744650385500076
19.047364,6.456083926032354,0.13714590015210074
19.04976,6.474289824205209,0.13679407470891725
19.052148,6.493007579057263,0.1364581509563692
19.054528,6.513168356148291,0.13612435313603563
19.056928,6.540266601038348,0.13568178733540548
19.059316,6.568016472234463,0.1352464186951356
19.061712,6.594276099363359,0.13485705160942676
19.064108,6.620256187238535,0.13448520491347551
19.066496,6.651590951046904,0.1340115037490296
19.068876,6.683345023735853,0.13351588648066717
19.071276,6.715797944559102,0.13298982628543188
19.07366,6.750532505382489,0.13242357844284294
19.076044,6.782194030272822,0.1319076724904608
19.07844,6.810550201804622,0.1314153874278938
19.080824,6.841467552590279,0.13086634721788315
19.083208,6.8721525859504595,0.1303004458851725
19.085604,6.899112957071527,0.1297834582112291
19.087992,6.928075428939009,0.12923700909156835
19.090372,6.949261815246303,0.1288356393326802
19.092772,6.96816656155346,0.12847695949116528
19.09516,6.99107550935345,0.12805872376524607
19.097544,7.007139537153027,0.12777852524849367
19.09994,7.023203564952605,0.1275013245912139
19.102328,7.035123621632489,0.12729002292109978
19.104712,7.043039476819539,0.12713925744338997
19.107108,7.050723014581112,0.1269632083417544
19.109496,7.060967731596542,0.1267298566523406
19.11188,7.07307477973153,0.12647667283586425
19.114276,7.08411089267988,0.12624332941908675
19.116664,7.096217940814866,0.12599425933022532
19.119048,7.105903579322856,0.1257971702559302
19.121452,7.113587117084429,0.1256294741512644
19.12384,7.124064151525337,0.12543143865190026
19.126224,7.139988409698055,0.12518225468518945
19.12862,7.154701963057273,0.12496054926095401
19.131008,7.1659231716028575,0.12480510718229133
19.133392,7.177796006454497,0.1246540921206353
19.135788,7.190600006865916,0.12449485974144876
19.138176,7.210109157650888,0.12422029879888233
19.140556,7.234321358062994,0.12385799142253442
19.142956,7.257602392915321,0.12350875240282119
19.145344,7.285306938141062,0.12308591946290319
19.147724,7.309007281873971,0.12271531284625853
19.15012,7.335408574487595,0.12228166264403545
19.152508,7.361949636728082,0.12184130227195318
19.154892,7.386720915647628,0.12145425175946162
19.157288,7.407580540872958,0.12115265073340532
19.159676,7.425367130165234,0.12089410185483969
19.16206,7.441943014644009,0.12065952638700211
19.164456,7.455166323936008,0.12048159185711528
19.166844,7.46745846766823,0.12031342916980783
19.169224,7.477329201773454,0.12019187997569142
19.17162,7.486268770318899,0.12007995890691048
19.174012,7.491343906998374,0.12001303379682002
19.176392,7.49469648218515,0.11995802789233065
19.178792,7.4993995318122835,0.1198734421377358
19.18118,7.507315386999333,0.11974193497069167
19.18356,7.514439846253467,0.11961363639184205
19.18596,7.520213831067239,0.11951542877893058
19.188348,7.5215643055075985,0.11948638726315494
19.190732,7.52049337032096,0.11950193872049548
19.193128,7.5182117303208225,0.11953951340945498
19.195516,7.5190031262537405,0.11953749028991792
19.1979,7.5212375444256345,0.11953824975150322
19.200296,7.525474063343945,0.1195152514391441
19.202684,7.532131991889254,0.11944869932942591
19.205068,7.540839243009223,0.11932015030439007
19.207464,7.552899069315966,0.11913984601693994
19.209852,7.565517974130151,0.11893325864972978
19.212236,7.581489454131112,0.11867500498150133
19.214636,7.594807207079599,0.11843449113267743
19.217024,7.612548470401499,0.11812777241008038
19.219408,7.631360668910038,0.11780671639555161
19.221804,7.650312637045438,0.1174792576182413
19.224196,7.668053900367339,0.11717337979398709
19.226572,7.681651192569546,0.11692054226053389
19.228968,7.690964744025198,0.11672918978550317
19.231352,7.696134324361156,0.11659105096009788
19.233736,7.699721112831279,0.11645669016663103
19.23614,7.709593742794372,0.11623962010211707
19.238524,7.7223070912650424,0.11596003853958121
19.240908,7.733437647869877,0.11568427281959266
19.243312,7.741774707795377,0.11543335461282062
19.245696,7.751741781414958,0.11514411312799988
19.24808,7.759846523914981,0.11487254995941497
19.250484,7.765157769735668,0.11462602543929593
19.252868,7.771120641862414,0.1143853365819702
19.255248,7.776943744362299,0.11415291669549124
19.257652,7.782347537981606,0.11393999476544234
19.260036,7.784026669361797,0.11375856314298571
19.262416,7.793434664473935,0.11350327802812762
19.26482,7.795905191787045,0.11332106845707075
19.267208,7.800797128727153,0.11309965817930585
19.269588,7.805037439361202,0.11287316755166255
19.271984,7.81141962036853,0.11261908154366683
19.274372,7.824227412495687,0.11228237188037063
19.276756,7.837594283130285,0.11191962902211124
19.279152,7.858178160817632,0.11147381779784217
19.28154,7.881415765557455,0.11101333421953337
19.28392,7.900649168804445,0.11059938368414396
19.286316,7.915970918357217,0.11025729497155722
19.288704,7.9330152294026846,0.10990737271966443
19.291084,7.953784202687266,0.1095286404738553
19.29348,7.969850126344713,0.10922436841409577
19.295868,7.9864279066813575,0.10893219713322405
19.298248,8.005799183697338,0.1086197555438261
19.300652,8.02875535332557,0.10828909075100485
19.30304,8.049569652580526,0.10798627203295551
19.30542,8.070663491089205,0.10767164731746369
19.307816,8.095481991836994,0.10733009745715169
19.310204,8.114433959972393,0.10704514350996402
19.312584,8.142185727026376,0.10668180768275244
19.31498,8.162440947773892,0.10640860861910277
19.317368,8.186001521879941,0.10612808476945348
19.319748,8.206349290426072,0.10588561255964682
19.322144,8.220923074158431,0.10572566585770522
19.324532,8.237079649756629,0.1055649358019057
19.326928,8.24895248460827,0.10545622923059811
19.329324,8.259894153900131,0.10535489783857592
19.331712,8.269625118378494,0.10527196070487287
19.334092,8.28606123323041,0.1051032971634913
19.336488,8.300635016962769,0.10494784296737773
19.338872,8.315488339948848,0.10478228869101093
19.341256,8.331180280696088,0.10458102641251836
19.34366,8.34743129995077,0.10435723917999326
19.346048,8.362751153645672,0.10414144628862186
19.348428,8.369550747675708,0.10398816790256485
19.350824,8.375558945772829,0.1038351463684992
19.353212,8.381427374243088,0.10368816119757568
19.355592,8.384222766780294,0.10357173406193253
19.357988,8.387949324877274,0.10344904407694014
19.360376,8.385529811108146,0.1033869830118638
19.362756,8.391258469951547,0.10324706852974048
19.365152,8.395404336929111,0.10310864047923043
19.36754,8.403833944653227,0.10292317781482661
19.369924,8.416035436444702,0.10267910048673465
19.372328,8.429447633049673,0.10241914602815914
19.374716,8.442208203348585,0.10215358476087673
19.377096,8.451383881035248,0.10190581405988915
19.379496,8.46069932834877,0.10165171416876831
19.381884,8.464799869355959,0.10145170725727366
19.384264,8.471042280736425,0.1012287612401786
19.38666,8.470486993944723,0.10105792347896587
19.389048,8.469372628645582,0.10090974731740983
19.391428,8.465185227413382,0.10079054306537777
19.393832,8.458995725434766,0.10068872470194494
19.39622,8.457881360135623,0.10054009332194407
19.3986,8.45690676446334,0.10038544649873159
19.400996,8.456071938417919,0.10022511016940087
19.403384,8.455656421253078,0.10004722505798688
19.405764,8.455380673715094,0.09986367039224495
19.40816,8.455943543938275,0.09964528384955113
19.410548,8.450919420802784,0.09946212907908554
19.412932,8.444172736174597,0.0992846578873813
19.415328,8.43635511635977,0.09911888456371559
19.417716,8.42932889247786,0.09895343282115333
19.420112,8.420440337476396,0.09879910301788788
19.422508,8.412482948034711,0.09863906011339321
19.424896,8.406387889712581,0.09846743827834221
19.427276,8.40243470176373,0.09827356227788193
19.429672,8.399412679374658,0.0980740522618918
