Time,Force,Position
21.108152,0.0032349906535047252,0.0
21.110536,0.0032349906535047252,0.0
21.112932,0.0032349906535047252,0.0
21.115316,0.0032349906535047252,0.0
21.117716,0.0032349906535047252,0.0
21.120112,0.0032349906535047252,0.0
21.1225,0.0032349906535047252,0.0
21.12488,0.002373869204355784,0.0
21.127276,0.002373869204355784,0.0
21.129664,0.001652517382067052,0.0
21.132048,0.001652517382067052,0.0
21.134444,0.0,0.0
21.136832,0.0,0.0
21.139212,0.0,0.0
21.141608,0.0011406607028693625,0.0
21.144,0.0011406607028693623,0.0
21.14638,0.0011406607028693623,0.0
21.14878,0.0011406607028693625,0.0
21.151168,0.007356458085210957,0.0
21.153548,0.010778758788217588,0.0
21.155944,0.021929923223171208,0.0
21.158332,0.03028759097878986,0.0
21.160708,0.039157115413606204,0.0
21.163108,0.05016851022169961,0.0
21.165492,0.06397340170912799,0.0
21.167872,0.07819760207713697,0.0
21.170288,0.08706712651195332,0.0
21.172672,0.09235175833451659,0.0
21.175052,0.10029011720955462,0.0
21.177456,0.10822847608459266,0.0
21.179844,0.11402496458635361,0.0
21.182224,0.12010099234183501,0.0
21.18462,0.12296421453740079,0.0
21.187008,0.12689837191960512,0.0
21.189388,0.1306230341587184,0.0
21.191792,0.1380023145263156,0.0
21.19418,0.145521364520773,0.0
21.19656,0.1530404145152304,0.0
21.198956,0.14861690414181605,0.0
21.20134,0.14670735119401626,0.0
21.203724,0.13555618675906267,0.0
21.206128,0.12791987082573272,0.0
21.208512,0.12205333821334237,0.0
21.210892,0.1151158704143135,0.0
21.213296,0.10538490593594965,0.0
21.215684,0.09509486295014496,0.0
21.218064,0.09416369739036665,0.0
21.220464,0.10054208668195466,0.0
21.222848,0.09947115149531614,0.0
21.225228,0.09840021630867762,0.0
21.227624,0.10254418742837154,0.0
21.230012,0.10692047597354273,0.0
21.232392,0.11651167082504636,0.0
21.234796,0.1230298297434946,0.0
21.23718,0.12447285198247061,0.0
21.23956,0.12153958567627544,0.0
21.241964,0.11753538418344171,0.0
21.244352,0.11446234825038633,0.0
21.246732,0.11618490974308276,0.0
21.249136,0.1179074712357792,0.0
21.25152,0.12142231973740288,0.0
21.253904,0.12314488123009931,0.0
21.2563,0.12244603309579827,0.0
21.258688,0.12239881126755511,0.0
21.261068,0.12249135906617217,0.0
21.263464,0.12272367649164945,0.0
21.265852,0.11895179242429302,0.0
21.268232,0.10852197981162814,0.0
21.270628,0.10165455612322866,0.0
21.273016,0.09695150649609391,0.0
21.275412,0.08824425537612546,0.0
21.277808,0.08116701795023637,0.0
21.280192,0.07315861496456896,0.0
21.282576,0.06407927679226301,0.0
21.284968,0.06128578011292804,0.0
21.287356,0.057561117873814766,0.0
21.28974,0.054627851567619595,0.0
21.292144,0.051694585261424425,0.0
21.294532,0.04834201007464863,0.0
21.296916,0.04510670082674536,0.0
21.299312,0.04159185232512168,0.0
21.3017,0.03914793901013651,0.0
21.30408,0.03684379532201156,0.0
21.306476,0.03281709014119017,0.0
21.308868,0.028650615333508583,0.0
21.311248,0.024484140525826988,0.0
21.313644,0.020317665718145392,0.0
21.316032,0.01908445721665897,0.0
21.318416,0.019084457216658975,0.0
21.32082,0.01692008315539423,0.0
21.323204,0.01568687465390781,0.0
21.325588,0.012311795779144322,0.0
21.327984,0.007865781717742309,0.0
21.330372,0.006492803589395679,0.0
21.332752,0.0029779550877719854,0.0
21.335148,0.002256603265483254,0.0
21.337536,0.0016750210700547327,0.0
21.33992,0.00016227331484789062,0.0
21.342316,0.0,0.0
21.344704,0.0,0.0
21.347084,0.0019320566357874727,0.0
21.349488,0.003212486965517045,0.0
21.351876,0.0055638524818851474,0.0
21.354256,0.00577334762497619,0.0
21.356652,0.005843073141207022,0.0
21.35904,0.005843073141207022,0.0
21.36142,0.005843073141207022,0.0
21.363828,0.005843073141207022,0.0
21.366216,0.005843073141207022,0.0
21.368596,0.005843073141207022,0.0
21.370992,0.005843073141207022,0.0
21.37338,0.005843073141207022,0.0
21.37576,0.005843073141207022,0.0
21.378156,0.005843073141207022,0.0
21.380548,0.005843073141207022,0.0
21.382928,0.005843073141207022,0.0
21.385324,0.0058430731412070225,0.0
21.387712,0.005843073141207023,0.0
21.390092,0.005843073141207023,0.0
21.392492,0.005843073141207023,0.0
21.39488,0.00391101650541955,0.0
21.39726,0.0026305861756899768,0.0
21.39966,0.0002792206593218737,0.0
21.402048,6.972551623083174e-05,0.0
21.404428,0.0,0.0
21.406824,0.0,0.0
21.409212,0.0,0.0
21.411592,0.0,0.0
21.413988,0.0,0.0
21.416376,0.0,0.0
21.418772,0.0,0.0
21.421168,0.0,0.0
21.423552,0.0,0.0
21.425936,0.0,0.0
21.428332,0.0,0.0
21.43072,0.0,0.0
21.4331,0.0,0.0
21.435496,0.0,0.0
21.437888,0.0,0.0
21.440268,0.0,0.0
21.442664,0.0,0.0
21.445052,0.0,0.0
21.447432,0.0,0.0
21.449828,0.0,0.0
21.452216,0.0007213518222887315,0.0
21.454596,0.0007213518222887314,0.0
21.456992,0.0007213518222887314,0.0
21.45938,0.0007213518222887315,0.0
21.461776,0.0007213518222887315,0.0
21.464172,0.0007213518222887315,0.0
21.466564,0.0007213518222887315,0.0
21.468944,0.0007213518222887315,0.0
21.471344,0.0007213518222887315,0.0
21.473732,0.0007213518222887315,0.0
21.476116,0.0007213518222887315,0.0
21.478512,0.0024664170029728436,0.0
21.480896,0.005886821848110235,0.0
21.48328,0.01773304270162642,0.0
21.485676,0.03832994478761573,0.0
21.48806,0.07275076892768115,0.0
21.49044,0.12653528665224942,0.007670653992500001
21.492848,0.20033512426737848,0.015296065807116548
21.495232,0.2959672869222511,0.022518873430514338
21.497612,0.40104708308602866,0.030066470136067704
21.500008,0.5108017376153455,0.0382505687980602
21.502396,0.6352867616182613,0.0466537200888914
21.504776,0.7855138684972681,0.05469452861843614
21.507176,0.9570142219085774,0.0625240214238514
21.50956,1.1419664103216254,0.07036735932252579
21.511944,1.3405102033632723,0.0782085287964517
21.51434,1.5501769695782774,0.08621910365363036
21.516724,1.7782762638180072,0.09420623788088667
21.51912,2.0285799701498175,0.10203235468639439
21.52152,2.291124806669868,0.10990899863265047
21.523908,2.56660962151246,0.11778055709505665
21.526288,2.846444429496496,0.1258457568061829
21.528684,3.1370773454297964,0.13397639300437558
21.531072,3.434878150729734,0.14204936203455495
21.533452,3.7376615449105257,0.14997613477694868
21.535856,4.0289026570373805,0.15784534416212387
21.538244,4.293098433676027,0.15814393118801773
21.540624,4.539560530424251,0.1584289238905901
21.54302,4.760650735490851,0.15925556339172361
21.545408,4.978531926713275,0.159660903213929
21.547792,5.1982811366288635,0.15923327357329664
21.550188,5.40239321105693,0.1585198406855831
21.552576,5.568146193652592,0.15836064046059162
21.554956,5.708714276021734,0.1585338858632859
21.557352,5.836295158240091,0.1587503510603847
21.55974,5.954009098068963,0.15890230451674928
21.56212,6.058645185806302,0.158880635037623
21.56452,6.140192917720025,0.15896646984054605
21.566904,6.197486914967009,0.1593042875626254
21.5693,6.247800014302459,0.159553429923008
21.571696,6.289130114979958,0.1597683757244409
21.574084,6.326134940656267,0.1597195871107791
21.576464,6.3477802742409075,0.15961787888696397
21.57886,6.348384678718723,0.15966611386763677
21.581248,6.332554864202491,0.15995068066468945
21.583628,6.317888532671516,0.16024155691838152
21.586024,6.311370373753069,0.16035814864588338
21.588416,6.291583579572246,0.16068713568023435
21.590796,6.269749358674632,0.1609877510067202
21.593192,6.2422809225901075,0.16143495431836183
21.59558,6.212017093968377,0.16204371624740946
21.597964,6.1865469669145305,0.162683883567328
21.60036,6.174904553630498,0.16309513151968896
21.602748,6.16717379404068,0.16338524956849354
21.605128,6.166939580757333,0.16348766510439772
21.607532,6.16959141195194,0.16357572858730826
21.609916,6.182858151356444,0.1635052842398341
21.612296,6.20296981076136,0.16325834620486357
21.614696,6.224107079382541,0.16290004148996615
21.61708,6.237842245353739,0.16262786547849417
21.61946,6.253439742444493,0.1623302079780643
21.621864,6.268850248080143,0.16208933581922433
21.624252,6.290918682261102,0.1617335376836831
21.626632,6.320995519427727,0.1612157372317501
21.629028,6.353214226967631,0.16064042846070106
21.631416,6.3858050215598725,0.16009387213511111
21.633796,6.423608826600576,0.15957186946594987
21.636192,6.478778016195106,0.15880940803539426
21.63858,6.539813738402027,0.15792080187388963
21.64096,6.6013159913177715,0.15696120356648935
21.643356,6.6627256964349,0.15598676020073146
21.645744,6.7309803215524395,0.15488556674633813
21.648124,6.7991423988713615,0.1537630068671604
21.65052,6.865489366898967,0.15262521838336332
21.652908,6.92056980041062,0.15164417674081096
21.655292,6.9673169657125085,0.15076111039494153
21.657704,7.005264332095811,0.15004819667613212
21.660092,7.043304246277731,0.14938121847751376
21.662476,7.082647413071767,0.1487199200036531
21.664872,7.127205486172137,0.1479603293307657
21.667256,7.168877514794553,0.14722321652488193
21.66964,7.217626780842858,0.1463834365202035
21.672036,7.262324623570089,0.1456600701081137
21.67442,7.304880595924041,0.14498543090512625
21.676816,7.347903098986818,0.14424722345757804
21.679212,7.382871873093554,0.14356567823298058
21.6816,7.412720184550443,0.1429055812776699
21.683984,7.437959890036684,0.14227925167136748
21.68638,7.467762875523195,0.1415701037103759
21.688768,7.4971937739573695,0.1408475499007966
21.691152,7.5209451312342575,0.1401681403249723
21.693548,7.529098991420391,0.1397143208836623
21.695936,7.538928191270979,0.13928691796071396
21.698316,7.551224126718939,0.13887802460592005
21.700712,7.570038221085348,0.1383909721593657
21.7031,7.591925351384811,0.1378561843049701
21.705484,7.6142317905648556,0.13730035457270157
21.70788,7.633837280864184,0.13681144867370051
21.710268,7.653303001536651,0.13633044954780751
21.712648,7.6666698721712505,0.13590674894205748
21.715052,7.671423935342368,0.1355570130641784
21.71744,7.6623502847436695,0.13536636450395012
21.71982,7.655837813398828,0.1351190197067421
21.72222,7.6489060331734064,0.1348926739803488
21.724608,7.642625879254043,0.13466916391078668
21.726988,7.642072488320208,0.1343730059661146
21.729384,7.635884882199462,0.1341792125787802
21.731772,7.6256458527576365,0.13408163836148623
21.734152,7.610424234434958,0.13408951567104974
21.736548,7.592129580179224,0.13414319017858395
21.738936,7.570761889990434,0.13424485510769854
21.741316,7.554050027600538,0.1342943560397715
21.743716,7.534125359650725,0.13439787702269615
21.746104,7.515830705394989,0.1344534725836272
21.7485,7.491157661847666,0.1345770640804512
21.750896,7.4608976249416745,0.13476669260195392
21.753284,7.4303580487819625,0.13496993575689245
21.755668,7.401820573368667,0.1351444918268019
21.758064,7.375936825007847,0.1352915162160606
21.760452,7.354010056311615,0.13542022261918163
21.762836,7.336831663212893,0.13552858114173003
21.765232,7.325984437577516,0.13560784452741811
21.76762,7.312948119740618,0.13576246183713256
21.77,7.302053672277,0.1358797197984149
21.772396,7.290088289626742,0.13601447158644456
21.774784,7.273559626976209,0.1362365189998856
21.777164,7.263688892870985,0.13637626892443902
21.779564,7.261686792124568,0.1364054651491626
21.781948,7.259964230631871,0.1364202981861994
21.784332,7.262897496938066,0.1363802165922414
21.786728,7.269927512535713,0.13631304600850855
21.789116,7.279331715932113,0.1362341621360734
21.7915,7.290877789701789,0.1361186772229632
21.7939,7.30042176272505,0.13603367710459044
21.796288,7.312479693173925,0.135929321819519
21.798668,7.3303569344069475,0.1357824117013952
21.801064,7.349816967505806,0.1356282528685713
21.803452,7.3698360791121065,0.13544725042048292
21.805836,7.386829376613595,0.1352762226725897
21.808232,7.403590356689604,0.135081773687579
21.810616,7.424215768631588,0.13483837048387456
21.813012,7.442886301655397,0.13458424079849154
21.815416,7.4610921998282524,0.13428007103557962
21.817804,7.474782039829076,0.13402311592308122
21.82018,7.491125606882375,0.13374262088652492
21.822576,7.511473375428507,0.13340324402760556
21.824964,7.535313488788275,0.13300215252154235
21.827344,7.553054752110175,0.13265802477320587
21.82974,7.570004619499157,0.13231732841297592
21.832128,7.583462142074504,0.1320434094527531
21.834512,7.603065736515962,0.13168372224978928
21.836908,7.622437013531941,0.13130164878295952
21.839296,7.640644807562666,0.13090763496629979
21.841676,7.6599235367800285,0.13049868112896018
21.844072,7.680924827490088,0.1300773449421667
21.84646,7.7004830959611725,0.12965676198328577
21.848844,7.716875780700583,0.12924868091001787
21.85124,7.7296835728277395,0.12887438787366612
21.853624,7.743003221634093,0.12851126266947197
21.856008,7.7545530871195085,0.12819874329337935
21.858404,7.764100851858507,0.12791459310652314
21.860792,7.774067925478088,0.1276099601116135
21.863172,7.786828495777001,0.1272781727898741
21.865588,7.803825584994226,0.12691853942298262
21.867976,7.8185410342113135,0.12659956833773614
21.870356,7.834606957868761,0.12625340311926211
21.872756,7.843083787421121,0.12599079601714738
21.87514,7.853283178466178,0.12571682089280728
21.87752,7.865205131003932,0.12543133587448257
21.87992,7.879828032422402,0.12508802498851065
21.882304,7.885279047869951,0.12483173240515853
21.884688,7.8882161058918845,0.12458981392092092
21.887084,7.887940358353903,0.12439439483879164
21.889472,7.884591574882867,0.12423936424299815
21.891852,7.88138256103869,0.12407806509925025
21.894256,7.878592856075093,0.12389713862970618
21.89664,7.878596647790832,0.12368914686359092
21.899024,7.881114396932183,0.12346727371659365
21.90142,7.883352606819818,0.1232586044025478
21.903808,7.888663852640505,0.12301038092212607
21.906192,7.89146114103558,0.1227756754209106
21.908588,7.897563782789185,0.12252609062015998
21.910976,7.902455719729292,0.1222998028348141
21.913356,7.904693929616923,0.12209352237662519
21.915756,7.90534934763872,0.12189121714516944
21.918144,7.902140333794543,0.12173029643591338
21.920524,7.901445277375981,0.12155571615624795
21.92292,7.899539516143919,0.1214030072776125
21.925308,7.897773524538718,0.1212442048522654
21.927688,7.8954484544260755,0.1211114600858502
21.930088,7.899222234351301,0.12093812268536394
21.932476,7.908163698754618,0.12073403157088497
21.934856,7.923763091703241,0.12046532634193684
21.937252,7.942155981331199,0.12017122127433076
21.93964,7.960409101332298,0.11988513895879502
21.942024,7.977963373199095,0.11963140866460076
21.94442,7.9975197458123075,0.11935775357739843
21.946808,8.015353556932826,0.11909476689934079
21.949188,8.033187368053342,0.11883178022128313
21.951588,8.050229783240942,0.11857262277595063
21.953976,8.070857091040795,0.11828795115865524
21.95636,8.088690902161312,0.11802929832207933
21.958756,8.104243073281694,0.11780549675465977
21.96114,8.122728510708269,0.11755251650965033
21.963536,8.14414721444104,0.11726956516627055
21.965932,8.17101314190562,0.11694715494791308
21.96832,8.201371414183836,0.11657366075193623
21.970704,8.228005024222938,0.11622880904807974
21.9731,8.251565598328986,0.11591984524652738
21.975484,8.273403610942339,0.1156206342616329
21.977868,8.290865335010517,0.11534913714368698
21.980272,8.301529360906528,0.11514500468496754
21.98266,8.308189185309708,0.11498548765080707
21.98504,8.314988779339746,0.1148205764835219
21.98744,8.32285930855642,0.11464300336380157
21.989824,8.331149146653678,0.11444729047818651
21.992204,8.334363848071462,0.11430789863124698
21.994612,8.340372046168582,0.11414649301146243
21.996996,8.347870488332923,0.11395407392650038
21.999376,8.351644268258148,0.11379109954198333
22.00178,8.35169338594426,0.11365782450944702
22.004168,8.351090877324314,0.11351980820515682
22.006548,8.351047447211812,0.11335735524543879
22.008944,8.34928145560661,0.11320403260191023
22.011332,8.349657334374685,0.11302503719529915
22.013716,8.341652723104756,0.11291081125775915
22.016112,8.329224601461412,0.11285483846790076
22.0185,8.324804882803736,0.11271789665771621
22.02088,8.323597969705977,0.11254167073467468
22.02328,8.323461991794856,0.11235227861153194
22.025668,8.328261380936347,0.11211624928295365
22.028048,8.339346611570807,0.11180872284968511
22.030444,8.350851151085848,0.11148382801394138
22.032832,8.360353589854473,0.1111791977953846
22.035212,8.362918560824069,0.11094028018591597
22.037616,8.364272826980168,0.11072006645491307
22.040004,8.369491525002237,0.11046597782441898
22.042384,8.369774855971695,0.11025857931987974
22.044784,8.369638878060574,0.11006956443447652
22.047172,8.373087792761705,0.109858410862822
22.049552,8.378538808209255,0.1096270913367566
22.051948,8.386364011455557,0.10939334240259209
22.054336,8.394701071381057,0.10917041406380605
22.056716,8.40075649130642,0.10897874083362352
22.059116,8.403599105671868,0.10882637294723331
22.0615,8.412168483022846,0.1086263030881372
22.063884,8.423950665933738,0.10838861261112097
22.066288,8.432659812911576,0.10818526293137168
22.068672,8.442300125449192,0.10797674074269388
22.071056,8.451940437986806,0.1077686213289968
22.073452,8.45622607459123,0.10762283450302763
22.07584,8.45650750970282,0.10751517073079853
22.07822,8.456649175187549,0.10741337096221248
22.080616,8.457861775858916,0.1072993224433358
22.083008,8.465220448396396,0.10712282441565542
22.085388,8.475000530560871,0.10691061838392721
22.087792,8.483477360113232,0.1066893204771307
22.09018,8.498100261531704,0.10640733723607657
22.092564,8.512211306270979,0.1061155714742364
22.09496,8.52860399101039,0.1057966819339953
22.097348,8.546067610936438,0.10546721600375193
22.099732,8.558875403063595,0.10516811127562281
22.102128,8.573033669631112,0.10484665580325361
22.104516,8.588262871385266,0.10451212852490363
22.1069,8.600698576460088,0.1041950651838644
22.109296,8.616067547841103,0.10385689436501258
22.111684,8.628363483289062,0.1035492762238411
22.114068,8.639728253177246,0.10324860095882883
22.116476,8.648951152692149,0.10297235418211377
22.11886,8.661247088140112,0.10266902772705178
22.121244,8.677966533961486,0.10231475782437308
22.123648,8.696548310902417,0.1019494863851967
22.126032,8.718063354149542,0.1015638050870162
22.128416,8.742651433329726,0.10115285217612781
22.130816,8.768170678069684,0.1007393751117846
22.133204,8.792339448369285,0.10034961028829407
22.135584,8.81273633460153,0.10001393941751777
22.13798,8.830711811206776,0.09971372284098051
22.140364,8.846126108558167,0.09945142211929443
22.142744,8.855254564416585,0.09924964472422412
22.145148,8.861961610648006,0.09908075187790617
22.147536,8.873883563185757,0.0988629006469509
22.149916,8.886736681283288,0.0986412261528211
22.15232,8.90573587124693,0.09836817108662342
22.154708,8.927388788263048,0.09808350456795928
22.157088,8.945177273413192,0.09782777152643637
22.159492,8.966178564123252,0.09754146856302284
22.16188,8.985969150019812,0.09727100393217626
22.16426,9.006830671103012,0.09699089825600822
22.166656,9.023268681812796,0.0967592744308456
22.169044,9.037285282895583,0.09656023566004084
22.171424,9.048228848045314,0.09638698179331638
22.17382,9.052886571702073,0.09627074340185955
22.176208,9.05419172017206,0.09619126592606213
22.178588,9.05121312789549,0.09615291035865633
22.18098,9.051167801925116,0.09609450366256155
22.183368,9.055266447074438,0.09600028021571999
22.185748,9.060575797037256,0.09589106918987104
22.188144,9.068166787000212,0.09575596389912965
22.190532,9.080832913642642,0.0955802041739081
22.192912,9.097922550658485,0.09535935143630862
22.195308,9.113521943607108,0.09516573011687399
22.197696,9.126979466182455,0.09499318198994847
22.200076,9.136013478384388,0.09486730385080318
22.202476,9.146258195399815,0.09472673878351655
22.204864,9.16022757465436,0.0945686877105294
22.207244,9.172986249095405,0.09442669089325709
22.209648,9.18788679390973,0.0942655581632359
22.212036,9.201576633910554,0.09411958260930034
22.214416,9.215685782791956,0.09395800358468809
22.216812,9.231285175740577,0.09377221351349062
22.219204,9.252239244622395,0.09353943520155926
22.221584,9.278687759064264,0.09325369239038389
22.22398,9.307557683133128,0.09294036693024323
22.226364,9.344715549441386,0.09256414638358228
22.228748,9.375215487204331,0.09222403124253381
22.231144,9.405203568288078,0.09187478136419425
22.233528,9.435471188625547,0.09151875643671399
22.235912,9.46974301045585,0.09113909332537695
