Time,Force,Position
21.520976,0.07672555831681857,0.0
21.52336,0.0655673354066122,0.0
21.525756,0.05641121324282271,0.0
21.528144,0.045113220705756144,0.0
21.530524,0.0348861633553281,0.0
21.532924,0.0263816674975965,0.0
21.535312,0.017085775706946783,0.0
21.537692,0.010723150222492237,0.0
21.540092,0.0023584239916208415,0.0
21.54248,0.0,0.0
21.54486,0.0,0.0
21.547256,0.0,0.0
21.549644,0.0,0.0
21.552024,0.001986336939283362,0.0
21.55442,0.0026221994382077726,0.0
21.556812,0.0026221994382077726,0.0
21.559192,0.0026221994382077726,0.0
21.561588,0.0026221994382077726,0.0
21.563976,0.0026221994382077726,0.0
21.566356,0.0026221994382077726,0.0
21.56876,0.0026221994382077726,0.0
21.571148,0.0026221994382077726,0.0
21.573528,0.0026221994382077726,0.0
21.575928,0.0026221994382077726,0.0
21.578312,0.0026221994382077726,0.0
21.580696,0.0026221994382077726,0.0
21.583092,0.0026221994382077726,0.0
21.585476,0.0026221994382077726,0.0
21.58786,0.0026221994382077734,0.0
21.590256,0.0026221994382077734,0.0
21.592644,0.0026221994382077734,0.0
21.59504,0.0026221994382077734,0.0
21.597436,0.0026221994382077734,0.0
21.599824,0.0006358624989244109,0.0
21.602204,0.0,0.0
21.604604,0.0,0.0
21.606992,0.005431459924676223,0.0
21.609372,0.009791984662713915,0.0
21.611768,0.01694600608008657,0.0
21.614152,0.02302909231082069,0.0
21.616536,0.030974509661111455,0.0
21.618932,0.03999086219804075,0.0
21.621316,0.04993838029474836,0.0
21.623712,0.05574192727176207,0.0
21.626108,0.05754127275594206,0.0
21.628496,0.05754127275594207,0.0
21.630876,0.05754127275594207,0.0
21.633272,0.05754127275594207,0.0
21.63566,0.05754127275594207,0.0
21.63804,0.05754127275594207,0.0
21.640436,0.05754127275594207,0.0
21.64282,0.05754127275594207,0.0
21.645204,0.05754127275594207,0.0
21.6476,0.05754127275594207,0.0
21.649984,0.05754127275594207,0.0
21.652384,0.05754127275594207,0.0
21.65478,0.05210981283126586,0.0
21.657164,0.048422893131049506,0.0
21.659548,0.053717076230914304,0.0
21.661944,0.07888680959447966,0.0
21.664332,0.12290837986335021,0.01167237932836021
21.666712,0.18238388588037624,0.022151605138130137
21.669108,0.2514467950331674,0.03253799547528477
21.671496,0.3343336262400347,0.04306649783304495
21.673876,0.4421711443900748,0.0529737637783996
21.676272,0.5714512408625183,0.06246730164235296
21.67866,0.7171164386428954,0.07166783462115006
21.681056,0.8750699884397557,0.08075322519425514
21.683456,1.0463356036114941,0.08977231593045906
21.685844,1.2363132860616781,0.09863415193887766
21.688224,1.4448632661634464,0.10738097951181753
21.69062,1.672172535371903,0.1159545310817255
21.693008,1.9124217829029004,0.12448471542685877
21.695392,2.1590456280097476,0.13319618468870814
21.697792,2.415349424050977,0.14202008741086905
21.70018,2.690831818079475,0.1506637275310381
21.70256,2.978976547034663,0.15914640105214634
21.704956,3.271243268377781,0.16752248875393794
21.707344,3.5495481938978326,0.17586622070555782
21.709728,3.801366862437118,0.1843351973465702
21.712132,4.029258557391626,0.1812233992720985
21.71452,4.243371656262432,0.1792954949848961
21.7169,4.4511101575573875,0.1773501184559862
21.719296,4.647353598626648,0.17525091308437069
21.721684,4.813665659729749,0.17390266088260103
21.724064,4.957401221688433,0.17304181615220626
21.726464,5.090151684242748,0.17241178136312418
21.728852,5.215222400751229,0.17184693134486664
21.731232,5.327400360765414,0.1713176912667069
21.733628,5.418631835329259,0.17096503711782257
21.73602,5.491942638547575,0.17072776600540504
21.7384,5.548821118629717,0.17068564914548767
21.740796,5.596297291173325,0.17066831631576793
21.743184,5.649411470619587,0.17018372227046508
21.745564,5.6983873665197615,0.1693938491559983
21.747964,5.726090015887634,0.16878946976392706
21.750352,5.744016374806769,0.16833293091488663
21.752732,5.76147620301708,0.16796374646497086
21.755128,5.787781156116351,0.16750269060916076
21.757516,5.81967310257429,0.16692041899212498
21.759896,5.8510531923530325,0.16631222669341741
21.762292,5.880710720639079,0.16573435726405636
21.76468,5.912555445268776,0.165207322406006
21.76706,5.956458100347349,0.16452019048028124
21.76946,6.012418685874795,0.16364154658913282
21.771848,6.068519041029102,0.16273405899621152
21.774228,6.1175893805857635,0.1619464870909411
21.776624,6.168661820888842,0.16113902909403513
21.779016,6.226205198282125,0.16027883738421078
21.781396,6.280535770115493,0.1594781542118014
21.783792,6.324530972992682,0.15880982224692042
21.78618,6.362754086913968,0.15816509637455323
21.788564,6.398603013036498,0.1575508008592286
21.79096,6.4248135224792815,0.15720122799656994
21.793348,6.442409328600714,0.15710931117001112
21.795732,6.457304185841429,0.15710217511297866
21.798128,6.468102293790692,0.1571425924437429
21.800512,6.477736918754701,0.15717171764184684
21.802912,6.4815975589049355,0.1573541225325003
21.805308,6.4963526465187895,0.157362655526558
21.807696,6.514879618200001,0.15726133157824246
21.81008,6.5289377535374244,0.15718398776157042
21.812476,6.537967974023619,0.1571692003809351
21.814864,6.542714453763261,0.15725246345147453
21.817248,6.546529767943122,0.15735072000761446
21.819644,6.560402807683311,0.15721867636707698
21.822032,6.575673543692101,0.15700261787074876
21.824412,6.582611011491131,0.15687651758561652
21.826812,6.585311960371849,0.15679972236808598
21.8292,6.599466435223627,0.1565380147107812
21.831584,6.622653026419469,0.15614129537156912
21.83398,6.647422409481146,0.15572616169387368
21.836368,6.6728906406771245,0.1552721108502142
21.838748,6.700221202992659,0.1547961529803901
21.841148,6.73635156422678,0.15416988033661833
21.843536,6.777836601394092,0.15342321200061526
21.84592,6.821231191509204,0.1526042691931953
21.848316,6.862159046026947,0.15177814934823453
21.850704,6.901830869760816,0.15090526965587228
21.853088,6.932982433829819,0.15018719174872983
21.855484,6.965297480884079,0.1494860171067052
21.857876,6.999614628684753,0.1487418105537047
21.860256,7.032256436820979,0.14797673751915105
21.862664,7.056425207120577,0.14730728250703776
21.865052,7.080454207793316,0.14665246911108032
21.867432,7.094937339584927,0.14623043615484144
21.869828,7.106999061749541,0.14586463534980504
21.872216,7.1179898487275155,0.14551683443679558
21.8746,7.122881785667623,0.14523927157692934
21.876996,7.121255563689283,0.1450573375214303
21.879384,7.127358205442889,0.1447576847176057
21.881764,7.138815523129688,0.14435624338581993
21.88416,7.146455630778758,0.1439730969731962
21.886548,7.142968973538729,0.14370159706165225
21.888932,7.131381365514416,0.14353028849010985
21.891328,7.119374448609524,0.14338157424803746
21.893716,7.105877287637411,0.14327562775135763
21.8961,7.093451061851936,0.14314810985808127
21.898496,7.082467858305437,0.14301810374713947
21.900884,7.068271849199022,0.14294849859895867
21.903268,7.057520963078001,0.14284375278480752
21.905664,7.054079631808347,0.1426492285234829
21.908056,7.047705034232496,0.14249774536004745
21.910436,7.041749745537227,0.14232265573618058
21.912832,7.031790255349124,0.1422117998487982
21.915224,7.0241124051611585,0.14205362803017405
21.917604,7.023092483518502,0.14180173391297293
21.92,7.025984215570062,0.1414513171351247
21.922388,7.030878048368039,0.14106576694968323
21.924768,7.034653724151133,0.1407405149988035
21.927172,7.033726350307094,0.14052213771253982
21.92956,7.02837546608964,0.14039041462140964
21.931936,7.022325733737882,0.1402960007219648
21.934336,7.025308117730191,0.14009377352708735
21.93672,7.030897006946731,0.13990282793992362
21.9391,7.043004055081719,0.13962965943455707
21.941504,7.0584636784034815,0.13929178336573586
21.943892,7.067777229859133,0.13905563566743995
21.946272,7.074716593516031,0.13883301284279437
21.948676,7.088593424971958,0.1385043661006274
21.951064,7.096743493442357,0.1382568665444816
21.953444,7.098794711874886,0.1380715325279061
21.955844,7.103779196613611,0.13784269468763913
21.958232,7.108716459524091,0.13765321999043797
21.960612,7.120171881353021,0.1373824071755582
21.963008,7.132418699114869,0.13710774391783412
21.965396,7.139218293144906,0.136897229394492
21.967776,7.143037399040505,0.13676965686932913
21.970172,7.148811383854279,0.13665194962958138
21.97256,7.160079814228106,0.13643220890354635
21.974944,7.170324531243536,0.13619276036087802
21.97734,7.182478801206767,0.13589074296267253
21.979724,7.196914711170136,0.1355421168218642
21.982108,7.207066880386949,0.13526898803425297
21.984504,7.218197436991785,0.13494451274498515
21.986892,7.219364711692777,0.1347318148336907
21.989276,7.213594518594742,0.13461964896627862
21.991672,7.210338282922322,0.13448757660807342
21.99406,7.211039026914492,0.13433583482508554
21.99644,7.210529066093162,0.1342114734997916
21.998836,7.20657398228644,0.1341166946835786
22.00122,7.198055618479445,0.13411220561224652
22.003604,7.1896298024710665,0.13414111215232624
22.006,7.185068418328661,0.13411676463905492
22.008388,7.177341450454584,0.13410764737875416
22.010784,7.169382165155029,0.13407244649042366
22.01318,7.162214275788392,0.13403325246091546
22.015572,7.155837782354673,0.13399039867800297
22.017952,7.151370841868754,0.1338841632924627
22.020348,7.143458778397443,0.13380780652665444
22.022736,7.1347553189932125,0.13373463526935706
22.025116,7.122931601827683,0.13374919230089669
22.02752,7.112922993953468,0.13378180878603207
22.029908,7.110922789064921,0.1336978029209817
22.032288,7.11064514566907,0.13359992157883724
22.034684,7.1152556474975865,0.13347355955378812
22.037072,7.12689616492375,0.13328225599771917
22.039452,7.144635532387781,0.13303819386353244
22.041848,7.163445835038452,0.13278014012474806
22.044236,7.175598209143812,0.13260272237599108
22.046616,7.199204109220235,0.1322861720402109
22.049012,7.234403304894577,0.1318240926583665
22.0514,7.272815306128835,0.13131213299014374
22.05378,7.309644515497256,0.13080917046682095
22.05618,7.344192084865541,0.13034951866965247
22.058568,7.380834302778858,0.12989871144320456
22.060948,7.421852809237347,0.12941513848070144
22.063344,7.469808783494865,0.12884653057946135
22.065732,7.518136844804721,0.1283044541857859
22.068116,7.568047697980413,0.12776122037273327
22.07052,7.620704826007196,0.12723268957037204
22.072904,7.678297321086592,0.1266420146725421
22.075288,7.73579726836737,0.1260245046173139
22.077688,7.788920927102978,0.12545461741392627
22.080076,7.83953062841297,0.12490554504445138
22.082456,7.893912213790321,0.12429313258517333
22.084852,7.947781942488472,0.12367739209376791
22.08724,8.001047266708808,0.12303329159497872
22.08962,8.046071870518002,0.1224614333504762
22.092016,8.097894172499362,0.12181346773371425
22.094404,8.141987610748776,0.12125790202545265
22.096784,8.177421019706465,0.1207983489811865
22.099184,8.206987896051762,0.12040258143673371
22.101572,8.238277333889759,0.11999805309043532
22.103956,8.272639807660807,0.1195570205211617
22.106352,8.304628093633104,0.11912513604799427
22.108736,8.333311026246868,0.11871176345476198
22.111132,8.353473699195764,0.1183811773271175
22.113532,8.369120313972632,0.11808578182413014
22.11592,8.385837863936137,0.11777916393148244
22.118304,8.396084476809436,0.11749364237659743
22.120696,8.404096671510842,0.11720913155180905
22.123084,8.414110966958665,0.116905326394201
22.125464,8.422495248712409,0.11664029148716759
22.12786,8.434324653451544,0.11635864588251717
22.130248,8.43986821669771,0.11615428542347216
22.132628,8.442338744010819,0.11598471052200862
22.135024,8.439966452069935,0.11589285154613821
22.137412,8.444252088674359,0.11574267368685615
22.139808,8.444952832666528,0.11561670414263589
22.142204,8.445513807031837,0.11549641024896372
22.144592,8.446214551024008,0.11536962084504762
22.146972,8.45334090613601,0.11516250756384569
22.149372,8.461166109382312,0.11492736864134032
22.15176,8.468199916695696,0.11469503463308003
22.15414,8.47630465919572,0.11445037232734674
22.156536,8.483058927255383,0.11423047565915143
22.158924,8.493817396807883,0.11396976184858103
22.161304,8.507369363039714,0.11368729921459281
22.1637,8.515985962218934,0.11345313605496989
22.166088,8.528699310689607,0.11320600154461373
22.168468,8.541924515839476,0.11297036671856375
22.170864,8.548863879496373,0.11280709326586141
22.173252,8.554360220914297,0.11264004539799613
22.175648,8.55347817304063,0.11251717345841276
22.178044,8.551804729234046,0.11239517506830285
22.180432,8.55269246468132,0.1122296717911127
22.182816,8.553627421956838,0.11202957256936139
22.185212,8.550837716993241,0.11185795435486326
22.1876,8.5499103431492,0.11167227211872173
22.18998,8.55033344374552,0.11146178988157421
22.192376,8.553550041021174,0.11123001412627864
22.194764,8.551411962363634,0.1110630951564632
22.197144,8.543639668519184,0.11097201760891673
22.19954,8.531583633928177,0.11093229214444046
22.201928,8.517245959337032,0.11092390650879677
22.204308,8.50411898955939,0.11089670351158644
22.206704,8.489781314968246,0.11088773104752127
22.209092,8.474372705190463,0.11089131548843488
22.211488,8.46017480022618,0.1108763937454558
22.213884,8.441600606716728,0.11088465372941303
22.216272,8.420232916527938,0.1109137338350909
22.218656,8.402869427831984,0.11090339820584802
22.221052,8.386157565442087,0.110898047245757
22.22344,8.369957559731386,0.11090404956495428
22.22582,8.354688719580466,0.11090311732575871
22.22822,8.339791966481883,0.11091790373767554
22.230608,8.326989861928332,0.1109409716689005
22.232988,8.317772649987035,0.11094172152720849
22.235384,8.308415668418878,0.11094803935151877
22.237776,8.300781248343418,0.11094601049950821
22.240156,8.295428468268092,0.11091238123667214
22.242552,8.294359428939325,0.11082828799832163
22.24494,8.29799343923769,0.11067607580858504
22.247324,8.30591119028261,0.11047304638850287
22.249728,8.315319185394747,0.11023986575051574
22.252112,8.324866950133746,0.11000134826975803
22.254496,8.334554484499606,0.10975729671387302
22.256892,8.344801097372907,0.10949029990188588
22.25928,8.356118645432845,0.10921102057374867
22.26166,8.375025287597872,0.10887365794595422
22.264056,8.401800563121704,0.10846968085771441
22.266444,8.429134917152977,0.10804538640507871
22.268824,8.459821846371026,0.10758046144893474
22.27122,8.495072055589349,0.10705650462212837
22.273608,8.533674839994449,0.10649326929398531
22.275992,8.567901335854378,0.10595077749556812
22.278388,8.597751543169135,0.10542667513608497
22.280772,8.62401685787164,0.10492300659340997
22.283156,8.649118689588887,0.10440503506169516
22.28556,8.67170656388052,0.10389654126949174
22.287944,8.690430006306181,0.10342131055021041
22.290324,8.707291117612286,0.10296105709216233
22.29272,8.724943624851306,0.1025039728885224
22.295108,8.74059403134391,0.10206523954207959
22.297492,8.75396279783638,0.10165481836896237
22.299888,8.766120859515349,0.10126156554032612
22.302276,8.777347755634539,0.10087423015710265
22.304672,8.788434882126868,0.10049343707763317
22.307068,8.800592943805839,0.1001027362229731
22.30946,8.807815638432196,0.09975356993594435
22.311844,8.80423643339355,0.0994892852797476
22.31424,8.797304653168128,0.09926375919173808
22.316628,8.785157966636374,0.09908801597850478
22.319008,8.771940344917981,0.09892314336008015
22.321404,8.757372248759234,0.09877993868886631
22.323792,8.7423848437199,0.09865264154441523
22.326176,8.733775827972156,0.09849247024148197
22.328572,8.728100078530607,0.09831027901898598
22.33096,8.723308272820594,0.09815566962553111
22.33334,8.719959489349558,0.09800674879293413
22.33574,8.718333267371216,0.09785266237351412
22.338128,8.716147966885435,0.09772047484966502
22.340508,8.710610091212876,0.09762600856622337
22.342904,8.705863611473237,0.0975316150180027
22.345292,8.708985765092404,0.09737980347071164
22.347676,8.71424978908485,0.09720705137186862
22.350072,8.724449180129906,0.09699913150581355
22.35246,8.735439967107881,0.09679228361526342
22.354844,8.747082380391914,0.09659255772599508
22.35724,8.760726894422366,0.09637790009664887
22.359624,8.784242142558037,0.09609307113652306
22.362008,8.81455508886588,0.09576543265844986
22.364408,8.849012006293417,0.09540193893137756
22.366796,8.883841010773292,0.09505749191166585
22.369176,8.91545720969325,0.09474317671425446
22.371572,8.954942041972016,0.09437623482265237
22.373964,8.994846183131362,0.09399853277488003
22.376344,9.03353961947721,0.09363771770700037
22.37874,9.072512595076777,0.09326762227366162
22.381128,9.112556505862985,0.09289027843285047
22.383508,9.150458546275914,0.09253310375214807
22.385908,9.19064222668898,0.09215318680629583
22.388296,9.23496987822174,0.09174164033091964
22.390676,9.27957706900822,0.09132104477428207
22.393072,9.316315626435895,0.09095558047823542
22.39546,9.352774644609847,0.09060242378549034
22.397844,9.384158526104327,0.09028905029019166
22.40024,9.41461124203903,0.08998132106124376
22.402628,9.442922087600456,0.0896935471694151
22.405012,9.470301767602102,0.08941122086337458
22.407408,9.493677246110916,0.08915904119220025
22.409796,9.510255026447561,0.08894722895947116
22.412192,9.526693037157347,0.08874150527123863
22.414592,9.5386149896951,0.08855099516566434
22.41698,9.554960452606268,0.0883198902377668
22.41936,9.567301714024603,0.08811673762494604
22.421756,9.574707608390325,0.08794383262092603
22.424148,9.583463977196406,0.08775293273941859
22.426528,9.591848258950147,0.08754712344393865
22.428924,9.596507878464777,0.08735695735683047
22.431312,9.603449137979544,0.08714476272404527
22.433692,9.608388296747895,0.0869457554569392
22.436092,9.60452765659766,0.08679485544198245
22.43848,9.601458412380342,0.0866451765457708
22.44086,9.600251499282582,0.08648773385263735
22.443256,9.598672499132483,0.08631497181219526
22.445644,9.596302103049467,0.08614066465549725
22.448028,9.592069375846897,0.08597352007707171
22.450424,9.585322691218709,0.08580741669089689
22.452812,9.57964694177716,0.085632869742834
22.455196,9.570246530096501,0.08547275153115666
22.457592,9.564850319908672,0.08528820720943796
22.45998,9.559593879347705,0.08509916015424403
22.462364,9.55834164027957,0.08488566972949102
22.46476,9.555878696397937,0.08468610337111764
22.467148,9.552764126210246,0.08448074688379331
22.469532,9.553793527142247,0.08424714110820632
22.471928,9.555474554380309,0.08402051722677117
22.47432,9.555805107178012,0.0838116357584598
22.4767,9.558137760722131,0.08359092988098202
22.4791,9.558747852773552,0.08337253441322864
22.481488,9.558706318518915,0.08314800054314209
22.483868,9.570677388742782,0.08285535976514435
22.486268,9.584138703033867,0.08254237911549207
22.488656,9.596156995085977,0.08222163478583745
22.49104,9.608547374190422,0.0819174451459567
22.493436,9.625873120347482,0.08158889824120326
22.495824,9.646271902437595,0.08124189149588017
22.498208,9.670535116393683,0.08087750493725923
22.500604,9.692004833670437,0.08052311447897048
22.502992,9.716407817253383,0.0801541875478834
22.505372,9.735875433783717,0.0798104713553885
22.507772,9.75762469031419,0.07944953038645766
22.510156,9.777791154978825,0.07908654508967378
22.51254,9.795303892590988,0.07872820023761666
22.514936,9.809883363896954,0.07838292396828034
22.517324,9.822041425575923,0.07806352651634088
22.519708,9.829543659456,0.07775878063214936
22.522104,9.837185662962938,0.07744916513435005
22.524492,9.846829767216292,0.07713041639182246
22.526876,9.856054562589067,0.07682532953607638
22.529272,9.866070753894759,0.07652234016099026
22.53166,9.867938772587923,0.07626626758986557
22.53404,9.866454216094311,0.07603723736427381
22.536436,9.867623386653175,0.07580469187548262
22.538824,9.867069995719342,0.07557303612205747
22.541208,9.861721007359758,0.07535951592145691
22.543604,9.852088278253618,0.0751743474051803
22.545992,9.841524383587702,0.0749918059636359
22.548376,9.833893755227978,0.07479674267509781
22.550772,9.824121256494978,0.07461550686255995
22.55316,9.818632498508533,0.07440555232107046
22.55554,9.806578359775397,0.07424244255477908
22.557936,9.7948963080946,0.07409467155172676
22.560324,9.785076587533355,0.07394154716183984
22.562708,9.781263169211364,0.07376006237800894
22.565104,9.775727189396672,0.07357860532894218
