Time,Force,Position
22.056764,0.023808720191423625,0.0
22.059152,0.02373095406697579,0.0
22.061532,0.02373095406697579,0.0
22.063928,0.019788756076554465,0.0
22.066316,0.014635853272634402,0.0
22.068696,0.007760388976017902,0.0
22.071096,0.006611687664931537,0.0
22.07348,0.003740424861148741,0.0
22.07586,0.0037857508315226485,0.0
22.07826,0.0020159675105830663,0.0
22.080644,0.005910943672761241,0.0
22.083028,0.011016624648438157,0.0
22.085424,0.017844867116811502,0.0
22.087812,0.02760637589138002,0.0
22.090204,0.04123231653192203,0.0
22.092612000000003,0.05807106273237963,0.0
22.094996,0.07463026967911682,0.0
22.097376,0.09240018143935273,0.0
22.099780000000003,0.10989055394586823,0.0
22.102168,0.12752069607924393,0.0
22.104548,0.1430089678393426,0.0
22.106952,0.16250144109227496,0.0
22.10934,0.1779897128523736,0.0
22.11172,0.1921275101721133,0.0
22.114116,0.20747601230535173,0.0
22.116504,0.22161380962509142,0.0
22.118884,0.234960211011913,0.0
22.121288,0.24616474202545752,0.0
22.123676,0.25538384982462364,0.0
22.126056,0.265486901355325,0.0
22.128452,0.2726566865798311,0.0
22.13084,0.2786157669908385,0.0
22.133224,0.27991901960295434,0.0
22.13562,0.27656644441617856,0.0
22.138004,0.2664161710572341,0.0
22.140384,0.25091122176509695,0.0
22.14278,0.23796745172681755,0.0
22.145168,0.22488391206167793,0.0
22.147548,0.21329061646375747,0.0
22.149952,0.20477035679889238,0.0
22.15234,0.19825219788044413,0.0
22.15472,0.18772983746916216,0.0
22.157116,0.18014074336407537,0.0
22.159508,0.1749730588859861,0.0
22.161888,0.16365930254178607,0.0
22.164284,0.1516939198915281,0.0
22.166672,0.13851783242777138,0.0
22.169052,0.12934594645684835,0.0
22.171448,0.12203639160548203,0.0
22.173836,0.11235264895536134,0.0
22.17622,0.10318076298443836,0.0
22.178616,0.09400887701351536,0.0
22.181,0.08587738193302624,0.0
22.183384,0.07946844834523352,0.0
22.185788,0.07599278106363598,0.0
22.188176,0.0746589841553155,0.0
22.190556,0.07104354724685774,0.0
22.192952,0.06635717515176145,0.0
22.19534,0.06046009824316642,0.0
22.19772,0.0513502157746558,0.0
22.200116,0.0423801029330054,0.0
22.202504,0.03340999009135499,0.0
22.204884,0.025510812436343105,0.0
22.20728,0.016540699594692697,0.0
22.209668,0.012505953805654307,0.0
22.212064,0.010333539136172566,0.0
22.214468,0.010163225213107672,0.0
22.216856,0.008130580170486137,0.0
22.219236,0.005026999941226073,0.0
22.22164,0.0037857508315226485,0.0
22.224028,0.0018928754157613243,0.0
22.226408,0.0,0.0
22.228808,0.0,0.0
22.231192,0.0,0.0
22.233572,0.0,0.0
22.235972,0.0,0.0
22.23836,0.0,0.0
22.24074,0.0,0.0
22.243136,0.0,0.0
22.245524,0.0,0.0
22.247904,0.0,0.0
22.2503,0.0,0.0
22.252688,0.0,0.0
22.255068,0.0,0.0
22.257476,0.0,0.0
22.25986,0.0,0.0
22.262244000000003,0.0,0.0
22.26464,0.0,0.0
22.267028,0.0,0.0
22.269408,0.0,0.0
22.271804,0.0,0.0
22.274192,0.0,0.0
22.276572,0.0,0.0
22.278972,0.0,0.0
22.281356,0.0,0.0
22.283736,0.0,0.0
22.286132,0.0,0.0
22.28852,0.0,0.0
22.2909,0.0,0.0
22.2933,0.004826141721956495,0.0
22.295684,0.00858134825727446,0.0
22.298068,0.011125849979093685,0.0
22.300464,0.011125849979093685,0.0
22.302848,0.011125849979093685,0.0
22.305244,0.011125849979093685,0.0
22.307644,0.011125849979093685,0.0
22.310032,0.011125849979093685,0.0
22.312412,0.011125849979093685,0.0
22.314808,0.011125849979093685,0.0
22.317196,0.011125849979093685,0.0
22.319576,0.011125849979093685,0.0
22.321976,0.011125849979093685,0.0
22.32436,0.011125849979093685,0.0
22.326744,0.011125849979093685,0.0
22.329148,0.011125849979093685,0.0
22.331536,0.012599416514274379,0.0
22.333916,0.013141817489676754,0.0
22.336312,0.013544448838218917,0.0
22.3387,0.013544448838218915,0.0
22.341084,0.00871830711626242,0.0
22.34348,0.004963100580944453,0.0
22.345868,0.0024185988591252294,0.0
22.348248,0.0024185988591252294,0.0
22.350648,0.0024185988591252294,0.0
22.353036,0.002821230207667392,0.0
22.355416,0.0052259623026264055,0.0
22.357812000000003,0.00870162958422395,0.0
22.3602,0.014179397612238345,0.0
22.362584,0.0177948345206961,0.0
22.36498,0.023412372175570705,0.0
22.367368,0.027167578710888672,0.0
22.369748,0.033204425246343906,0.0
22.372148,0.035237070288965444,0.0
22.374536,0.03523707028896544,0.0
22.376916,0.03605901051808823,0.0
22.379312,0.0383406505182255,0.0
22.3817,0.04262439126477963,0.0
22.384084,0.04704790163819396,0.0
22.38648,0.05280520891992877,0.0
22.388868,0.05907437288086127,0.0
22.391252,0.06459746687924958,0.0
22.393648,0.06955958651232781,0.0
22.396036,0.08238654778847475,0.0
22.398432,0.10992137485023296,0.0
22.400828,0.15637004231970875,0.010108782526345984
22.403216,0.22204263374682717,0.019254513552998814
22.405596,0.3061024272282963,0.027694183406151554
22.407996,0.3985861408602749,0.03615849660725315
22.410384,0.5034035324791104,0.04488520861677693
22.412764,0.6212987761894779,0.05369973198510553
22.41516,0.760420044603905,0.06233129735682168
22.417548,0.9122942998857696,0.07087415924169266
22.419928,1.0813922742367295,0.07932453449236239
22.422324,1.269978930124883,0.08759401774321081
22.424712,1.4723117419426646,0.09593543879539532
22.427096,1.6877224058519784,0.10432760557807004
22.429492,1.9226837548008984,0.11253670573196865
22.43188,2.168443211699082,0.12078902994236712
22.43426,2.4228589061732526,0.12912414577784892
22.43666,2.684300824529331,0.1376432823493397
22.439048,2.9663190371412798,0.146010388287019
22.441428,3.2662163868441203,0.15414567920074132
22.443828,3.5642551971431424,0.16215039529385009
22.446216,3.840603347887151,0.17021668573100468
22.448596,4.089721067545718,0.16825670033922496
22.450992,4.312025769141556,0.16737041167745237
22.45338,4.517758377974356,0.1671743182947032
22.455764,4.716510088895624,0.1668994862342429
22.45816,4.902323717352219,0.16634829091895353
22.460548,5.066865995134381,0.1657696049231671
22.462932,5.208971543398986,0.1654511712379443
22.465328,5.340371531512944,0.16519651332239782
22.467716,5.464371312834787,0.16495282811555673
22.470112,5.568680639490164,0.16490643462700155
22.472508,5.655535825508836,0.16480378571354176
22.474896,5.7237261660773076,0.16469721728049702
22.477276,5.765892988658098,0.1649735013608455
22.479676,5.80415194926041,0.16508965521531208
22.482064,5.83789864340643,0.16499906393500124
22.484448,5.8716510251260585,0.16448323275159638
22.486844,5.885480634753741,0.16408046186962336
22.489232,5.884319047626355,0.16393415630576075
22.491616,5.8850651175889,0.16384202398285283
22.494012,5.904387276918768,0.16347154087442703
22.496396,5.928457811846144,0.16304540704657094
22.498776,5.9570444049455515,0.16253291312213095
22.501172,5.979345156551987,0.1621651566538041
22.503556,6.003321247822877,0.16182776563386753
22.505952,6.038004795102282,0.16137391210206053
22.508352,6.0799506754048105,0.16083626788464128
22.51074,6.12352656940142,0.16022594523665726
22.51312,6.164356188546936,0.1596274995982785
22.515516,6.206116973252231,0.15903486939878583
22.517904,6.253929386167152,0.15840339410990603
22.520284,6.3039762172539655,0.15775416768302863
22.522676,6.353650961288441,0.15707440168553605
22.525064,6.409658768644132,0.15618050113156806
22.527444,6.4567270074543766,0.15548386706510245
22.529836,6.502025462943681,0.15487787427769883
22.532224,6.5384296758579135,0.15455219518164148
22.5346,6.570130839145012,0.15434763861252124
22.536996,6.600575971648239,0.15409513051846205
22.53938,6.623479231874621,0.1539375258878942
22.54176,6.6339505787419215,0.15404691308869634
22.544172,6.652662646020366,0.1540303344183261
22.54656,6.673424035873472,0.1539320707016304
22.54894,6.699215236435676,0.15364992603636482
22.551352,6.722260162146787,0.15337346314815734
22.55374,6.7438148437906795,0.15315686289800787
22.55612,6.76644046062121,0.15292112009807513
22.558524,6.793070278944574,0.15261547133342335
22.560908,6.816534513536266,0.15233368984306855
22.563288,6.829755926970396,0.1522067693462644
22.565692,6.84274502297905,0.15205649248474093
22.568076,6.858899702719375,0.15188416710623814
22.570456,6.879290901378013,0.15166711674588096
22.572852,6.899030473730593,0.15144908701948953
22.57524,6.927617066830001,0.15104669390969752
22.577616,6.957414364742906,0.15062353494240824
22.580008,6.990424468215731,0.15013709167557918
22.582396,7.026787146875328,0.14957062096862145
22.584776,7.05942516329581,0.14905657356960997
22.587172,7.093832963037236,0.14848493493819678
22.589556,7.13015031572646,0.1478437059568828
22.591936,7.158971122109214,0.14735522460530642
22.594336,7.18360073554403,0.14698346896897996
22.59672,7.204738004165213,0.14669178797826332
22.5991,7.2227096890547235,0.14642323402984647
22.601496,7.230997631294112,0.1462710766394207
22.60388,7.243010235772616,0.14607060470695538
22.60626,7.251018638758283,0.1459378653858434
22.608656,7.257956106557312,0.14582445890648701
22.61104,7.266803127304144,0.14564209277530565
22.613424,7.269131989132523,0.14555169520291264
22.61582,7.270437137602509,0.14544190214818478
22.618212,7.275466948311606,0.14528242028644087
22.620592,7.28263862939398,0.14508379837529134
22.622988,7.281429820438352,0.14499873907300814
22.62538,7.274913557377773,0.14497256893575447
22.62776,7.267605898384273,0.1449508540209314
22.630172,7.26853895980192,0.14482840313914438
22.63256,7.2754783234588185,0.14461303527896707
22.63494,7.28004349931696,0.14441226162073462
22.637356,7.2848882144288245,0.14419798766946854
22.63974,7.297089706220299,0.14386016127645382
22.642124000000003,7.316647974691382,0.14339866254507513
22.64452,7.341421149468796,0.1428527469621291
22.646904,7.369035042753789,0.14223681342203803
22.649284,7.397487553799944,0.14157187924236347
22.65168,7.418071431487291,0.14102547366396892
22.654064,7.4434036847721465,0.14045567650937182
22.656444,7.474742240296255,0.13979811013868948
22.65886,7.5094333710071375,0.1390801306468694
22.661248,7.547616846531657,0.1382893047439387
22.663628,7.584961704295016,0.13754547547986773
22.66604,7.6170916557520405,0.13689308414619322
22.668428,7.650013003141986,0.13624599609412077
22.670808,7.682702033106453,0.13557214732829004
22.673212,7.711806170458665,0.1349290073465432
22.675596,7.743703804490213,0.13425990010772215
22.677976,7.771737006655788,0.13365407021106027
22.680372,7.796045546582251,0.13309529711156218
22.682756,7.817560589829377,0.13256617322167685
22.685152,7.834000496397031,0.1321085287264568
22.687548,7.84750713665849,0.1316947603382434
22.689932,7.858732136919811,0.13132616596384586
22.692312,7.867163640501798,0.13099054194276263
22.694708,7.870100698523731,0.13074476388518294
22.697096,7.874992635463839,0.13050880931078412
22.699476,7.882258760202701,0.13026223992149752
22.70188,7.885707674903832,0.13002629271857927
22.704268,7.883709365873152,0.1298435696072798
22.706648,7.8757047546032215,0.12973971686857902
22.709052,7.863928259265936,0.12971289393105911
22.711436,7.854293634301926,0.12965260015293573
22.713816,7.846289023031997,0.1295487928878981
22.71622,7.8289727561642835,0.12954335555055613
22.718608,7.812680202654964,0.12955833266155928
22.720988,7.800065089556517,0.12957236585171727
22.72338,7.782095300524878,0.12967018843017158
22.725768,7.759609453321207,0.12981015539803892
22.728148,7.733119404624701,0.13000541105413302
22.730544,7.707373530032871,0.13023835088474003
22.732928,7.688797440665549,0.13040401470268242
22.735324,7.670872977604284,0.13057104695171612
22.73772,7.651505492304041,0.1307362088110028
22.740108,7.628925201443885,0.1309522446909644
22.742488,7.60965026394226,0.1311504417577953
22.744892,7.592237657560193,0.13132792127398613
22.74728,7.577805539312563,0.1314292649312988
22.74966,7.566027148117408,0.13150667896147486
22.752052,7.55513270065379,0.13161249395385763
22.75444,7.552199434347594,0.13164914271562153
22.75682,7.5612787725199,0.13152714244399108
22.759212,7.567564614012872,0.13143512913498445
22.7616,7.573850455505843,0.13134391536913176
22.76398,7.588888874089156,0.13118193447261145
22.766396,7.604019840471087,0.1310496375498567
22.768784,7.623993626107012,0.1308258983157362
22.771164,7.648018835064013,0.13051349881026
22.77356,7.670693569580656,0.1302280268169519
22.775948,7.700538089321805,0.12987671208244522
22.778328,7.735597515369288,0.12944925218251027
22.780732,7.768422523244875,0.1290288573830204
22.783116,7.7972905514558715,0.1286252856543712
22.785496,7.82601881004001,0.12823000345071311
22.7879,7.859263126796179,0.1277927279370117
22.790288,7.893438609112127,0.12734601580554644
22.792668,7.926171069189095,0.12690072695430685
22.795072,7.953688622959735,0.12653197268006086
22.79746,7.979204075983957,0.1261911268317451
22.79984,8.007001169008316,0.12581125447353056
22.80224,8.028000563860505,0.12551080336773163
22.804624,8.038477598301416,0.12532994037704015
22.807008,8.049234171996044,0.1251362524942262
22.809408,8.057988644944258,0.1249679867767808
22.811796,8.066650570093852,0.12477182039684484
22.81418,8.078852061885325,0.12448132085292711
22.816576,8.087468661064547,0.12422254719777734
22.81896,8.090730584310576,0.12403973937187437
22.821344,8.10106974498249,0.12377065446133015
22.823748,8.11075727934835,0.12349988690544421
22.826132,8.119001791475233,0.12322952136940686
22.828516,8.126454907669197,0.12296226979096121
22.830916,8.139075708341252,0.12266484712581355
22.833304,8.152348135319363,0.12237230105452494
22.835684,8.161895900058362,0.12211304436756519
22.83808,8.174144613678077,0.12180229675905838
22.840472,8.187324492857575,0.12148442983931929
22.842848,8.203856947223846,0.12111756439975889
22.845252,8.222671041590253,0.12071818714631753
22.84764,8.24269584077016,0.12030130091487982
22.85002,8.272219287002955,0.11976728045834678
22.852424,8.304815769168803,0.11919764701399055
22.854808,8.33834341689443,0.11862239413551849
22.857188,8.371731294993193,0.11805232602266962
22.859592,8.399484957905049,0.1175642749988199
22.861980000000003,8.426120463802022,0.11712935195306269
22.864356,8.45526992712461,0.11668720183320869
22.866752,8.490285923059586,0.11618774334621276
22.86914,8.52264819194209,0.11571147267187044
22.87152,8.550214863398837,0.1152787324741496
22.873916,8.57522035560173,0.11489137730029694
22.876304,8.600086078177762,0.11451113385129086
22.878684,8.61671108034265,0.11419170221185879
22.88108,8.631893060268562,0.11386978552351643
22.883468,8.652289946500806,0.11348872130755522
22.885852,8.66640099124008,0.11318188433937972
22.888248,8.680372266352492,0.11288226353100313
22.890636,8.69285329739769,0.11261425583706751
22.893016,8.702912918815887,0.11238510801803299
22.895412,8.711901605047444,0.11217030754646524
22.8978,8.712462579412755,0.1120529782130153
22.90018,8.70901935228523,0.11197474201672822
22.90258,8.703853563665009,0.1119044965878835
22.904968,8.700410336537486,0.11182619885233737
22.907344,8.700319684596739,0.11170383063460017
22.90974,8.695992513737679,0.11159872740082716
22.912128,8.685007414333311,0.1115478383338933
22.914508,8.667364386383635,0.11155108214332181
22.91692,8.646089243993465,0.1116097723862358
22.919308,8.627607598282628,0.11164796628591193
22.921688,8.61140759257193,0.11165470143733992
22.924092,8.597069917980786,0.11164693172392738
22.926476,8.589902028614148,0.1115955040752875
22.928856,8.587529736673265,0.11150398240227687
22.93126,8.584086509545738,0.11142524732148291
22.933648,8.582645383164634,0.11132705926042726
22.936024,8.582414961597026,0.1112111021366229
22.93842,8.58181245297708,0.11107892409492082
22.940804,8.579487382864437,0.11095411810149598
22.943184,8.573018341632102,0.11087305191447361
22.945588,8.5712523500269,0.11072515922622629
22.947976,8.572419624727896,0.11055108749981153
22.950356,8.573307360175168,0.11038825392702972
22.952752,8.573823008570105,0.11020945118280596
22.955136,8.577551462524957,0.10999474176526891
22.957516,8.588077614651977,0.10972384617632192
22.959932,8.605401464951168,0.10939628146207339
22.96232,8.629942322303105,0.10899579999560849
22.9647,8.65746366778948,0.10853655946136148
22.967104,8.687546192529716,0.10803937187574864
22.969488,8.714043824657697,0.10756195306832475
22.971868,8.736025398613647,0.10711121878160443
22.974272,8.754049992905005,0.10666550620313928
22.976660000000003,8.765137119397336,0.10628194915134546
22.97904,8.772639353277414,0.10591847576146708
22.981436,8.785636032717544,0.10549321422722852
22.983824,8.794116653985643,0.10509321266642414
22.986204,8.804459606373298,0.10468213531553416
22.988608,8.818294903574591,0.10422578016138574
22.990992,8.835902084843239,0.10371157447926883
22.993372,8.850296460551974,0.10323413800459695
22.995776,8.864039209954646,0.10275190502824033
22.998164,8.881414073797817,0.10222101627243214
23.000548,8.901861973574043,0.10166593767581619
23.002952,8.918585211111155,0.10113693705901174
23.005336,8.92893005935668,0.10064368808341033
23.007716,8.934898619057034,0.10016872293662964
23.010112,8.936583438010834,0.0997388048049618
23.012496,8.937709178457192,0.09933095776907983
23.014876,8.936413509276553,0.09895641886569057
23.01728,8.940192976775387,0.09853984095347193
23.019664,8.947836876140194,0.09809680592421373
23.022048,8.95613240181106,0.0976586565221612
23.024444000000003,8.966569797855199,0.09719782567647649
23.026828,8.978729755392036,0.09673183177596659
23.029212,8.985535036995682,0.09632091340297501
23.031608,8.994994045651802,0.09589940683247061
23.033992,9.003102579867564,0.09549999020283348
23.036372,9.008649934829469,0.09513785442615295
23.038776,9.01605962091093,0.09476779209777672
23.04116,9.018533939939777,0.09443049792830112
23.04354,9.020728719714906,0.09410349896029732
23.045936,9.019151615422677,0.09382895335861034
23.048324,9.00928656889106,0.09362461538280414
23.05072,8.99485824235917,0.09347070235736442
23.053116,8.978660132506338,0.09335308249816315
23.055504,8.963765275265624,0.09324655848485708
23.057884,8.94887041802491,0.09313968013502216
23.06028,8.933975560784196,0.09303250692453383
23.062668,8.91828930761056,0.0929244315050255
23.065052,8.897900004809795,0.09287278562063819
23.067448,8.872156026075835,0.09287205366914957
23.069836,8.850136709580989,0.09285095665387604
23.072216,8.829979724205698,0.09281958622842178
23.07462,8.80754109883027,0.09281355334522633
23.077008,8.785893869387762,0.0928078377011991
23.079392,8.76517780550503,0.09279654151670778
23.081792,8.74539290718208,0.09278023313350747
23.08418,8.724257534418767,0.09278503842527526
23.086564,8.700281443147876,0.09283553728667807
23.088956,8.687619108221186,0.09282463761444534
23.091344,8.678262126653028,0.09281102646887862
23.093724,8.669696541017789,0.09279818843163541
23.096124,8.66657817911436,0.09276285193231933
23.098508,8.67398217762221,0.09266563172181232
23.100892,8.691256910235289,0.09250124843473126
23.103288,8.709183269154423,0.09234312049592265
23.105676000000003,8.729623585499173,0.09218230410368164
23.108056,8.74964459296334,0.0920375294598819
23.11046,8.769897917852989,0.09191455436079317
23.112848,8.797088710541663,0.09174459372601922
23.115228,8.832008366962285,0.09152745063548788
23.117632,8.861433577822854,0.09136523686418728
23.12002,8.889228774989345,0.0912344439827238
23.1224,8.919677699208307,0.09109478384715097
23.124796,8.949707314546691,0.09097076529259922
23.127184,8.978246685817854,0.09087305206710364
23.129564,9.004783956342601,0.09078986129262741
23.13196,9.03760706836032,0.09065392897062115
23.134348,9.070290410751179,0.09052261534121149
23.136732,9.096967450902786,0.09043578795703006
23.139128,9.12113053362878,0.09035253232218422
23.141516,9.148366652287827,0.0902462890153683
23.143896,9.177884410947014,0.09011695830880671
23.146292000000003,9.200744241060892,0.09002453730399544
23.14868,9.21531612893538,0.08999775681844235
23.15106,9.233100822369785,0.08994363752416525
23.153464,9.249162954311494,0.089893250188012
23.155852,9.265364855880064,0.0898377087433641
23.158232,9.287061203008685,0.08973203647016476
23.160628,9.302891017524916,0.0896621358354659
23.163016,9.316858500921592,0.08960136111482314
23.165392,9.334178559505043,0.08950818436865021
23.167808,9.35513073252899,0.08937386627817263
23.170192,9.376502214433517,0.08922529320577692
23.172572,9.397501609285706,0.08906071684014351
