Time,Force,Position
3.861064,2.9561695423128174,0.1499224084949578
3.863412,3.037908057397383,0.1497969248250149
3.865752,3.11354961830195,0.1495177412885236
3.868096,3.1840253905862976,0.149075736005603
3.8704359999999993,3.245331172757591,0.148634717027998
3.872784,3.3013313966818045,0.1481159058034013
3.875128,3.3503960486648583,0.1476176153452716
3.877468,3.3911746542663934,0.1471958611371476
3.879816,3.432327242778135,0.1465829421937019
3.882156,3.4686389078937507,0.1459776296546809
3.8845,3.497967779239964,0.1454834852326375
3.886848,3.5204536264436346,0.1450826099480437
3.889184,3.5382383198780394,0.1446690302101193
3.891528,3.553556277715073,0.1442207862363453
3.893872,3.5636140032754007,0.1438164853217349
3.896216,3.5730673243579134,0.1433182266999844
3.89856,3.5758627168951174,0.143010707504783
3.9009,3.5814516061116564,0.1426263628807268
3.903248,3.586621186447616,0.1422867884051844
3.905584,3.598308925702022,0.1417731253629318
3.964144,3.566519006332045,0.1414607362156176
3.966492,3.568149020026125,0.1413628323039935
3.971176,3.5681962418543685,0.1412818817879374
3.973516,3.572899291481503,0.1410836601099631
3.97586,3.581606542601472,0.1407623607884491
3.978208,3.592455664094717,0.1403689455316192
3.9805479999999993,3.606238051894158,0.139882465855086
3.982896,3.619368813387541,0.1393877221681052
3.98524,3.628914682268671,0.1389739197079343
3.987592,3.636737989657104,0.1385931530210716
3.989936,3.643630131485759,0.1382410079607694
3.99228,3.64721691995588,0.1379377037965024
3.9946159999999993,3.649081146933306,0.1376661381764684
4.050868,3.5719040159911457,0.1376035904266371
4.053203999999999,3.5820070675218467,0.1373725629229158
4.055548,3.5902477879329915,0.1371862341144611
4.057888,3.596998264276917,0.1370791296866598
4.060236,3.6037487406208415,0.1369726487441319
4.062576,3.6115701521514074,0.1368310701860629
4.064916,3.623675304428525,0.1365437013632892
4.067264,3.640064197452197,0.136105275038491
4.069599999999999,3.659014269729728,0.13555291653833
4.071944,3.6731687445815058,0.1351238477686552
4.074287999999999,3.6893253201797007,0.1346361758793094
4.076635999999999,3.700686298352144,0.1342770495439985
4.078975999999999,3.708043075031754,0.1340354681691497
4.08132,3.719264283577337,0.1336902730118458
4.083672,3.728902700257084,0.1333604324169394
4.086008,3.737098094697855,0.1330405623906511
4.088355999999999,3.749157921004599,0.1326249495481792
4.0907,3.762009143244261,0.1322082103837783
4.09304,3.775791531043702,0.1317774424699152
4.095383999999999,3.7901329973505833,0.1312926852766892
4.097724,3.803310980672209,0.1307802013635292
4.100068,3.8114138273143623,0.1304158361956741
4.1024080000000005,3.8215187747029336,0.1299986219820993
4.104756,3.833253735785583,0.1294909014883677
4.107096,3.846711258360929,0.1289615304132104
4.109448,3.8596097024288345,0.1284902095067169
4.111792,3.8682244057501856,0.1281520071093272
4.114136,3.877630505004457,0.1278130586666552
4.1164760000000005,3.882380776459834,0.1275694694363787
4.118824,3.890064314221407,0.1272518519795979
4.121172,3.8957457512365634,0.1269865662732706
4.165668,3.7991104830534135,0.1267266616655885
4.168008,3.7921749111122542,0.1266844652745055
4.170351999999999,3.785658648051676,0.1266021249992308
4.175036,3.77048425155724,0.1265004798863426
4.177379999999999,3.7623851966308246,0.1264264393907205
4.179732,3.753774285025212,0.1263316060062514
4.182067999999999,3.7466536174868175,0.1261622830835143
4.184412,3.7338061869628936,0.1261221983555198
4.186755999999999,3.7205866693866327,0.1260475464434725
4.189095999999999,3.706156446996872,0.1260255622035535
4.191431999999999,3.694799260540168,0.1259134042725375
4.193776,3.687865584456877,0.1256476929751395
4.196123999999999,3.6818630739333646,0.1253608656196867
4.198464,3.675720793782992,0.125087916601275
4.200808,3.662920585087311,0.1249691517855565
4.2031480000000006,3.653333181951547,0.1247452001650948
4.205484,3.637879246203392,0.1246668058554954
4.207827999999999,3.627640216761568,0.1244322821124989
4.210168,3.6144679210135497,0.1242695294914019
4.212512,3.60222679082531,0.1240858653249029
4.214855999999999,3.5897061213833497,0.1239283213920894
4.2172,3.5779768478743077,0.1237648188422675
4.219543999999999,3.564245473618849,0.1236519142882784
4.221883999999999,3.555309696789142,0.123430108324428
4.224219999999999,3.5410192440262422,0.1233748047806216
4.226564,3.5321760149951515,0.1232172757901811
4.2289080000000006,3.527057448203175,0.1229823952392354
4.231244,3.528736579583367,0.1225868432893349
4.2335840000000005,3.53493176913559,0.1221118056645831
4.235928,3.5466214042478663,0.1214572155287465
4.238272,3.557240104173504,0.120839717349021
4.240608,3.563714832979447,0.1203408797983957
4.242951999999999,3.5709809577183087,0.1198408113270601
4.245291999999999,3.5753138161509748,0.1194052660527316
4.247648,3.5832315671958943,0.1189007657902487
4.249988,3.589659074173595,0.1184755323621562
4.252331999999999,3.598088681897712,0.1179970963857125
4.2546800000000005,3.604096879994832,0.1176138527989554
4.257016,3.6081029773455344,0.117280055926894
4.259364,3.613319779509737,0.1169023368610752
4.261704,3.615882854621464,0.1165650261356257
4.264056,3.6196566345466894,0.1161833865712858
4.266399999999999,3.624641119285414,0.1157555527969508
4.268744,3.62897397771808,0.1153200872093226
4.271084,3.641455008763274,0.1146748487706425
4.273427999999999,3.652213478315772,0.11405704915189
4.2757760000000005,3.658827976748576,0.113554643641362
4.278115999999999,3.659436172942129,0.1131955732244514
4.280455999999999,3.659904599508822,0.1128542727977776
4.2828,3.659302090888877,0.1125457583949754
4.285143999999999,3.6579081863360137,0.1122391530098216
4.28748,3.659307778462485,0.1118847271178934
4.289819999999999,3.659915974656038,0.1115340319099639
4.292168,3.665599307529064,0.111065249323831
4.294516,3.675286841894922,0.1105121882264177
4.296852,3.6851141458876415,0.1099464365344761
4.299196,3.697734946559697,0.1093433817068546
4.3015360000000005,3.713568552791666,0.1086591214205878
4.303884,3.732614964583551,0.1078909800129954
4.30622,3.74774972268122,0.1072700339925332
4.3085640000000005,3.765398438204504,0.1066298846759292
4.310912,3.781696679287428,0.1060485120163873
4.313243999999999,3.7965046763031336,0.1055336575759677
4.315588,3.8119642996248966,0.1050349381773324
4.317936,3.823140182200106,0.1046535639706249
4.320271999999999,3.8341762951484553,0.1042864917261034
4.322612,3.847354278470081,0.103867234379016
4.324956,3.867190190337015,0.1033407949505057
4.327304,3.888236807017449,0.1027890069002691
4.32964,3.9079329492575225,0.1022924533702968
4.331984,3.932284919296488,0.1017400668264573
4.334339999999999,3.9586389900818713,0.1011613979936257
4.336675999999999,3.9857844568001712,0.1005875917382646
4.339027999999999,4.014652485011169,0.100019545862547
4.341372,4.039516311729332,0.0995286009727476
4.343715999999999,4.065311304007273,0.0990296102819435
4.34606,4.086170929232604,0.0986152026596541
4.348404,4.106099388898155,0.0982193947488705
4.350747999999999,4.125608539683126,0.0978629411548677
4.353088,4.151822840841649,0.0973519852176347
4.355432,4.178316681253892,0.0968236422183608
4.357775999999999,4.206952392039411,0.0962567343796965
4.360116,4.238661138757987,0.0956371479501775
4.36246,4.269298950289923,0.0950426573997556
4.364799999999999,4.299285135515802,0.0944361451062948
4.367144,4.32899178148796,0.0938521969644415
4.369484,4.35762749227348,0.0932948698267407
4.371827999999999,4.38081597932719,0.0927944030256203
4.374167999999999,4.4000002648880665,0.0923622241285593
4.376512,4.420255485635582,0.0919111633846621
4.378848,4.4357151089573446,0.0915255974495576
4.381192,4.448101696346053,0.0911944855239912
4.383531999999999,4.459417348548123,0.0908848828542834
4.385876,4.461933201831607,0.0906914253397087
4.388216,4.466590925488368,0.0904581138160372
4.390559999999999,4.47045725321221,0.0902244699784216
4.392911999999999,4.474323580936053,0.089988498093496
4.395251999999999,4.476187807913479,0.0897823655964769
4.397599999999999,4.474467142278652,0.0896018630032471
4.399944,4.466879944031435,0.0894981000621488
4.402296,4.45715087541094,0.0894335225311126
4.4046400000000006,4.444488540484249,0.0894056725219952
4.406984,4.4301036440648645,0.0893834947008104
4.409319999999999,4.418931553205393,0.0893023296583574
4.41166,4.407619692719062,0.0892310683754734
4.414007999999999,4.39779807629995,0.0891087829937425
4.416352,4.389838791000395,0.0889695076824464
4.418692,4.382670901633759,0.088831452256188
4.42104,4.372569745960927,0.0887287756860259
4.423384,4.360746028795398,0.0886318551171364
4.425727999999999,4.350784642749426,0.088517558084849
4.428068,4.337238364091202,0.0884264080829869
4.43042,4.321038358380501,0.0883503604017053
4.432767999999999,4.314709086775026,0.0881448340315715
4.4351,4.309590519983049,0.0879102075816917
4.437443999999999,4.304611722817932,0.0876647744756866
4.439795999999999,4.30377689677251,0.087355095013612
4.442128,4.304152775540586,0.0870159410142492
4.4444680000000005,4.308532855801496,0.0866224952436416
4.446812,4.313564562368462,0.0862398963029761
4.449164,4.317944642629372,0.085841807007017
4.451499999999999,4.32339565807692,0.0854246707010867
4.453844,4.32791550796469,0.0850156650587525
4.456199999999999,4.330573026732902,0.0846274488722452
4.458532,4.334441250314614,0.0842103229792124
4.460884,4.337238538709689,0.0838133104966409
4.463232,4.336590704119368,0.0834258421176358
4.465572,4.3370138047156885,0.0830200412149348
4.467908,4.344374373111037,0.0825308966388549
4.470252,4.353457502999082,0.0820386076303486
4.4726040000000005,4.36002667546151,0.0815474002789238
4.474943999999999,4.375255877215666,0.0809736410120771
4.477288,4.394489280462655,0.0803496685010932
4.479628,4.407856151097253,0.0797969342912667
4.481971999999999,4.415868345798659,0.0793299948355179
4.484308,4.422530066059705,0.0789006504013224
4.486651999999999,4.428120851134114,0.0784925160836727
4.488999999999999,4.433292327327942,0.0781157138713405
4.491344,4.43832403389491,0.0777519185927895
4.493687999999999,4.447639481208431,0.0773258459335777
4.496027999999999,4.461750525947704,0.076862214019086
4.498372,4.475861570686979,0.076400407310216
4.500712,4.492766112105588,0.0759239324838245
4.503055999999999,4.503384812031224,0.075528790716405
4.505395999999999,4.515166994942118,0.0751739874509744
4.507747999999999,4.5229449763601774,0.0748599638062984
4.510092,4.532165980017212,0.0745636773305337
4.512432,4.541247214047387,0.0742783252026552
4.514783999999999,4.544322145838311,0.0740581684610015
4.517123999999999,4.546605681696318,0.0738345659249656
4.519472,4.550332239793302,0.0736291313264327
4.521815999999999,4.547261099718115,0.0734834959334454
4.524156,4.545772751508765,0.0733478996917916
4.5265,4.545355338486053,0.0731970727123589
4.528839999999999,4.549081896583037,0.0729952524848638
4.531179999999999,4.556952425799713,0.0727449207678405
4.533512,4.561470379829613,0.0725486262847813
4.535855999999999,4.568130204232792,0.0723239373656736
4.5382,4.57357932382247,0.0721246160441242
4.54054,4.576607033785152,0.0719758891616633
4.542883999999999,4.577353103747696,0.0718666669073642
4.545228,4.579170108896879,0.0717438912150786
4.547568,4.578985013299644,0.0716401980490138
4.549899999999999,4.587739486247855,0.0714581644455858
4.5522480000000005,4.596261641770589,0.071235389477826
4.554592,4.613583596211909,0.0709465032197952
4.556936,4.62997438509345,0.0706612925110937
4.559279999999999,4.646225404348132,0.0703858274980842
4.561624,4.666340855468787,0.0700823670957824
4.563964,4.686176767335722,0.0697986227658528
4.5663,4.707083614389295,0.0695024204457169
4.568648,4.728921627002647,0.0692005285310218
4.570995999999999,4.7519703444294965,0.0688835703605862
4.573331999999999,4.775950227416124,0.0685655053801072
4.575671999999999,4.797928009656335,0.0682663137093176
4.578016,4.813899489657296,0.0680197515640472
4.580359999999999,4.830290278538838,0.0677426414711415
4.582699999999999,4.843747801114184,0.0674884079581616
4.585044,4.858416028503029,0.0672132430724686
4.587387999999999,4.869499363279621,0.0669434838214647
4.589724,4.880070841377016,0.0666515614158452
4.592063999999999,4.891154176153608,0.0663859862943063
4.594412,4.901166575743562,0.0661328973286346
4.596748,4.907594082721262,0.0658885635920013
4.599091999999999,4.913881820072104,0.0656551321883269
4.601431999999999,4.915373959997193,0.0654501785009717
4.60378,4.918216574362639,0.0652154135433872
4.606112,4.9224096631684455,0.064951953115139
4.608456,4.92781345678775,0.0646701663975837
4.6108080000000005,4.936569825593832,0.0643472805460198
4.61314,4.9456057336536325,0.0640094759263627
4.615484,4.958785612833127,0.0636375035646535
4.617827999999999,4.964236628280674,0.0633055859100139
4.620175999999999,4.967545773354946,0.0629963753554846
4.622512,4.97485911992205,0.0626616541558512
4.624855999999999,4.985245502422211,0.0623006349431645
4.627212,5.000846791228703,0.0618956587192835
4.629543999999999,5.015516914475419,0.0614914564971639
4.631895999999999,5.029255872162355,0.0610919278455722
4.63424,5.046859261715263,0.0606737361296233
4.63658,5.062460550521756,0.0602690667453676
4.638916,5.073685550783077,0.0598588545746885
4.641259999999999,5.089194291790953,0.0594087960389291
4.643611999999999,5.105494428731746,0.0589678091178718
4.6459600000000005,5.119001068993205,0.0585337664893415
4.648304,5.135580745187719,0.0580817508999507
4.650648,5.153882982874929,0.0576379780400453
4.652996,5.172185220562142,0.0571984259517546
4.655336,5.185552091196739,0.0567846696784198
4.657679999999999,5.193052429218949,0.0563988521889299
4.6600280000000005,5.196548565748323,0.0560350243626789
4.662372,5.196040500784863,0.0556954181325384
4.664716,5.196323831754322,0.0553583542944007
4.667059999999999,5.198097406791,0.0549867537985463
4.669407999999999,5.195075384401926,0.054631198443958
4.671747999999999,5.192053362012852,0.0542758382408366
4.6740960000000005,5.183816433317446,0.0539596142516479
4.676435999999999,5.176650439808679,0.0536323196530194
4.67878,5.166551179993716,0.0533145839504073
4.6811240000000005,5.153518653872558,0.0530073055750746
4.683468,5.141137754057459,0.0527136307634968
4.685803999999999,5.129548250175276,0.0524243156077373
4.688136,5.113023379240483,0.0521557113888918
4.690484,5.091702910879937,0.0518975130214207
4.831116,2.705335322917636,0.0517080871363955
4.833447999999999,2.6892731909759267,0.0516473152340476
4.835787999999999,2.6747013031014366,0.0515270221397983
4.838139999999999,2.6661357174661977,0.0513585787757961
