Time,Force,Position
4.753132,4.093343127209071,0.1559261152678658
4.755476,4.129605674638574,0.1556115107445863
4.757823999999999,4.156139153447583,0.1554057249867036
4.760164,4.178251017741048,0.1551721715694161
4.762504,4.191517757145552,0.1550720775454759
4.76486,4.201805904273488,0.1549335804067969
4.767195999999999,4.212468034311629,0.1546309356590005
4.769539999999999,4.215588292072929,0.15446055373434
4.771884,4.217964375729553,0.1542319200605055
4.774228,4.217546962706841,0.1540742179066453
4.778904,4.2053983803172175,0.154063718644184
4.78126,4.1995337435626965,0.1540376422760945
4.795312,4.147913599899392,0.1540113342132705
4.797648,4.14107247161472,0.1538797788269081
4.799992,4.134510882583767,0.1537218987174692
4.802332,4.132744890978566,0.1534374637731015
4.804676,4.130419820865924,0.1532044033236685
4.807023999999999,4.128234520380143,0.1529591403446444
4.80936,4.132055522133611,0.1525401297591111
4.811712,4.135829302058838,0.1521907400427083
4.814051999999999,4.138205385715461,0.1519725379370062
4.816404,4.151475916835703,0.1515167158373399
4.818747999999999,4.16698086612784,0.1510552470004854
4.821088,4.186862103965148,0.1505091960974066
4.823432,4.2101884647878505,0.1498917439897564
4.825768,4.235656695983828,0.149206185698118
4.828116,4.258051891246751,0.1486101295993788
4.830456,4.283380352815869,0.1479384456371302
4.832808,4.311502311064323,0.1472117412325097
4.835152,4.335759837446802,0.1465855574671951
4.900744,4.205940745340811,0.1462088221951302
4.903092,4.2000761085862885,0.1461671367205421
4.905424,4.197004968511104,0.1460649419678746
4.90776,4.195796159555473,0.1459225157110493
4.910104,4.200174343958515,0.1456566040897893
4.912448,4.212141622466642,0.1452069614015188
4.914796,4.228485189519941,0.1446824334875359
4.91714,4.242966425453683,0.1442085609968821
4.919484,4.261963719559456,0.1436444170427269
4.921819999999999,4.280401935157788,0.1431355362391273
4.924163999999999,4.300050855569619,0.142579626583991
4.926507999999999,4.324495373407202,0.1419031833564845
4.928856,4.348520582364205,0.1412721015905871
4.931196,4.36947275538815,0.1407243804037994
4.93354,4.387491662105902,0.1402486598854226
4.935884,4.404719172890736,0.1397808405192233
4.938224,4.4220864533024296,0.1392974598930997
4.940568,4.439733272967844,0.1387889441729488
5.006112,4.052591587473168,0.1385117704247689
5.008456,4.0411871791882215,0.1385096734559822
5.010796,4.035369764261944,0.1383882776539665
5.013132,4.030483514895444,0.1382464893228264
5.015476,4.027971453327699,0.1380822428981845
5.01782,4.028904514745346,0.1378634024821038
5.02016,4.030209663215331,0.1376759967668542
5.022504,4.031235272431595,0.1375119950199188
5.024844,4.0346350694466135,0.1373254747155497
5.027188,4.037755327207913,0.1371646149091994
5.036568,4.032589538587692,0.1370467082003465
5.038907999999999,4.0298432637366,0.1370374122356532
5.041252,4.028819550378206,0.1369989554734866
5.043596,4.0308688729528654,0.1368697187233031
5.045932,4.030636555527389,0.1368234421661956
5.048279999999999,4.030404238101911,0.1367773741056953
5.057659999999999,4.017743799033091,0.1366886800871037
5.060003999999999,4.013694271569883,0.1366652476602975
5.06234,4.009784513733536,0.1366285497164343
5.064687999999999,4.005595216643468,0.1366171509610185
5.067031999999999,4.001825228433981,0.1365667195919398
5.069372,4.004201312090605,0.1363465784434378
5.071716,4.007927870187587,0.1360710081588702
5.074059999999999,4.014447924963905,0.1357386965568575
5.0764,4.024832411606196,0.135317250992088
5.078748,4.033075027875209,0.1349573262794451
5.081092,4.043739053771221,0.1345082535425851
5.08344,4.061340547466261,0.133885335579222
5.08578,4.081735537840637,0.1332151396975853
5.08812,4.098917722655096,0.1326428737489138
5.090471999999999,4.117170842656195,0.1320435255892773
5.092803999999999,4.139707703403848,0.1313259067168111
5.095144,4.161313398591721,0.1306310277986787
5.097487999999999,4.182127697846677,0.129946921120715
5.099836,4.204664558594329,0.1292296212492221
5.102176,4.22827235452862,0.128494053283364
5.10452,4.252951085649549,0.1277316885699009
5.106868,4.277629816770479,0.126978615400145
5.109204,4.305241814197602,0.1261720372493511
5.111543999999999,4.332062415691809,0.1253800842356085
5.113887999999999,4.360465809051852,0.1245858420705874
5.116231999999999,4.3876584975983945,0.1238496621814469
5.118572,4.412429776517941,0.1231999271781079
5.120915999999999,4.43668919875829,0.1225405378277821
5.123272,4.458946520252222,0.1219294279476817
5.12562,4.483345712119431,0.1212592607636246
5.127964,4.506394429546281,0.1206442881093242
5.130307999999999,4.526230341413217,0.1201183501562378
5.132644,4.543272756600817,0.1196454131165074
5.13498,4.561386106975053,0.11914388284776
5.137324,4.57921991809557,0.1186694088603147
5.139664,4.593840923656172,0.1182788215582901
5.142011999999999,4.607530763656996,0.1179025611776364
5.144355999999999,4.626016201083572,0.1174523265198821
5.146696,4.64957677518962,0.1169053042487326
5.149039999999999,4.671786874855308,0.1164121270037159
5.151376,4.692926039334357,0.1159457465063042
5.15372,4.714577060492605,0.1155032539675877
5.15606,4.733946441650716,0.1151256326180953
5.158408,4.750242786875771,0.1148078281618229
5.160752,4.762954239488574,0.1145327961917473
5.163096,4.77380336098182,0.1142863996195452
5.165448,4.786142726542284,0.1139863809537653
5.167783999999999,4.797131617662389,0.1137326103723656
5.170135999999999,4.809470983222854,0.1134365548459329
5.172476,4.823021053596818,0.1131094535126247
5.17482,4.836710893597642,0.1127723606071474
5.177163999999999,4.8483986328520485,0.1124686429013599
5.179507999999999,4.856873566546539,0.1122324187034643
5.221699999999999,4.650559128911867,0.1121173154708837
5.224043999999999,4.6399461165598375,0.1120490003960512
5.226388,4.636270572006836,0.1118666986817601
5.228736,4.634457358573392,0.1116600542477799
5.231076,4.632876462565426,0.1114933270731246
5.23342,4.636230933610071,0.1112469539938483
5.235764,4.640516570214494,0.1109881961218327
5.238108,4.650017113125251,0.1106243729040089
5.240443999999999,4.661379987155563,0.1102342679947625
5.242788,4.669530055625961,0.1099098178263319
5.245132,4.68126501670861,0.1095478158628228
5.247471999999999,4.697004179284094,0.1091142173997288
5.249816,4.715257299285191,0.1086655999002533
5.25216,4.736303915965624,0.1081840884497732
5.254499999999999,4.749714216712728,0.107873236443199
5.25684,4.76284497820611,0.107581495420558
5.25918,4.774765034885994,0.1073220387700337
5.261524,4.789758127498933,0.1070049525447227
5.263859999999999,4.803959824178954,0.1066888703239311
5.266203999999999,4.814157319366143,0.1064425216571281
5.268548,4.821421548247136,0.1062443838381396
5.270896,4.823610640448655,0.1061388162948137
5.273231999999999,4.8197934304109245,0.10613491748604
5.275576,4.819840652239167,0.1060745442407687
5.27792,4.820167413321132,0.1059939905435611
5.280264,4.816350203283402,0.1059892677116371
5.282608,4.815606029178726,0.1059305370932435
5.284952,4.816444646939887,0.1058701458132257
5.287296,4.81756280395477,0.1057897165158904
5.28964,4.819472356902569,0.1057071934987911
5.291988,4.820450744290591,0.1056364620116739
5.299016,4.816261447200522,0.1056016898821592
5.301355999999999,4.814027029028628,0.1055944285319964
5.3037,4.813934481230011,0.105544775492388
5.306036,4.816914969364449,0.1054419184329521
5.308383999999999,4.821757788618444,0.1053189151659161
5.310727999999999,4.830185500484692,0.1051639387757172
5.313068,4.8406153130973575,0.1049762082860581
5.315411999999999,4.853698852762497,0.1047670862903326
5.317755999999999,4.866642622800777,0.1045662765280277
5.3201,4.881588493585474,0.104331808255123
5.322436,4.894392493996893,0.104143897361692
5.324783999999999,4.90198158810198,0.1040475002566516
5.327124,4.912503948513262,0.1039079213538129
5.329467999999999,4.919953272991488,0.1038223502374437
5.331811999999999,4.924609100790379,0.1037690783587679
5.334152,4.929637015641609,0.1037449904407878
5.336496,4.941742167918728,0.1036084908250953
5.338836,4.952636615382347,0.1035026121878142
5.341188,4.959526861353131,0.1034582176569197
5.343535999999999,4.966417107323918,0.1034130622995369
5.345872,4.978242720347315,0.1032942136468079
5.369319999999999,5.020186704791975,0.1032558367038139
5.371659999999999,5.026984402964144,0.1031655085156831
5.374003999999999,5.033782101136313,0.1030757861919817
5.376344,5.040440029681621,0.1029955298487333
5.378679999999999,5.050962390092902,0.1028663883492346
5.381024,5.06483732569096,0.1026720297704874
5.383372,5.073916663863266,0.1025389952316711
5.385716,5.082856232408711,0.1024147342895861
5.388059999999999,5.09673116800677,0.1022240456556238
5.390403999999999,5.113539369911022,0.1019954511262612
5.392752,5.129416406255498,0.101778530662206
5.395092,5.146504147413471,0.1015357387788353
5.39744,5.162241414131085,0.1013303904063077
5.399792,5.182634508647592,0.1010788127510885
5.402132,5.203027603164098,0.1008247469849026
5.404476,5.224072323986661,0.1005805238890421
5.40682,5.247770771861699,0.1003175623772677
5.40916,5.26904781010974,0.1001064938031748
5.411492,5.287391582051587,0.0999338242615271
5.41384,5.304384879553075,0.0998005901409946
5.416188,5.326173774480313,0.0996096327310688
5.453708,5.474164813935999,0.0995887082120148
5.456052,5.485990426959396,0.0994955808190802
5.45838,5.500097679982931,0.0993596951312918
5.460728,5.511551205953991,0.0992400316687835
5.463072,5.519280069685937,0.0991544886276316
5.465415999999999,5.528219638231382,0.0990433819172397
5.467756,5.536787119724491,0.0989078679912697
5.4701,5.5491264852849564,0.0986867890272423
5.472448,5.559883058979585,0.0984652309816225
5.47478,5.569568697487576,0.098258974131267
5.477124,5.580092953756727,0.0980023712342499
5.479468,5.586473238906184,0.097805592290956
5.481812,5.594855624802059,0.0975833679958036
5.484147999999999,5.6025863843918735,0.0973531195459276
5.486488,5.609385978421912,0.097131944398239
5.488843999999999,5.616884420586252,0.0968695957363203
5.491184,5.626384963497007,0.0965826990140076
5.493524,5.63760806790046,0.0962883376869222
5.495868,5.642033474131742,0.0960671851587782
5.498208,5.650323312229001,0.095805251414797
5.500544,5.654608948833424,0.0955929764681548
5.502888,5.651445260959621,0.0954455139986908
5.505228,5.647210637899179,0.0953145487538476
5.507575999999999,5.649122086704847,0.0951035409144948
5.509919999999999,5.654106571443572,0.0948521865322767
5.51226,5.657228725062739,0.0946165999377813
5.5146,5.657789699428051,0.0944386123760525
5.51694,5.658862530472558,0.0942791701076664
5.519284,5.659935361517066,0.0941192863272006
5.521623999999999,5.664220998121489,0.0939114263404168
5.523972,5.665014289912277,0.0937679059706824
5.526316,5.666738747262842,0.0936160187101956
5.528656,5.66795134793421,0.0934470442954331
5.531,5.667953243792079,0.0933021881063052
5.53334,5.666884204463309,0.0931730672053441
5.535688,5.661391654761125,0.0931158391014063
5.538024,5.658180745059079,0.0930186419893097
5.540368,5.656320309797391,0.0928896799238029
5.542707999999999,5.660605946401816,0.0926835312699635
5.545048,5.660375524834207,0.0925053302795799
5.547391999999999,5.663357908826515,0.09228037934549
5.549735999999999,5.673137990990991,0.0919895906079594
5.552084,5.683057842782327,0.0916911886267193
5.554428,5.686691853080694,0.0914778279429143
5.556768,5.689394697819281,0.0912722063765536
5.559112,5.693168477744506,0.091051395616312
5.561452,5.697221796923452,0.0908133542576591
5.563803999999999,5.699552554609703,0.0905820963241215
5.566147999999999,5.703745643415509,0.0903373465505122
5.568492,5.706076401101758,0.0901066254645512
5.570836,5.709757633228367,0.0898434039096899
5.57318,5.715720505355112,0.089542443751793
5.575524,5.723545708601415,0.0892302312655457
5.577868,5.732581616661217,0.0888948848342431
5.58022,5.743899164721155,0.0885225837032307
5.58256,5.759360683900788,0.088098000388021
5.584904,5.769607296774087,0.0877408969999477
5.587251999999999,5.77785180890097,0.0874072826066141
5.589588,5.783954450654576,0.0871044165629768
5.591932,5.794573150580214,0.086777896967085
5.594284,5.804912311252132,0.0864695094596348
5.59662,5.811247270431214,0.0862045222279717
5.59896,5.814509193677242,0.0859725587490351
5.601304,5.820052756923407,0.085703736826354
5.603656,5.827318881662269,0.0854321248445529
5.605995999999999,5.832582905654715,0.0851800227838049
5.608339999999999,5.841851131139993,0.0848897402636263
5.610691999999999,5.847254924759298,0.0846297089205208
5.613035999999999,5.852146861699405,0.0843530048480713
5.61538,5.857830194572431,0.0840782425706709
5.617719999999999,5.865515628191874,0.0837846897950074
5.620068,5.872921522557596,0.0835086158920764
5.622407999999999,5.874181345057207,0.0832976282699682
5.624747999999999,5.878514203489873,0.083055740977478
5.627096,5.881776126735901,0.0828281168805399
5.629444,5.885317589235648,0.0825864050526291
5.631784,5.891140691735535,0.0823102118460536
5.634124,5.893890758302366,0.0820645670303556
5.636472,5.898922464869333,0.0817864494981805
5.638815999999999,5.899158574010549,0.0815422008686252
5.641159999999999,5.897672121659068,0.0813009159915576
5.643503999999999,5.899538244494363,0.0810149337032442
5.645852,5.908481604755547,0.0806637804009263
5.648196,5.915422864270314,0.08032974447478
5.65054,5.919850166359467,0.0799966803799071
5.65288,5.927070965127955,0.0796483894758742
5.65522,5.92949616647069,0.0793336540561445
5.657568,5.940860936358872,0.0789465171712158
5.659908,5.953668728486029,0.0785750549566072
5.66226,5.966756059866908,0.078189554200386
5.664599999999999,5.979563851994065,0.0778214011800083
5.666944,5.991720017815164,0.0774445234598181
5.669292,6.0112329603158745,0.0769916765363638
5.671627999999999,6.02553099651025,0.0765929784400826
5.673976,6.036895766398432,0.0762136843341985
5.676316,6.046118665913337,0.0758593164812842
5.678655999999999,6.053991090987884,0.0755315242089783
5.681,6.065076321622344,0.0751672051904816
5.683344,6.07387991225667,0.0748359925299448
5.685683999999999,6.089109114010824,0.0744364831499151
5.688032,6.105269481324759,0.0740332191050684
5.690372,6.114212841585943,0.0736962476706362
5.69272,6.120222935540932,0.0733825315691089
5.69506,6.1302372309887545,0.0730392823950607
5.697404,6.143045023115912,0.0726863781722321
5.699751999999999,6.157343059310289,0.0723041782860672
5.702088,6.173363656997362,0.071921227514914
5.704432,6.185100513937881,0.0715866629940085
5.706776,6.192181543079508,0.0712696386005624
5.709123999999999,6.201124903340692,0.0709476630897764
5.711468,6.206483370989623,0.0706317709536949
5.713812,6.212633234571474,0.0703207486421818
5.716164,6.215430522966547,0.0700498936679928
5.718503999999999,6.218367580988481,0.0697703944059688
5.720844,6.229313041996082,0.0694386031249371
5.723188,6.239978963749962,0.0691201768732242
5.725528,6.252135129571062,0.0687706684271605
5.727872,6.26522246095194,0.0684199259277896
5.730212,6.2775183963999,0.0680653430581987
5.732556,6.286461756661085,0.0677509093535913
5.7349,6.296336282482048,0.0674347503104775
5.737244,6.307141973862788,0.0671119940550167
5.739584,6.315805794870252,0.0668098326453442
5.741931999999999,6.323398680691077,0.0665197294216376
5.744272,6.324985264272652,0.0662668880922521
5.746616,6.322288107107672,0.0660531869114121
5.748956,6.318799554009774,0.065835017412703
5.751303999999999,6.311726108299624,0.0656201031863307
5.753647999999999,6.3107987344555845,0.0653615050883796
5.755992,6.305867159118711,0.0651272854926388
5.758331999999999,6.3046602460209495,0.0648821516932202
5.760675999999999,6.299588901057217,0.0646535343412678
5.763024,6.2917240594141495,0.0644315673041923
5.765359999999999,6.288794584823693,0.0641834125255115
5.767703999999999,6.277577167993846,0.0639969553945015
5.770047999999999,6.268781160790999,0.0637778242236291
5.772387999999999,6.262499111013767,0.0635660571129508
5.774728,6.255006356423036,0.0633703893102821
5.777068,6.249515702578721,0.0631633237553864
5.779415999999999,6.242814343920909,0.0629717510618868
5.781752,6.235181819703316,0.0627824585953559
5.784096,6.234626532911613,0.0625515454095749
5.786435999999999,6.234211015746771,0.0623133154697043
5.78878,6.235006203395429,0.0620609626560375
5.791119999999999,6.240736758096697,0.0617841129840173
5.793463999999999,6.249121039850442,0.0615077198094269
5.795812,6.261509523097018,0.0612119096716502
5.798152,6.279484999702263,0.0609054895172572
5.800503999999999,6.289032764441263,0.0606609275958068
5.802848,6.302305191419375,0.060409274922087
5.805192,6.3143669135839895,0.0601736520634118
5.807528,6.332295168360994,0.0599146294816775
5.809868,6.357021121310166,0.0596313910964161
5.812215999999999,6.379884743139782,0.0593553169704475
5.814556,6.40810304090259,0.0590382664141536
5.816896,6.436693425717736,0.0587489698070387
5.81924,6.46155914829377,0.0584682718430007
5.82158,6.485214166056304,0.0582017851033943
5.823924,6.507798248632199,0.057945251059984
5.826268,6.530661870461816,0.0576753446859679
5.828612,6.5516631611718745,0.0574086294987006
5.830959999999999,6.566658149642684,0.0571720335918016
5.833304,6.583515469233048,0.0569335423277785
5.835643999999999,6.596228817703719,0.0567208279045176
5.837992,6.607079835054834,0.0565113200448528
5.840328,6.619560866100029,0.0562701460365093
5.842676,6.624545350838751,0.0560822127871355
5.845015999999999,6.62780727408478,0.0558916866702637
5.847364,6.639496909197056,0.0556471511887461
5.849708,6.649743522070357,0.0553871847498603
5.852052,6.664273875690211,0.0550999996546475
5.854404,6.672658157443955,0.0548444603429614
5.856751999999999,6.675036136958448,0.0546146614855519
5.859092,6.6732701453532455,0.0544070319929728
5.861435999999999,6.669222513747908,0.0542206636440924
5.863784,6.664523255836511,0.0540234404999288
5.86612,6.661546559417811,0.0538307890424602
5.86846,6.662062207812747,0.053604996674318
5.870804,6.661367151394184,0.0533922043018826
5.873148,6.664536526841595,0.0531710609537549
5.875492,6.670359629341481,0.052953874711232
5.877832,6.679255767774422,0.0527223532306983
5.880172,6.689083071767142,0.0524916853792805
5.882508,6.700772706879417,0.0522593681796586
5.884848,6.714184903484391,0.0520324509301578
5.887192,6.720100553782893,0.0518523668716079
5.889539999999999,6.734583685574504,0.0516185797623664
5.891883999999999,6.7446433069927,0.051417476774459
5.894224,6.75214174915704,0.0512498755855633
5.89656,6.759081112813938,0.0511071776427866
