Time,Force,Position
3.444272,2.326303359585351,0.141591752954881
3.44662,2.3280278169359168,0.1412020650034773
3.448955999999999,2.323885741674092,0.1410676422681624
3.4513,2.3296144005174915,0.1404895611848511
3.4536479999999994,2.32891744824106,0.1402583518031294
3.455983999999999,2.331665618950021,0.1399318024785375
3.4583319999999995,2.33669542965912,0.1394580370539573
3.5637799999999995,2.2619397083439563,0.1391732101842086
3.5661239999999994,2.2639418090903733,0.1390835320123699
3.568471999999999,2.268877176142985,0.1388682365569117
3.570811999999999,2.278328601367628,0.1384981316962165
3.573155999999999,2.288571422525189,0.1381234807911649
3.575512,2.29811539554845,0.1378592544218495
3.577863999999999,2.3136656708109613,0.137328600529395
3.580208,2.331078277193029,0.1367296591050501
3.582552,2.3510048410007114,0.1360778232476098
3.584891999999999,2.368789534435116,0.1355473639191304
3.587235999999999,2.3904386597354947,0.1348743214699689
3.589575999999999,2.4091545187296783,0.134315157113033
3.591919999999999,2.4305241047763366,0.1336856637437361
3.59426,2.456456970823269,0.1328061594826675
3.5966039999999992,2.4839726287360384,0.1318983071363974
3.598947999999999,2.5127915392609235,0.1310254685383905
3.601284,2.541330910532088,0.130215169473869
3.60362,2.5695907425495315,0.1294782198215801
3.6059639999999993,2.594125912327862,0.1288695161398936
3.608304,2.6169385206134965,0.1282843965430149
3.610644,2.6378887977795737,0.1277745230959611
3.612988,2.658559535691932,0.1273217355393536
3.615332,2.6790905039774287,0.1268948894114516
3.617672,2.7001805507703667,0.1264041817982106
3.620023999999999,2.7204792016303854,0.1259314595373627
3.622372,2.741197161370986,0.1253951531682492
3.624716,2.757119523685834,0.12502695306929
3.627056,2.7730418860006827,0.1246643812037227
3.6294,2.7853793557032778,0.1243880822836855
3.631744,2.800650091712068,0.1240198341040823
3.634096,2.810705921414526,0.1238573229573443
3.636428,2.82383478705004,0.1235769292820503
3.638775999999999,2.8363120263794954,0.123293591607036
3.641119999999999,2.8483699568283702,0.1230793357190077
3.643464,2.860847196157826,0.1228138966279176
3.645808,2.869739542875029,0.1226250850588698
3.650499999999999,2.8784448981371287,0.1225535073168427
3.652836,2.886545848921413,0.1223742491754276
3.6551839999999993,2.896509130825254,0.1221425569957227
3.657532,2.9079626567963146,0.1218224329244745
3.659868,2.9167624557149,0.1215568755119776
3.662212,2.9250503979542875,0.121264328363561
3.6645559999999993,2.929194369073982,0.1211184626312203
3.666896,2.93040507388748,0.1210597208750181
3.66924,2.933478109820536,0.1209550562463074
3.6715839999999993,2.9364113761267308,0.1208666093471346
3.673932,2.937482311313369,0.1208253842469692
3.676268,2.941346743179344,0.1207126431107416
3.6786119999999993,2.9414865128062035,0.1206950928276492
3.68096,2.944047692060061,0.1205586898181124
3.683304,2.948331432806615,0.1203960204863971
3.685643999999999,2.954058195792145,0.1202433183194899
3.6879839999999993,2.9557807572848422,0.1202155198405834
3.690332,2.9567119228446206,0.1201934198278242
3.692668,2.959784958777676,0.1200921287270987
3.6950119999999993,2.963928929897369,0.1199481527987289
3.704392,2.9684449880694004,0.1198473584106592
3.706736,2.972681506987711,0.1197893828154126
3.709071999999999,2.9792922137047766,0.1197191047706096
3.711416,2.9886964171011767,0.1195830140539521
3.713764,3.00210482199041,0.1193276634771138
3.716104,3.013650895760088,0.1191182357727839
3.718448,3.0292011710225992,0.1187947519901064
3.720792,3.0444719070313893,0.1184983330526698
3.723139999999999,3.061744743786597,0.1181524948586125
3.7254799999999992,3.0778068757283057,0.1178522515298992
3.72782,3.0955915691627105,0.1175312861223186
3.730164,3.108440895544504,0.1173481335745428
3.7325079999999993,3.114632293380988,0.1173263278396102
3.734848,3.121103230471193,0.1172696957467191
3.737195999999999,3.1302278946138733,0.1171692758895076
3.739532,3.1441481561823053,0.1169574270990416
3.741871999999999,3.1612812233106533,0.1166394071430526
3.744216,3.1797647648793594,0.1162496849701219
3.74656,3.1959666664479283,0.1159421468210092
3.748899999999999,3.2130997335762754,0.1156221074467539
3.751244,3.2277188432790087,0.1153291118262855
3.753588,3.23796166443657,0.1151109690272611
3.7559359999999993,3.246621693728295,0.1149054043113506
3.758276,3.261427794886131,0.1145378446291356
3.760623999999999,3.2720899249242734,0.1142892252043577
3.762972,3.282752054962415,0.1140406057795799
3.765316,3.290620688321222,0.1138512480859116
3.7676599999999993,3.3006311920533062,0.1135945722610164
3.7700039999999992,3.3044956239192795,0.1135065904909722
3.772344,3.3115728613451685,0.1133173561130121
3.774679999999999,3.3178587028381403,0.1131343515189766
3.777028,3.3274971195178864,0.1128359009080626
3.779372,3.344492312877243,0.1123190190523233
3.781716,3.363629376609876,0.1117374619908622
3.784056,3.3798331740363143,0.1112335263997238
3.7864,3.3870974029173064,0.1109503198051216
3.788747999999999,3.394082092544579,0.1107017471816684
3.791091999999999,3.402789343664548,0.1104362810651019
3.793436,3.415128709225012,0.1100312565866121
3.795784,3.42560574366592,0.1096645734307997
3.798119999999999,3.439807440345941,0.1092322724441836
3.800463999999999,3.456662864078438,0.1087689264441394
3.802812,3.46965385594496,0.1083833126906109
3.8051559999999993,3.473053652959979,0.1081956109500804
3.807499999999999,3.480737190721552,0.107887243776793
3.80984,3.490562598856402,0.1075224121934962
3.812187999999999,3.500108467737532,0.1071857114263675
3.814532,3.5107252718053,0.1068240412751166
3.816876,3.526836521433121,0.1062989342113315
3.8192239999999993,3.542156375128024,0.1057799892200201
3.8215559999999993,3.554542962516732,0.1053201437952128
3.823899999999999,3.565067218785884,0.1048934972143717
3.826243999999999,3.5700970294949816,0.1046276941949278
3.828592,3.573916135390581,0.1044057309719608
3.830932,3.574801974979986,0.1042405344677387
3.833271999999999,3.5799715553159444,0.1039554104855174
3.83562,3.5826271782262884,0.103689830772821
3.83796,3.584770944457435,0.1034007861521854
3.840304,3.5866351714348603,0.1031415996608175
3.842643999999999,3.587428463225648,0.1029101733792928
3.844995999999999,3.5863594238968783,0.1027090277250492
3.847332,3.581565722328996,0.1025651389857993
3.849676,3.5817073878137253,0.1023221449513736
3.8520119999999993,3.581569514044735,0.1021029756742174
3.8543559999999992,3.581431640275744,0.101886406003373
3.856696,3.5803626009469744,0.1016857165006908
3.85904,3.5806440360585645,0.1014314531874218
3.8613839999999993,3.579063140050597,0.1012058550582964
3.86372,3.575340373669353,0.1010343627577909
3.866064,3.5724090032210274,0.1008630389314091
3.868408,3.5734818342655355,0.1006133645027854
3.870747999999999,3.577068622735658,0.1003521530462483
3.873092,3.584939151952334,0.0999870647928459
3.875436,3.5941601556093694,0.0995726397378905
3.877788,3.6104583966922936,0.0990201119464075
3.880127999999999,3.630621069641192,0.0984171659977425
3.8824799999999993,3.6512955992692873,0.097839146430369
3.88482,3.6696884888972456,0.0973267280221016
3.887164,3.688221148152064,0.0968077761334681
3.8895079999999993,3.710618239272856,0.0962334014546859
3.891851999999999,3.73194439520701,0.0956824031392775
3.894192,3.755924278193638,0.095107255338938
3.896527999999999,3.778972995620488,0.094554206063004
3.898876,3.806025914540172,0.0939247686653713
3.901228,3.829074631967022,0.0933695207793252
3.903572,3.8498417093937354,0.0928761581751823
3.905912,3.864602484581197,0.0924845813870059
3.908255999999999,3.881505130141936,0.0920503763588464
3.910595999999999,3.898407775702675,0.091617619404634
3.912943999999999,3.9151706516365534,0.0912011950497098
3.915292,3.9279293260776,0.0908556319281018
3.91764,3.936963338279532,0.090554470020135
3.91998,3.945066184921686,0.0902686718374976
3.922323999999999,3.952749722683259,0.0900223970371276
3.924672,3.9534957926458034,0.0898871816115989
3.948107999999999,3.88059292316085,0.0898542015710995
3.950447999999999,3.872678963831668,0.0898334647542256
3.952787999999999,3.874635738607712,0.0896666373683022
3.955132,3.874450643010477,0.0895439661477789
3.957475999999999,3.873054842599744,0.0894543318275871
3.959815999999999,3.867934379949898,0.0894031936038686
3.96216,3.8669578884197455,0.0892775061413134
3.964503999999999,3.868774893568929,0.0891225424804748
3.966843999999999,3.868450028344835,0.0890108143151981
3.969188,3.8633295656949898,0.0889591414411624
3.971528,3.861933765284257,0.0888680157473565
3.973871999999999,3.8617486696870222,0.0887425796494754
3.976219999999999,3.8607721781568713,0.0886152825635969
3.978559999999999,3.860866621813357,0.0884674150180281
3.980904,3.861100835096703,0.0883067791356562
3.983244,3.8630576098727456,0.0881391818232184
3.985587999999999,3.87130022614176,0.0878545920742723
3.987935999999999,3.8776805112912167,0.0875881111311741
3.990275999999999,3.884340335694394,0.0872958576262309
3.992632,3.891139929724432,0.0869942876926999
3.994972,3.893935322261637,0.0867536571576079
3.997315999999999,3.8996639811050353,0.0864763069514049
3.999655999999999,3.900457272895824,0.0862716859454513
4.002,3.898457068007275,0.0860924881091052
4.004347999999999,3.900880373492142,0.0858206455568314
4.006692,3.911312081962676,0.0854359266823887
4.009031999999999,3.9174600496866567,0.0851325037877268
4.011375999999999,3.923235930358299,0.0847933064415135
4.01372,3.930222515843441,0.0844223664800142
4.016068,3.943215403567832,0.0839645356517553
4.018403999999999,3.9574189961057225,0.0834805456425986
4.020751999999999,3.9708311927106954,0.0829935671907059
4.023099999999999,3.981170353382612,0.0825513269009627
4.025436,3.9896471829349727,0.082129451247271
4.027779999999999,4.000405652487471,0.0816585037943988
4.030124,4.011443661293689,0.0811693122955559
4.032464,4.02047956935349,0.0807139812731959
4.034807999999999,4.031377808532848,0.0802420667215193
4.037147999999999,4.043207213271984,0.0797623248824268
4.039499999999999,4.054105452451341,0.0792932030974198
4.041831999999999,4.072732555362647,0.0787474210962227
4.044175999999999,4.08642429122134,0.0782636468236171
4.046523999999999,4.102257897453309,0.0777488419636097
4.048868,4.120605461110893,0.0772308165037371
4.051208,4.133877888089006,0.0767848993297553
4.053551999999999,4.141423552081587,0.0763971188085501
4.055903999999999,4.1521820216340855,0.0759566340513552
4.058243999999999,4.164383513425559,0.0755403176806999
4.060588,4.173372199657117,0.0751727066550539
4.062943999999999,4.1766341229031445,0.0748529704290101
4.065288,4.17645092316378,0.074537271875014
4.067631999999999,4.175057018610916,0.0742475644097757
4.069976,4.1799489555510245,0.0738677335977872
4.072316,4.183769957304493,0.0735045918548832
4.074656,4.187451189431102,0.0731550800436766
4.076995999999999,4.186057284878238,0.0728650873713607
4.079347999999999,4.18186988364604,0.0725917864182698
4.081691999999999,4.177682482413841,0.072318451004603
4.084032,4.17591649080864,0.0719924380901592
4.086375999999999,4.177223535136494,0.0716321029790853
4.088727999999999,4.171221024612982,0.07130395487739
4.091072,4.166289449276109,0.0709581269009751
4.093419999999999,4.154280636513346,0.0706878043118834
4.095771999999999,4.143901837444663,0.0703595011732934
4.098123999999999,4.134454203935758,0.0700241026410983
4.100464,4.123656095986494,0.0697233741782412
4.102804,4.11299775766409,0.069412260485392
4.105152,4.096472886729296,0.069150071320116
4.107492,4.085442461354555,0.0687986388007476
4.109839999999999,4.081069964525122,0.0684027288196448
4.11218,4.077860950680945,0.0680493090327083
4.11452,4.079866843143101,0.067631616414057
4.11686,4.075307354858565,0.0673154867369815
4.119203999999999,4.068605996200752,0.0670271347132848
4.121543999999999,4.059902536796521,0.0667581221316288
4.123888,4.056925840377822,0.0664504374391098
4.126236,4.05474053989204,0.0661471428149732
4.128583999999999,4.05176384347334,0.0658369108970193
4.130923999999999,4.044223867054366,0.0656085008520926
4.133268,4.030398049142421,0.0654586467498835
4.135616,4.018015253469451,0.0653311232571393
4.137956,4.008286184848957,0.0652013721003788
4.140304,4.007496684773908,0.0649911586148953
4.142644,4.006287875818278,0.0648142503345373
4.144991999999999,4.0078725635419845,0.0646262558663228
4.147332,4.012390517571885,0.0644157077413571
4.149675999999999,4.015697766788287,0.0642314210970782
4.152027999999999,4.0262220230574375,0.0639682415587361
4.154364,4.035116265632509,0.0637650653052879
4.156707999999999,4.043079342647802,0.0635690340735752
4.159052,4.055465930036511,0.0633117074126044
4.161392,4.063708546305525,0.0631003756762932
4.163735999999999,4.080378874440787,0.0627963674805213
4.166076,4.10333504406902,0.0624256740377313
4.16842,4.1282933144436695,0.0620410913201595
4.170763999999999,4.1553934551915965,0.0616399263186763
4.173108,4.185426862245718,0.0612240922028211
4.175447999999999,4.219045161912093,0.0608122769095175
4.177791999999999,4.253874166391967,0.0603746346124853
4.180132,4.28991387568534,0.0599082522763992
4.182475999999999,4.326093354605572,0.0594302634262259
4.184815999999999,4.360410502406248,0.0589621910649967
4.187164,4.389932052781173,0.0585249531188356
4.189503999999999,4.41866220722318,0.0580838151560103
4.191847999999999,4.442596764239434,0.0576641388766837
4.194188,4.466671090882549,0.0572387539299029
4.196531999999999,4.493818453458719,0.0567931900172334
4.198875999999999,4.518823945661612,0.0563795423220912
4.201216,4.541967106744948,0.0559698950960825
4.203568,4.560174900775672,0.055589471421854
4.205908,4.571165687753647,0.0552720848589882
4.208251999999999,4.581085539544982,0.0549642990213611
4.210591999999999,4.582857218723792,0.0547205557248709
4.212936,4.57848282603649,0.0545247629995882
4.215284,4.57210633260277,0.0543413909458616
4.217624,4.556790270623606,0.0542087764918828
4.219976,4.539472107898026,0.0540880103861392
4.222319999999999,4.51963998774683,0.0539517917984534
4.224664,4.50167019871519,0.053812291453006
4.226999999999999,4.485422971176247,0.0536788137136161
4.22934,4.469035974010445,0.0535539626250772
4.231687999999999,4.451717811284863,0.0534295008564442
4.234028,4.433188943745782,0.0533238372746299
4.236372,4.413449371393204,0.0532373649678372
4.238711999999999,4.397853770160319,0.0531165330307666
4.241056,4.37811419780774,0.0530279265441586
4.243396,4.351437157656133,0.0529738980378936
4.245743999999999,4.320755916011692,0.0529418608895272
4.248091999999999,4.292496083994247,0.052867082461329
4.25044,4.270242554216053,0.0527567758552202
4.252779999999999,4.251341599624636,0.0526042464148578
4.255124,4.235234141712554,0.0524489350294653
4.257471999999999,4.222851346039584,0.0522896501450039
4.259811999999999,4.214472751859447,0.0521067458190352
4.262147999999999,4.207956488798869,0.0519220406494287
4.264492,4.206375592790901,0.051711933803113
4.266835999999999,4.204794696782935,0.0515018927113074
4.26918,4.201723556707749,0.051331088550043
4.271523999999999,4.197721251072784,0.0511612926641725
4.273872,4.196931750997736,0.0509618522151853
4.276203999999999,4.198423890922824,0.0507326940620933
4.278543999999999,4.198705326034414,0.0505218923916481
4.280884,4.199917926705782,0.0503091462846418
