Time,Force,Position
4.072063999999999,4.745328533485569,0.1562838337472195
4.074408,4.784195690281433,0.1561905908608253
4.076748,4.81244983472527,0.1561432820347512
4.079096,4.834746794615969,0.1560326542803262
4.081439999999999,4.848525390699672,0.1559612461797364
4.083784,4.8549491059616345,0.1559367892453935
4.086124,4.858022141894692,0.1558519075611163
4.08846,4.860910082230513,0.1556710929176184
4.0908,4.862774309207938,0.1554645786774195
4.10722,4.84918270457934,0.1554601896824601
4.10956,4.855421324244068,0.1553402039366819
4.111912,4.86487274946871,0.155126737533927
4.114255999999999,4.875534879506852,0.1548705842248428
4.1166,4.888199110291412,0.1545584891600089
4.11894,4.899652636262472,0.1542920737171197
4.121288,4.914039428539729,0.1539589459252609
4.123635999999999,4.931499256750039,0.1535476998931582
4.125976,4.949331172012687,0.1531704158870122
4.128319999999999,4.965393303954396,0.1528797400720492
4.130659999999999,4.9819672925753,0.1526012288697503
4.132999999999999,4.996911267502128,0.1523966036094168
4.135344,5.009294063175097,0.1522861946411085
4.137692,5.0206984714600456,0.1522542532840826
4.140032,5.0386210386634405,0.1520902749443607
4.142379999999999,5.059337102546172,0.1518693873953983
4.14472,5.088852965347488,0.1514542380826158
4.147064,5.119719302589166,0.1509930192258741
4.149412,5.1543575238982,0.1504084916181942
4.151748,5.19127738520737,0.1497590624982212
4.154083999999999,5.225263980210346,0.1491854401584517
4.156428,5.257667783347484,0.1486309237960684
4.158768,5.286207154618651,0.1481624350544787
4.161104,5.3130239643971215,0.1477194768384596
4.163447999999999,5.338537521563473,0.1472668661210659
4.165796,5.364610157237268,0.1467759829588749
4.168132,5.382302302873057,0.1464421450417391
4.17048,5.396269786269732,0.1461812339081493
4.17282,5.406372837800433,0.1460013383409429
4.175167999999999,5.416103802278798,0.145796430996933
4.177512,5.428256176384158,0.145517178844247
4.179855999999999,5.443900895303157,0.1451361612744789
4.182203999999999,5.460104692729597,0.1447115762710728
4.240743999999999,5.094797228132519,0.1446637285203265
4.243079999999999,5.084138889810116,0.1445688831012385
4.245419999999999,5.076134278540184,0.1444320400570435
4.247764,5.07036408544215,0.1442846904555547
4.2501,5.064314353090395,0.1441582216718133
4.252443999999999,5.067436506709562,0.1438686921228704
4.254783999999999,5.066926545888233,0.1436944484616211
4.257123999999999,5.0646940235742095,0.1435446931023372
4.259468,5.064835689058938,0.1433747954538874
4.261811999999999,5.059902217864196,0.1433221752075577
4.264156,5.06241807114768,0.1431332717924206
4.266499999999999,5.070009061110635,0.1428255660319412
4.268844,5.082395648499343,0.1424234915854231
4.271187999999999,5.095573631820969,0.1420171730294325
4.273527999999999,5.108472075888875,0.141632569165481
4.275872,5.1197405062627,0.1413166263042589
4.278219999999999,5.1288670662632505,0.1410560371885311
4.28056,5.142369914808971,0.1407316815571099
4.282916,5.151449252981277,0.1405276237999218
4.285255999999999,5.160388821526723,0.1403325192713571
4.287599999999999,5.171470260445447,0.1400823106587633
4.289947999999999,5.182272160110449,0.1398552898862319
4.292296,5.194796621268148,0.1396070923004443
4.294644,5.206529686492926,0.1393662853156612
4.296992,5.218122982090849,0.1391361742386724
4.299332,5.226922781009433,0.1389604413916901
4.301675999999999,5.238655846234214,0.1387244211128059
4.304015999999999,5.249829832951553,0.1385294513865924
4.30636,5.258350092616418,0.1383722392606105
4.308707999999999,5.269524079333758,0.138175324650194
4.31808,5.286048950268551,0.1381605627463062
4.320435999999999,5.2924726655305125,0.1381600310305411
4.322771999999999,5.302900582285308,0.1380775533904229
4.32512,5.317704787585275,0.1379386332433232
4.32746,5.331298288071744,0.1378361197710959
4.329811999999999,5.346754119677769,0.137700346581142
4.332148,5.364863678336269,0.1375276233286264
4.334488,5.383624863300827,0.1373616824794471
4.336831999999999,5.405039775317857,0.1371637308851541
4.339172,5.426966544014087,0.1369831778625098
4.341512,5.449917026068712,0.1368307911913625
4.343855999999999,5.474310530362314,0.1366779558455894
4.346207999999999,5.496003085775197,0.1366125052796782
4.348547999999999,5.520489137867416,0.1365057217819688
4.350892,5.547908456265829,0.1363468265193081
4.353232,5.579704063209414,0.1361338944611661
4.35558,5.610149195712639,0.1359623150395659
4.472735999999999,5.852342718577284,0.1358950949610608
4.475083999999999,5.856161824472882,0.1357436520909202
4.477423999999999,5.861051865555121,0.1355695464345567
4.479768,5.867012841823996,0.1353744620863745
4.482111999999999,5.877629645891764,0.1351139193419828
4.484451999999999,5.890248550705948,0.1348187316555461
4.486784,5.901656750706632,0.1345541983536968
4.489127999999999,5.916929382573291,0.1342264236626102
4.491467999999999,5.932341784066809,0.1338859837117045
4.493812,5.949616516679886,0.133524390178769
4.496151999999999,5.965960083733185,0.1331733186959113
4.498495999999999,5.97951015410715,0.1328621181182564
4.500836,5.992129058921336,0.1325655520064523
4.503179999999999,6.009171474108936,0.1321684945991044
4.505519999999999,6.020347356684145,0.1318721632411527
4.507864,6.028729742580019,0.1316177021076234
4.510204,6.042327034782224,0.1312656356810488
4.512547999999999,6.059137132544347,0.1308477726136273
4.514892,6.075947230306469,0.1304352725544584
4.517227999999999,6.088892896202616,0.1300827474995564
4.519568,6.107472777285679,0.1296027303412913
4.521915999999999,6.115390528330596,0.1292942579675182
4.524263999999999,6.127312480868348,0.1289226277313636
4.526608,6.136580706353627,0.1285807982080431
4.528952,6.1410533344131535,0.1283095529947255
4.531295999999999,6.144175488032319,0.1280764001061134
4.533636,6.149439512024765,0.1278024034996958
4.535971999999999,6.15405190971115,0.1275245903898793
4.538319999999999,6.1646706096367865,0.1271518674555245
4.540664,6.167280906576755,0.1269068660204913
4.543004,6.173104009076639,0.1266008563419946
4.545347999999999,6.179718507509442,0.1262897344582618
4.547692,6.186612545195965,0.125962392577952
4.550032,6.192807734748188,0.1256776622775071
4.552368,6.199934089860189,0.1253796252161974
4.634383999999999,6.209989919562648,0.125297745967166
4.636728,6.21669317407833,0.1252938801160565
4.639063999999999,6.223024341541676,0.1252684799879078
4.641396,6.231637149005157,0.1251957287029062
4.643739999999999,6.241740200535858,0.1250796202251961
4.646087999999999,6.257058158372892,0.1248769666915056
4.648427999999999,6.2725158858367855,0.1246687251871918
4.650772,6.289835944420235,0.1244366336651223
4.653115999999999,6.307156003003686,0.1242070971527864
4.655455999999999,6.3228932697213,0.1239833933605735
4.657788,6.342215429051168,0.1237269485105468
4.660131999999999,6.364610624314093,0.1234266851445832
4.662471999999999,6.3911497906967085,0.1230641286973058
4.664816,6.4158266259597685,0.122724444223435
4.667159999999999,6.442505561969246,0.1223555267788773
4.669499999999999,6.473747777978997,0.1218996739824964
4.671844,6.511647922534057,0.1213644649307315
4.67418,6.546475031156062,0.1208785739145607
4.676523999999999,6.57822910384501,0.1204373664937495
4.678875999999999,6.611985277280376,0.1199669597162756
4.681215999999999,6.640294226983934,0.119551812595425
4.68356,6.66874294631435,0.1191322279478508
4.685903999999999,6.699845392697243,0.1186941495916426
4.688252,6.726943637587301,0.1183123034937833
4.690595999999999,6.754321421731079,0.11792128932816
4.692943999999999,6.775041277329551,0.1176109331443783
4.695288,6.794178341062183,0.1173075980411149
4.697631999999999,6.817599145541372,0.1169391037168417
4.699971999999999,6.837574827035167,0.1165946496370759
4.702316,6.861554710021795,0.1161999725086293
4.704668,6.880227138903473,0.1158493544652354
4.707004,6.894243739986262,0.1155484119317656
4.709351999999999,6.9037442828970175,0.1152886407113047
4.711703999999999,6.913384595434636,0.1150217011776479
4.714048,6.921581885733276,0.1147514500376476
4.716391999999999,6.924983578606164,0.1145346211976112
4.718736,6.923869213307021,0.1143561905401716
4.721083999999999,6.927038588754432,0.11411434232809
4.723428,6.93370030901548,0.1138097265713644
4.725771999999999,6.943714604463302,0.1134535405163736
4.728119999999999,6.957593331777097,0.1130548459028722
4.730459999999999,6.968678562411559,0.1126822743046552
4.732804,6.975387504500847,0.1123396589886407
4.735151999999999,6.984657625843994,0.1119434448818017
4.737487999999999,6.989644006440587,0.1116106338346007
4.739832,6.999845293343513,0.1112083476962779
4.742172,7.011908911365995,0.1107917881095105
4.744515999999999,7.018385536029806,0.1104272021447907
4.746855999999999,7.027655657372954,0.1100379973272381
4.7492,7.030128080543934,0.1097201611842626
4.751548,7.034602604461329,0.1093784996228662
4.753895999999999,7.036283631699389,0.1090594321649073
4.75624,7.0368937237508105,0.1087547691928056
4.758583999999999,7.037923124682812,0.108429173625051
4.760931999999999,7.038952525614815,0.1081031381194001
4.763268,7.04491729359943,0.107723515403744
4.765611999999999,7.049019730464489,0.1073583595545823
4.767947999999999,7.046184699530518,0.107071056943196
4.770292,7.038554071170797,0.1068303453446254
4.772636,7.023194579079126,0.1066677294986611
4.774979999999999,7.005972755867901,0.106520548695985
4.777332,6.993826069336147,0.1063118459227165
4.779663999999999,6.984752418737449,0.1060648677925513
4.782003999999999,6.973397128138614,0.1058539466638638
4.784348,6.962321376793499,0.1056280733886369
4.786691999999999,6.946170488768912,0.105461831477421
4.789035999999999,6.926155168878351,0.1053327669292123
4.79138,6.908002180107347,0.1051873906924265
4.793723999999999,6.887986860216786,0.1050566484581295
4.796063999999999,6.872906907378837,0.1048729845282538
4.798411999999999,6.859689285660445,0.1046737171220715
4.800751999999999,6.8531295924873605,0.1044143321341335
4.803096,6.847361295247195,0.1041535827654145
4.805439999999999,6.840382293193531,0.1039140662160397
4.807784,6.83591724856548,0.1036664714392318
4.810124,6.826097528004238,0.1034909943656638
4.812467999999999,6.820002469682109,0.1032855401943091
4.814815999999999,6.8177718432259535,0.1030424832178802
4.817155999999999,6.822338914941967,0.1027336076795544
4.8195,6.831841353710591,0.1023730109092943
4.821843999999999,6.843345893225633,0.1019915745288535
4.824188,6.850566691994122,0.1016694488549334
4.826535999999999,6.858299347441807,0.1013635642316258
4.828883999999999,6.872038305128744,0.1009966292086693
4.831232,6.887499824308375,0.1006219776033903
4.833575999999999,6.902542034607427,0.1002658212662328
4.83592,6.919446576026035,0.0998951506733288
4.838263999999999,6.934209247071367,0.0995522299263829
4.840612,6.950042853303336,0.0991957755322866
4.842943999999999,6.965876459535306,0.098841987944749
4.845279999999999,6.977845633901303,0.0985237600951184
4.847624,6.986881541961105,0.0982352213117219
4.849971999999999,6.99992165151374,0.0979077947760773
4.852312,7.015895027372571,0.0975552163427653
4.854656,7.030565150619285,0.0971910767061644
4.857011999999999,7.047796453119856,0.0967792453092609
4.859347999999999,7.066238460433928,0.0963510586486353
4.861696,7.085611633307778,0.0959182823166616
4.864035999999999,7.103122475062071,0.0955030309794821
4.866375999999999,7.1194226120028645,0.0951093891050865
4.868711999999999,7.134791583383881,0.0947238270856999
4.871055999999999,7.1472272884587,0.0943603459578793
4.873412,7.152865295361352,0.0940518797440291
4.875755999999999,7.149703503345417,0.0938184850296033
4.8781,7.150034056143118,0.0935348965381627
4.880443999999999,7.152925788194677,0.0932054991547118
4.882788,7.153955189126681,0.0928875069130768
4.885119999999999,7.1591285611783775,0.0925262140609088
4.887464,7.163370767670297,0.0921710080003263
4.889811999999999,7.167752743789076,0.0918109569278086
4.892156,7.175067986214049,0.0914270865614181
4.894496,7.182662767892745,0.0910308943339014
4.896839999999999,7.185601721772548,0.0906642774739157
4.899179999999999,7.186818114159653,0.0903038634263043
4.90152,7.188686132852819,0.0899521337841548
4.903867999999999,7.193487417852178,0.0895801976354912
4.906215999999999,7.193353335798927,0.0892476333069327
4.90856,7.193498792999394,0.0889034851681287
4.910903999999999,7.193224941319281,0.0885796803330484
4.913247999999999,7.193882255198946,0.0882514677904008
4.915595999999999,7.192397698705334,0.0879455032597207
4.917935999999999,7.197338753331555,0.0875707213673003
4.920283999999999,7.209217275756803,0.0871402780979018
4.92262,7.229895597100638,0.086645735486587
4.924963999999999,7.2465697169516385,0.0861878542971602
4.927308,7.262964297548918,0.085744039598203
4.929651999999999,7.284294245198811,0.0852656681885641
4.931996,7.301619991355869,0.0848205053657344
4.934332,7.320016672699565,0.0843653263012565
4.936679999999999,7.337202649229764,0.0839294598994469
4.939024,7.354528395386822,0.083490275934821
4.941367999999999,7.370503667103521,0.0830747661807006
4.943712,7.388341269939778,0.0826503534641865
4.946055999999999,7.404828398335674,0.0822495795498952
4.948395999999999,7.41530922449232,0.0818924789531129
4.95074,7.419783748409716,0.0815814536724525
4.953087999999999,7.429333409006585,0.0812303710644339
4.955435999999999,7.437951904043675,0.0808852187515654
4.957772,7.446198312028428,0.0805208570548956
4.960115999999999,7.453001697774204,0.0801472311138155
4.962463999999999,7.460084622773701,0.0797597000937744
4.9648,7.4628838070266434,0.0794141408625112
4.967143999999999,7.46396042978689,0.0790719260964463
4.969488,7.459310289561606,0.0787605562199735
4.971836,7.452238739709325,0.0784800751505148
4.974176,7.446657433924263,0.0781716676276288
4.976516,7.43520959552681,0.0778980927201608
4.978868,7.423901526756217,0.0776170533123277
4.981204,7.413384853918544,0.0773384177477165
4.983547999999999,7.403007950707729,0.0770535461187871
4.985896,7.390628946750497,0.076781692902432
4.988239999999999,7.3778778557409295,0.0764880082845315
4.990584,7.364335368798443,0.0761911350031011
4.992923999999999,7.351351960363397,0.0758690796884364
4.995272,7.344374854167602,0.0755062646795656
4.997612,7.339399848718224,0.0751286984647327
