Time,Force,Position
7.254472,3.571239955503529,0.1763091262747165
7.25686,3.868863248637709,0.1732219257379455
7.25924,4.168581190316923,0.1708141098419301
7.261643999999999,4.469789376063356,0.1686692550766721
7.264028,4.775048985130868,0.1664674075720865
7.266408,5.071835556361758,0.1650616909168294
7.268803999999999,5.36429306087572,0.1640019946617458
7.271191999999999,5.653260116433915,0.1631034295755646
7.273572,5.940226967103564,0.1621164259689406
7.275976,6.218675453966215,0.1613002581790056
7.278364,6.495590266649144,0.1603623667341702
7.280744,6.761659749554566,0.1595179182022685
7.283139999999999,7.014649484510586,0.1587660465613712
7.285527999999999,7.258890434092002,0.1579466224590623
7.287908,7.485070942701032,0.1572185115473439
7.290312,7.692679153658478,0.1565697015505962
7.2927,7.885067642151113,0.1558969151172086
7.295079999999999,8.06740409265703,0.1551365341455601
7.297483999999999,8.234333829243035,0.1543972639659218
7.299868,8.385437543028544,0.1536879025738181
7.302247999999999,8.52122709069276,0.1530181004824036
7.304644,8.644728286340493,0.1523720439145236
7.307031999999999,8.755382051464302,0.1517621092551483
7.309412,8.856865826475056,0.15117916145781
7.311807999999999,8.947829136932397,0.1506552925758262
7.314195999999999,9.0309257098888,0.1501505055067443
7.31658,9.101499717545376,0.1497205936736735
7.318971999999999,9.157921146208036,0.1494060735636887
7.32136,9.209828412556538,0.1490574458913257
7.323739999999999,9.257733373270074,0.1486801839576217
7.326136,9.293348086109258,0.1483939536286919
7.328524,9.32118860924612,0.1481460667168429
7.330919999999999,9.347912871225974,0.1478611579699675
7.333316,9.364394312048264,0.1476901677984797
7.335704,9.380875752870551,0.1475198784090943
7.338084,9.39866044630496,0.1473546839275968
7.340479999999999,9.417189313844036,0.1472183226032727
7.342863999999999,9.435251650674292,0.1471328561826533
7.345243999999999,9.455129096795863,0.1470598330493686
7.347647999999999,9.476170025902688,0.1469963805204782
7.350035999999999,9.499724912435129,0.1469166911581112
7.352416,9.523140029340707,0.1468441069323019
7.354811999999999,9.5509786566197,0.1467067492591308
7.357196,9.578724736100082,0.1465465485655436
7.359591999999999,9.605866411102642,0.1463558894744656
7.361988,9.634545552000668,0.1461052824805378
7.364376,9.669417986593048,0.1457491340147085
7.366755999999999,9.710623484506636,0.1452802373778872
7.369152,9.749594564248335,0.144823980323109
7.371539999999999,9.786470995445002,0.144372430319212
7.37392,9.82791070664194,0.1438552002505679
7.376315999999999,9.87577602895871,0.1432552229857046
7.378703999999999,9.918705984222868,0.1427124326354157
7.381088,9.96754969392766,0.142077514407361
7.383483999999999,10.018163186953393,0.1414066171884163
7.385868,10.063748765127892,0.1407669579623113
7.388252,10.10859016919772,0.1401067808848029
7.390647999999999,10.147100405804204,0.1394729077431194
7.393032,10.183935302746232,0.1388256958733316
7.395432,10.222028126330004,0.1381338267042535
7.397827999999999,10.25909723655538,0.1374324691264729
7.400216,10.2950028637955,0.136724652323213
7.402595999999999,10.327183828796509,0.1360549555021747
7.404992,10.35591967081212,0.1354088674737381
7.407375999999999,10.384655512827733,0.1347662808899432
7.40976,10.408316218163874,0.1341801954910421
7.412155999999999,10.427832952380324,0.1336458171445957
7.414548,10.44241431954416,0.1331628681103679
7.416927999999999,10.44777657890883,0.1327795327098976
7.419324,10.446713227153666,0.1324734012378774
7.421711999999999,10.440574738719034,0.132222477851303
7.424092,10.430571818418429,0.1320083595913866
7.426496,10.423921473304596,0.1317503784766804
7.464724,10.01852666780882,0.1316524453552667
7.467108,9.993949963775856,0.1315954398266084
7.481448,9.789088027669507,0.1315256841162979
7.483843999999999,9.755900412030927,0.131434192152762
7.486231999999999,9.71754511191426,0.1313730456221816
7.488612,9.677746789558611,0.1313112066835814
7.491007999999999,9.634643113844437,0.1312650443693866
7.493395999999999,9.59810481887695,0.1311324519528638
7.495775999999999,9.56426747279018,0.1309501367148336
7.49818,9.531920370770631,0.130736814703933
7.500563999999999,9.500132347258528,0.1304998403717474
7.502943999999999,9.470114107067362,0.1302203387892021
7.50534,9.439584010196995,0.1299305297780244
7.507728,9.412266718886546,0.1295985573891919
7.510107999999999,9.389372937949508,0.129205653735338
7.512504,9.360612624400082,0.1288697107216428
7.514887999999999,9.33450603790313,0.1285143305282472
7.517284,9.309051077712237,0.1281604959577655
7.519679999999999,9.289322880506871,0.127752565595394
7.522067999999999,9.269315144047788,0.1273537206091788
7.524448,9.248096702775204,0.1269714352554403
7.526843999999999,9.22874059262218,0.126570844960225
7.529231999999999,9.210455417655792,0.1261557487366776
7.531611999999999,9.188538128248911,0.1257966024608253
7.534015999999999,9.16992619220056,0.1254209496179195
7.536403999999999,9.150755177644768,0.1250657887363432
7.538784,9.135169055701228,0.1246824806397982
7.541179999999999,9.113948718570777,0.1243778448039115
7.543567999999999,9.09282092923894,0.1240983288754019
7.545947999999999,9.07578988919856,0.1238008502893718
7.548344,9.05950302326285,0.1235324417883434
7.550727999999999,9.046241971431952,0.1232603947509687
7.553123999999999,9.032142301839894,0.1230217893146012
7.55552,9.01934588485995,0.122789867626571
7.557907999999999,9.002498044558932,0.1226316062894043
7.560288,8.989746953549362,0.122456966179179
7.562692,8.974294913659076,0.1223312039004153
7.56508,8.963358931940821,0.1221726951951904
7.567459999999999,8.952934806901764,0.1220232985740303
7.569863999999999,8.9476783663408,0.1218456911246367
7.572248,8.955598013243588,0.1215599072605251
7.574627999999999,8.971478841303801,0.1212268895036203
7.577031999999999,8.987964073841828,0.1209307318925548
7.579419999999999,9.01282979641786,0.1205723950715445
7.581799999999999,9.042071807539063,0.1201920102306224
7.584204,9.080345935004331,0.1197536302378631
7.586592,9.121785646201271,0.1193115530960932
7.588972,9.176261675235107,0.1187755873427853
7.591367999999999,9.23790748949345,0.1182015853409707
7.593755999999999,9.298994225244352,0.1176539231404665
7.596135999999999,9.363805623234365,0.1170830128453525
7.598531999999999,9.427918173090076,0.1165431482645585
7.600916,9.49719840742388,0.1159834118952621
7.603299999999999,9.56550025436966,0.115462184637089
7.605703999999999,9.641111656166808,0.1148967067269558
7.608087999999999,9.71816608020293,0.1143406257336473
7.610467999999999,9.8017386631575,0.1137443020458038
7.612864,9.88461239797777,0.1131810222439445
7.615252,9.967858219850378,0.1126351560607144
7.617631999999999,10.05375776877546,0.1120854662867019
7.620035999999999,10.13309193695385,0.1116206017653252
7.622423999999999,10.21214656587852,0.1111773125752445
7.624803999999999,10.294274230736248,0.1107116758240139
7.6272,10.37090745003392,0.1103105771010613
7.629588,10.44968253970487,0.109897974877448
7.631967999999999,10.527806003069765,0.1094909297878823
7.634364,10.610725063860407,0.109060730817605
7.636751999999999,10.688988296852164,0.1086682517426025
7.639132,10.76459780279144,0.1082950970439757
7.641527999999999,10.841418013544216,0.1079110711816035
7.643915999999999,10.917446828364076,0.107532797250843
7.646312,10.996176592064652,0.1071222220082078
7.648703999999999,11.072532167966475,0.1067184622386505
7.651092,11.153451023868572,0.1062716752238169
7.653471999999999,11.232135461598777,0.1058291379124595
7.655868,11.30830594190336,0.1053958070606232
7.658256,11.381310838476278,0.1049708423027809
7.660636,11.455154352810355,0.1045245716893323
7.663031999999999,11.537705118264403,0.1040129425782535
7.665419999999999,11.617090299986778,0.1035097671353031
7.667816,11.69386897648492,0.1029929129033613
7.670211999999999,11.764409033318334,0.1025028881134571
7.672599999999999,11.830200714554238,0.1020185729423808
7.67498,11.898181487991662,0.1014953328481897
7.677375999999999,11.961646203257054,0.1009960119781198
7.67976,12.020874399604136,0.1005104487126551
7.682139999999999,12.07148978848774,0.1000511663603548
7.684536,12.120150298453163,0.0995843294189709
7.686923999999999,12.159918461701391,0.0991459015965607
7.689319999999999,12.194658710098384,0.0987166062530234
7.691715999999999,12.228515014763843,0.098270530976859
7.694103999999999,12.255853160510856,0.0978536713336418
7.696484,12.280956888085974,0.0974340873700053
7.698884,12.301172470436722,0.0970204916499494
7.701267999999999,12.318222469055796,0.0966081625521514
7.703647999999999,12.334388523943336,0.0961767717326595
7.706044,12.34417618953929,0.0957673313953155
7.708432,12.35079827140357,0.0953585795393295
7.710811999999999,12.341310999497898,0.0950207979183622
7.713215999999999,12.325445338300636,0.0947036661973594
7.715603999999999,12.307996885237538,0.0943849447554514
7.717988,12.28845378362941,0.0940562928239768
7.720383999999999,12.26811928608836,0.0937263746849752
7.722771999999999,12.243408500002142,0.0934055928666213
7.725152,12.212459094251193,0.0931001441028594
7.727547999999999,12.180858062194192,0.0927894510663976
7.729935999999999,12.148465634204268,0.0924766965786387
7.732315999999999,12.110625982482537,0.092178857325448
7.734715999999999,12.082005438559966,0.091825696790146
7.737103999999999,12.055666534637536,0.0914527092108453
7.739483999999999,12.024532033289356,0.0910989112098183
7.74188,11.993956610448617,0.0907276575516549
7.744268,11.959516755741902,0.0903716527161306
7.746651999999999,11.92549620991577,0.0900023666672477
7.749048,11.886680066663883,0.0896509286719463
7.751431999999999,11.843999491546024,0.0893139603762205
7.753827999999999,11.804531721988084,0.088953197409383
7.756224,11.75998881575067,0.0886178576329888
7.758611999999999,11.71958988063295,0.0882549157213285
7.760992,11.682543520702003,0.087863915506832
7.763387999999999,11.64749926151748,0.0874605869468167
7.765772,11.614317333452506,0.0870486183695667
7.768167999999999,11.582857966880232,0.086633120804103
7.770564,11.552050226614012,0.0862204645202806
7.772952,11.526038083773548,0.0857860072025881
7.775331999999999,11.49495080425361,0.0853764846951113
7.777735999999999,11.463444215853093,0.0849768914197666
7.780123999999999,11.43338064969155,0.0845805996221133
7.782503999999999,11.391956105357568,0.0842479984282883
7.784908,11.348110151396584,0.0839356694416475
7.787291999999999,11.304776054114798,0.0836302644122835
7.789671999999999,11.262884979071991,0.0833290615917082
7.792071999999999,11.225789501454932,0.0830071052411363
7.794459999999999,11.184782370143658,0.0827246143207221
7.796839999999999,11.148151527377555,0.0824336718954684
7.799235999999999,11.117619534649322,0.0821332405577327
7.80162,11.086248924159923,0.0818560034033656
7.804,11.062327638148757,0.0815544682851122
7.806395999999999,11.040361231055758,0.0812679989977518
7.808779999999999,11.01820783250766,0.0810105963675334
7.811164,10.995215816198398,0.080777027449593
7.813559999999999,10.970454016568198,0.0805698133357093
7.815944,10.942339641751223,0.0803865174163447
7.818335999999999,10.912455483613307,0.0802298902174583
7.820743999999999,10.882663873274009,0.0800945192953285
7.823127999999999,10.861392522599576,0.0799295583956921
7.825507999999999,10.841703963790977,0.0797667451452098
7.827904,10.825041219087195,0.079613382365469
7.830292,10.818761065167832,0.0794253779564296
7.832671999999999,10.818999070166916,0.0792187831504465
7.835072,10.81946939259148,0.0790295045950925
7.83746,10.81910109725488,0.078864997135831
7.839839999999999,10.818033953783978,0.0787214179761298
7.842243999999999,10.820411933298468,0.07857506558709
7.844631999999999,10.825024330984856,0.0784376725572714
7.847011999999999,10.825213218297826,0.0783317225980937
7.849407999999999,10.829918163782828,0.0782169714856421
7.851792,10.832853325946887,0.078130091081895
7.854172,10.838581984790286,0.0780358606099091
7.856575999999999,10.84603320512638,0.0779406702668215
7.858964,10.856789778821009,0.0778478728138033
7.861343999999999,10.874204281060942,0.0777335165300058
7.863747999999999,10.895995071846048,0.0776147551446902
7.866135999999999,10.924443791176463,0.0774744779012286
7.868516,10.95275274088002,0.0773384289966302
7.870911999999999,10.97728980651622,0.0772393940103216
7.873296,11.004480599204893,0.0771374554176603
7.875676,11.02952952152029,0.0770484290885281
7.878071999999999,11.055230070141745,0.0769663936025046
7.880459999999999,11.075296403576289,0.0769252419513515
7.882856,11.101369039250082,0.0768577554787645
7.885256,11.130374941230071,0.0767790091906488
7.887644,11.16110340470276,0.0766998523352636
7.890023999999999,11.194765134481642,0.0766100367419568
7.892419999999999,11.230428965006936,0.076512512107328
7.894803999999999,11.269537918517628,0.0764129148113639
7.897188,11.306784540908764,0.0763189822979914
7.899583999999999,11.343379536993838,0.0762196062553534
7.901971999999999,11.37461985714572,0.0761518396424225
7.904351999999999,11.408002047670884,0.0760722303778294
7.906748,11.43765957595693,0.0760019317092033
7.909136,11.464244068309924,0.0759471889457838
7.911515999999999,11.489757625476276,0.0758988485670015
7.913912,11.51340885152307,0.0758557481623039
7.9163,11.539853574249204,0.0758061474872421
7.918695999999999,11.567509001788835,0.0757464278807598
7.921099999999999,11.5979579260078,0.0756809551043882
7.923487999999999,11.63082825985376,0.0755956006766184
7.925867999999999,11.657552521833614,0.0755390102734636
7.928263999999999,11.689631459746655,0.0754523214895511
7.930648,11.718357822472925,0.0753881831642111
7.933028,11.744290688519856,0.0753307230788476
7.935423999999999,11.768221453820374,0.0752815521534154
7.937811999999999,11.789218952814696,0.0752430399659048
7.940192,11.80849389031632,0.0752056549438528
7.942596,11.827676280019324,0.0751479427688755
7.944984,11.848721000841888,0.0750864591535182
7.947364,11.87055711759737,0.0750267855489971
7.949759999999999,11.894674874352988,0.0749511672960093
7.952147999999999,11.915719595175554,0.0748898546189923
7.954531999999999,11.939185725625114,0.0748094770716894
7.956928,11.96064975532826,0.0747369769449195
7.959311999999999,11.984814733912122,0.0746385740333175
7.961691999999999,12.00497551100315,0.0745559589779911
7.964096,12.01926975548179,0.0744931749060624
7.966483999999999,12.03291237365437,0.0744251746421106
7.968864,12.04068845921456,0.0743772792468156
7.971259999999999,12.047253839961252,0.0743389746785593
7.973647999999999,12.057311565521578,0.0742758372043203
7.976027999999999,12.061642528096376,0.0742289006919822
7.978432,12.067743273992113,0.0741579099383966
7.98082,12.078919156567322,0.0740660976827374
7.9832,12.09051434802311,0.0739632679944644
7.985595999999999,12.1021095394789,0.0738604383061913
7.987983999999999,12.105696327949024,0.0737881378620889
7.990364,12.107141246045868,0.0737273122055141
7.992759999999999,12.102719631530324,0.0736858927941033
7.995147999999999,12.09643568589522,0.0736484779805149
7.997527999999999,12.091502214700478,0.0735979765673663
7.999924,12.085497808319095,0.0735531436726251
8.002315999999999,12.08079665454983,0.0735191481152281
8.004712,12.0813104070869,0.0734606975678969
8.007107999999999,12.07791250592975,0.073437510206954
8.009492,12.079449971825207,0.0733973013514367
8.011875999999999,12.085271178467227,0.0733345763694028
8.014272,12.09253540734822,0.0732790705838895
8.016656,12.10007917548293,0.0732161347787195
8.019036,12.10976481399092,0.0731422002466513
8.021436,12.121452553245328,0.0730612824883726
8.023819999999999,12.13700472436571,0.0729692560615088
8.026204,12.150135485859092,0.0728959145481995
8.028599999999999,12.158051341046145,0.0728466962801462
8.030987999999999,12.169691858472309,0.0727904085793103
8.033384,12.184405411831529,0.0727217073753242
8.035779999999999,12.210200404109468,0.0726113538826303
8.038167999999999,12.24079099381316,0.072488967936028
8.040548,12.279529756129383,0.0723348618199566
8.042944,12.320410388818882,0.0721702660733469
8.045328,12.35994054706802,0.0720187569262973
8.047711999999999,12.406036086063851,0.0718331104408781
8.050108,12.451107911701287,0.0716311339440732
8.052496,12.490452974353191,0.0714442119974738
8.054876,12.52970548920648,0.0712376317739013
8.057279999999999,12.564581715514594,0.07103330559417
8.059668,12.598666545889795,0.0708279593162064
8.062047999999999,12.627583691786905,0.0706219448608945
8.064444,12.658642708057291,0.0704059394100301
8.066832,12.685837292461706,0.0702004895349473
8.069212,12.706234178693949,0.0700139369424223
8.071608,12.721695697873583,0.0698427081837107
8.073996,12.73571419481424,0.0696641270063021
8.076392,12.752433640635616,0.0694613985273285
8.078788,12.761703761978762,0.0692720166457317
8.081171999999999,12.76459549403032,0.0690905479200733
8.083556,12.758407887909572,0.0689412983469938
8.085951999999999,12.7447709573106,0.0688048084238717
8.088336,12.718330026300208,0.0687062527927777
8.090715999999999,12.689886994543398,0.0686141845690803
8.093112,12.66186327166717,0.0685113939450886
8.0955,12.620616239498943,0.0684567446618888
8.09788,12.57522523621102,0.0684181232285832
8.100284,12.527832132176677,0.0683859572684667
8.102672,12.477505761836142,0.0683615424799366
8.105051999999999,12.425037521122327,0.0683470740856762
8.107455999999999,12.371498345221877,0.0683370225473727
8.109843999999999,12.32275476674718,0.0683150852189024
8.112224,12.270006986779649,0.0683059678602892
8.114624,12.220332242745169,0.0682845881271676
8.117008,12.172380060203384,0.0682638312068932
8.119387999999999,12.129642783967936,0.0682206093649211
8.121792,12.087417364411683,0.0681862953205764
8.124179999999999,12.03955772966852,0.0681844556714983
8.12656,11.994491591604694,0.0681777515085195
8.128955999999999,11.95114801503356,0.0681712413291265
8.131343999999999,11.911157013649202,0.068145622600056
8.133723999999999,11.872748804130682,0.0681241477894972
8.13612,11.844211328717384,0.0680725136642923
8.138508,11.814882457371173,0.0680185138444406
8.140903999999999,11.78327194602482,0.0679783349342151
8.1433,11.760461233597052,0.0679131824314527
8.145688,11.737231212288709,0.0678589486111809
8.148068,11.716654918032836,0.0678035505782382
8.150464,11.700454912322142,0.0677475026248462
8.152852,11.68970213034325,0.0676855617109561
8.155232,11.681742845043692,0.0676188268103328
8.157636,11.672433085303778,0.0675647959616702
8.160024,11.666056591870058,0.0675021998540484
8.162403999999999,11.656327523249566,0.0674591071155553
8.1648,11.6535359224281,0.0673940841729096
8.167183999999999,11.647251976793,0.0673522266231324
8.169568,11.64604316783737,0.0672917560546902
8.171964,11.648978330001432,0.0672138723089925
8.174348,11.653216744777612,0.0671477742467123
8.176732,11.662762613658742,0.0670801516936535
8.179127999999999,11.676684771085045,0.0670127788625548
8.181512,11.694331590750457,0.0669394235431197
8.183907999999999,11.713561202281706,0.066871194480711
8.186307999999999,11.738238037544766,0.0667982418273777
8.188692,11.768641635793356,0.0667131952130295
8.191072,11.80183873072128,0.0666245673835839
8.193468,11.843835624567795,0.066512659430681
8.195856,11.892490446959613,0.0663880564521156
8.198236,11.945801097150325,0.0662575154215405
8.200631999999999,12.000042912900811,0.0661263900181483
8.203019999999999,12.055727750890275,0.0660043468689042
8.205416,12.116208186305496,0.0658728887119214
8.207811999999999,12.1830670110123,0.0657372890863184
8.210199999999999,12.256583764264413,0.0655890928178515
8.212579999999999,12.325816776769972,0.0654618051041532
8.214984,12.397843285954869,0.0653302871750325
8.217367999999999,12.46931071663232,0.0652145138420773
8.219752,12.54729630622822,0.065091272409434
8.222147999999999,12.629425866943814,0.0649533641783959
8.224532,12.709413557286137,0.0648255000764767
8.226916,12.788190542814954,0.0647069349864305
8.229312,12.86976102502311,0.0645857719693851
8.2317,12.950120802417766,0.0644737627877613
8.234079999999999,13.030340810185564,0.0643665841909328
8.236476,13.11070058758022,0.0642579341760987
