Time,Force,Position
8.954516,2.84350456437435,0.1702176651508926
8.956864,3.0047943981998304,0.1680913882026408
8.959211999999999,3.158172168553999,0.1661448281705031
8.961556,3.30205508357102,0.1642981402961473
8.963904,3.4331377898923594,0.1626630044345505
8.966244,3.5568675112498283,0.1609410258455126
8.968587999999999,3.669100276523732,0.1594192472916044
8.970927999999999,3.766902819407876,0.1581696803627548
8.973272,3.856094450686407,0.156947170668958
8.975615999999999,3.937606335919103,0.155716581116264
8.97796,4.009436374359548,0.1545813937799973
8.9803,4.074238293060216,0.1534258237893624
8.982643999999999,4.127401590192589,0.1526159153457917
8.984995999999999,4.171719762436003,0.1519949068398353
8.987332,4.21226794646993,0.1513507355680309
8.98968,4.2462526456150345,0.1507743725005023
8.992023999999999,4.270181515057681,0.1503989700607989
8.994368,4.290852252970039,0.1500206272703794
8.996708,4.308217637523863,0.1496991240476615
8.999051999999999,4.3272130357717655,0.1493006478949253
9.001387999999999,4.346907282153971,0.1488440679210438
9.003739999999999,4.369954103722953,0.1482794453380619
9.006084,4.393280464545653,0.1477025587904352
9.008432,4.41954009167455,0.1470637175852129
9.010768,4.448965302535118,0.146396413376361
9.013112,4.475829334141829,0.1458325566634896
9.015464,4.5010633520544605,0.1453477473486279
9.0178,4.52638991776571,0.1449093677483276
9.02014,4.555441145716072,0.1443993112258623
9.022484,4.587565409599489,0.1438181021966941
9.024832,4.619410134229186,0.1432617602339815
9.027172,4.652325794045521,0.1426785991417316
9.029516,4.682075870130185,0.1421296602137674
9.031872,4.7108022328564525,0.1415545419695097
9.034216,4.742881170769497,0.1408918231569363
9.036556,4.776170813496039,0.140200771251713
9.0389,4.8068067291701055,0.1395480486917781
9.041244,4.834928687418559,0.1389363294575664
9.04358,4.862678558614675,0.138301570886752
9.045924,4.889497264251011,0.1376988029636815
9.048268,4.916036430633628,0.1371253595245724
9.050608,4.944949784814999,0.1365517732132674
9.053012,4.97251266455601,0.1360351913991943
9.055416,4.9965831994833865,0.1356266024852202
9.0578,5.021584899970542,0.1352096875303166
9.060204,5.052173593816366,0.1347031943767017
9.062592,5.084904158035467,0.1341426270951222
9.064992,5.12364102449382,0.1334622077435335
9.067388,5.1593048550191165,0.1328589440530243
9.069772,5.187611908864803,0.1324241996983924
9.072168,5.216478041217932,0.1319505093410577
9.074568,5.244692547265003,0.1314768175372321
9.076952,5.273977988498711,0.1309788101169129
9.079348,5.301401098612862,0.1305124678929093
9.081744,5.323237215368344,0.1301428898013345
9.084132,5.342419605071353,0.1298124578084552
9.086528,5.366816901080692,0.1293719303507211
9.088932,5.393728154515644,0.1289134270982237
9.09132,5.419940559816299,0.1285046326787472
9.0937,5.443871325116815,0.1281569152973961
9.096096,5.467662320790471,0.1278218968667762
9.098484,5.484655618291958,0.127606981637344
9.100864,5.502580081353224,0.1273807324506819
9.103268,5.519852918108431,0.1271474818832855
9.105652,5.534611797438023,0.1269392696397515
9.108032,5.546065323409084,0.1267607041409545
9.110432,5.558450014939921,0.1265706686439252
9.11282,5.568600288298866,0.1263874616195409
9.1152,5.579309640165251,0.1261686419089751
9.117596,5.59593274647227,0.1258022092959406
9.119984,5.610553752032873,0.1254709216590863
9.122364,5.626105923153252,0.1251302661631252
9.12476,5.642868799087132,0.1247623698503424
9.127148,5.664427272446763,0.1243278510479076
9.129544,5.68784807692595,0.1238696297624496
9.13194,5.710989342151418,0.123430360694902
9.134324,5.730917801816969,0.1230591171562062
9.136708,5.743396937004294,0.1227828949365394
9.139112,5.755364215512421,0.1224909607475174
9.141496,5.767611033274268,0.1221810857562267
9.14388,5.780928786222755,0.1218527949487504
9.146276,5.79545724398474,0.1214919542193433
9.148664,5.80733197469425,0.1211597007272117
9.151044,5.821488345403897,0.1207773340745379
9.15344,5.835504946486684,0.1204048271264713
9.155828,5.8456571157034976,0.1200884955722879
9.158208,5.852503931561778,0.1197939475315853
9.160604,5.85227350999417,0.1196180503054992
9.162992,5.849109822120367,0.1194868797851659
9.165372,5.844875199059924,0.1193766461301421
9.167768,5.839988949693425,0.1192600373795912
9.170156,5.834451074020867,0.1191374414195672
9.172552,5.825328305736057,0.1190519394879084
9.174948,5.811689479279216,0.1190137475940975
9.177336,5.79567646502362,0.1189824439993161
9.179716,5.780082759648605,0.1189242002145553
9.182112,5.763977197594391,0.1188504996874255
9.1845,5.754948872966066,0.1186623747616743
9.186884,5.746339857218323,0.118447162407464
9.18928,5.739081315910939,0.1181943343434149
9.191668,5.727586255685243,0.1179702321228192
9.194048,5.716510504340128,0.11771896280414
9.196452,5.704783126688956,0.1174602125345914
9.19884,5.692264353104864,0.1172030636499919
9.20122,5.6770918524682985,0.1169692788044948
9.203616,5.663130056645231,0.116705501220585
9.206004,5.653963858247916,0.1163771297180183
9.208388,5.65066419246299,0.115962917804947
9.210784,5.645781734812228,0.1155497751869394
9.213172,5.635824140481994,0.115218411437547
9.215552,5.626937481338399,0.1148652624485643
9.217948,5.616328260702108,0.1145251291344478
9.220332,5.604648104879179,0.114203136172903
9.222728,5.592036783496472,0.1138908703875684
9.225124,5.58114802360646,0.1135637627530486
9.227512,5.569467867783531,0.1132377332567083
9.229896,5.557787711960601,0.1129104166644897
9.232292,5.542103354644837,0.112644627467901
9.234676,5.52707062363513,0.1123847171223772
9.23706,5.505100424826396,0.1122278902641562
9.239456,5.487506514562833,0.112032619702637
9.241844,5.469772834672409,0.1118448027668587
9.244224,5.454972421088181,0.1116136983955594
9.246624,5.438821533063595,0.1114196163789317
9.249012,5.426814616158701,0.1111538015235368
9.251392,5.418672131119781,0.1108356410220719
9.253788,5.402800782348916,0.1106189684505291
9.256176,5.385206872085351,0.1104131378589461
9.25856,5.375062286300015,0.1101230334326671
9.260956,5.371203542007649,0.1097246735264559
9.263344,5.369207128834839,0.1093060711899432
9.265728,5.363718370848393,0.1089607626170193
9.268124,5.359160778421727,0.1086025287074606
9.270512,5.35418387711448,0.1082698483412988
9.272892,5.347856501366873,0.1079748748055458
9.275292,5.341109816738686,0.1077066569220701
9.27768,5.335154528043417,0.1074366458569788
9.28006,5.333063671214122,0.1071158281163989
9.28246,5.3308330447579655,0.1068043418586194
9.284848,5.338053843526454,0.1063794236714059
9.287232,5.341549980055829,0.1059965199236141
9.289628,5.34527843401068,0.1056488009089352
9.29202,5.347516643898312,0.1053492217033915
9.294396,5.349754853785946,0.105048744896717
9.296792,5.350223280352638,0.1048143375369238
9.299176,5.342263995053083,0.1047245454815235
9.301572,5.3386809982987,0.1046014004939406
9.311136,5.310005649116414,0.1045391205998044
9.313524,5.310052870944658,0.1044854148277601
9.315904,5.31619894281077,0.1043914441189071
9.318296,5.325929907289132,0.1042676460960217
9.320684,5.340316699566388,0.1040970596977357
9.323076,5.359731406694872,0.1039066876473815
9.325472,5.3831030934879465,0.1037165176512493
9.32786,5.40521685363928,0.1036069488843728
9.33024,5.4303564278954255,0.1035051944374659
9.332644,5.452655283643993,0.1034842768086407
9.335028,5.480354141296126,0.1034686110767969
9.337408,5.514710927493569,0.1033840196646616
9.339812,5.550231196676267,0.1033227690805374
9.3422,5.590639611083334,0.1032515095182853
9.344576,5.634213609222073,0.1031777752575067
9.346972,5.690032529264791,0.1029765428398473
9.34936,5.748877263412321,0.1027820465713366
9.35174,5.810887581291523,0.1025866880432804
9.354132,5.876994648462175,0.1023802483739799
9.389992,6.556520423869372,0.1022988617412455
9.392376,6.5805418411106364,0.1022757925492056
9.394756,6.602468609806866,0.1022421847984227
9.397148,6.622440499584923,0.1021875613925809
9.399536,6.638455409698388,0.1021338783602418
9.401916,6.65265521052054,0.1020526958915254
9.40432,6.6659710676111565,0.1019351014648866
9.406708,6.679985772836075,0.1017822506264523
9.409084,6.688972563209765,0.1016436532551117
9.411488,6.699589367277532,0.1014617086481867
9.413876,6.707552444292826,0.1012954960391425
9.416256,6.713141333509364,0.1011292766598302
9.418656,6.715285099740511,0.1009775745387992
9.42104,6.717848174852239,0.100803699731067
9.42342,6.716826357351712,0.1006519116273704
9.425816,6.723580625411375,0.1003847225602929
9.428204,6.727681166418565,0.1001321457914051
9.4306,6.730850541865975,0.0998851391103752
9.432996,6.733787599887909,0.0996081567312137
9.43538,6.732488138991531,0.0993461238758845
9.43776,6.72974565585618,0.0990770583417834
9.440164,6.721276409735295,0.098858801253039
9.442552,6.708291105442382,0.098669113500682
9.444932,6.693862778910491,0.0984714115615702
9.447336,6.682926797192235,0.0982164476644275
9.449724,6.671199419541063,0.0979609878508514
9.452104,6.6606827467033884,0.097683841333812
9.454508,6.649374677932798,0.0974061960641127
9.456896,6.644352450655175,0.0970522596608993
9.459276,6.638958136325217,0.096677252314401
9.461676,6.634542209383278,0.096253159832798
9.464064,6.631756296135421,0.0957860554341673
9.466444,6.629389691768143,0.095294248132332
9.46884,6.625440295535029,0.0947989846109394
9.471228,6.622701604115415,0.0942799505022238
9.473608,6.607019142657521,0.0938866266298921
9.476004,6.593758090826623,0.0934502808985074
9.478388,6.583989383809362,0.0929570125161981
9.480768,6.572218576045683,0.0924801374590014
9.483172,6.562310099401562,0.0919879763985111
9.48556,6.550399522011025,0.091513385236241
9.48794,6.53783731831443,0.0910263513626816
9.490344,6.52220207868478,0.090570313085758
9.492732,6.504564738308711,0.0901319646152841
9.495112,6.481712491626311,0.0897537104880959
9.497508,6.454995813077937,0.0894056951735313
9.499892,6.424274933036729,0.0890956136910923
9.502272,6.391551952249104,0.0888032424830171
9.504676,6.354685000341786,0.0885550982967997
9.50706,6.312463372501274,0.0883727758807002
9.50944,6.265678464660488,0.088257270599753
9.511848,6.2181947086854015,0.0881762377197242
9.514232,6.173644219016511,0.088065366232498
9.516616,6.132958161213593,0.0879187865313547
9.519016,6.096136535276649,0.087737006989631
9.521404,6.068254477885151,0.0874697298552312
9.523784,6.037159614933736,0.0872397688837159
9.52618,6.005924982355461,0.0870137123341502
9.528568,5.978554781643161,0.0867547406584033
9.530948,5.9498341064905,0.0865223420155835
9.533352,5.918831791337703,0.0863229256534091
9.535736,5.888341332864105,0.0861390320914247
9.538116,5.861575536629618,0.0859302257722147
9.540512,5.836811841141549,0.0856995239551697
9.542896,5.812048145653479,0.0854670150989389
9.545276,5.789658637964164,0.08523892694952
9.547672,5.772204497327461,0.0849633247750132
9.550056,5.754470817437039,0.0847019288269947
9.552452,5.7353866631062544,0.0844689267369342
9.554844,5.719887401387725,0.0842182672949183
9.557232,5.707041866721672,0.0839557774322802
9.559612,5.693125396868977,0.0837067807710504
9.595456,5.428976667440086,0.0836500398601351
9.59786,5.429116437066946,0.0836418823462037
9.600244,5.434703430425617,0.0836075217903248
9.602624,5.447227891583315,0.0835106048023763
9.605028,5.4626856190472095,0.0833894086728741
9.607416,5.483870109496634,0.0832279771925269
9.609796,5.505845995878976,0.083069176235474
9.612192,5.532849797112546,0.0829095084639606
9.614576,5.562647095025452,0.0827317301364449
9.616956,5.595377659244553,0.0825292746500941
9.619352,5.632903820889406,0.0822924445836019
9.621736,5.673503018467314,0.0820240861319034
9.624132,5.717826878284336,0.0817338782971387
9.626524,5.764804465153834,0.0814384207206042
9.628908,5.816158340568502,0.0811395107303395
9.631304,5.866813367848869,0.0808842070148141
9.6337,5.926268194047822,0.0805581242480755
9.636084,5.983720919500358,0.0802519416476606
9.638464,6.041685501632091,0.079967586864264
9.64086,6.097228674136825,0.0797276161181137
9.643244,6.151561141828061,0.0795104424657111
9.64564,6.203472199892302,0.0793349033933406
9.648036,6.256454193143179,0.0791511549298605
9.650424,6.3052922152743625,0.0790157118288915
9.652804,6.355852798898245,0.0788821426697657
9.655208,6.4033403465890695,0.0787794000399033
9.657592,6.45497186539959,0.0786409381063775
9.659972,6.505020592344272,0.0784983164084079
9.662368,6.556931650408512,0.0783478770082653
9.664752,6.611775974778945,0.0781820056793845
9.667132,6.665689133589601,0.0780245051747124
9.669528,6.719602292400259,0.0778703569069037
9.671916,6.775517551957332,0.0777050741994522
9.674308,6.830361876327765,0.0775527201945943
9.676704,6.880550372899309,0.0774239131843211
9.679088,6.930506552045374,0.0772682089998802
9.681468,6.980462731191439,0.0771183041345853
9.683872,7.033911255151142,0.0769280626183314
9.68626,7.091783289484258,0.0766974818685041
9.68864,7.151936963817511,0.0764426457017647
9.691044,7.2134411125911235,0.0761680992285082
9.693428,7.277366670991733,0.0758630257034733
9.695808,7.340640603086286,0.0755552730669477
9.698212,7.400701729620922,0.0752754502716088
9.7006,7.460902625782418,0.0749951782760407
9.70298,7.522314226757413,0.0747012947854004
9.705372,7.577439986239437,0.0744597927341763
9.70776,7.6339162201618205,0.0742002984736482
9.71014,7.690671993337924,0.0739323791305387
9.712532,7.740490298714999,0.0737061850412893
9.714916,7.790727912972654,0.0734666830403692
9.717312,7.839103196110753,0.073235476584998
9.719708,7.881100089957264,0.0730221694654429
9.722092,7.92058302637816,0.0728071045400481
9.724488,7.958203631679499,0.0725982466274941
9.726892,7.9947533017942,0.0724003018915419
9.729276,8.030930884856565,0.0721878930316447
9.731656,8.061102165679678,0.0720114410461751
9.73406,8.081682251651287,0.0718768148106425
9.736444,8.097606509824004,0.0717568383515206
9.738824,8.10980610575761,0.0716486652893447
9.741228,8.117349873892323,0.0715546898051924
9.743612,8.120889440534201,0.0714830880848282
9.745992,8.129923452736133,0.0713652374579375
9.748396,8.132439306019617,0.07126660101733
9.75078,8.131090727437126,0.0711842329006222
9.75316,8.131372162548717,0.0710716343400936
9.755564,8.127928935421192,0.0709700307352874
9.757952,8.121692211614334,0.0708766205464348
9.760332,8.117876897434472,0.0707559338559973
9.762736,8.109917612134918,0.0706622281340588
9.76512,8.098373434223108,0.0705733275066633
9.7675,8.09390649373719,0.0704446961966319
9.769904,8.092372819557466,0.0703031785615627
9.772288,8.09405195093766,0.0701381655136907
9.774668,8.092937585638516,0.0699805351375854
9.777064,8.080322472540068,0.0698986917978976
9.779452,8.068778294628261,0.069808663657206
9.781832,8.054952476716316,0.0697397613073683
9.784228,8.042197593991009,0.0696624305167266
9.786616,8.0306534160792,0.0695712027177369
9.788996,8.023253209287088,0.0694531303550652
9.791392,8.015341145815775,0.069320616284171
9.793776,7.999700218612515,0.0692188308917546
9.796156,7.986061392155673,0.0691060024413941
9.798564,7.976846076072246,0.0689554485626617
9.800948,7.96669959442904,0.0688070248594006
9.803328,7.953619846479638,0.0686705932746988
9.805724,7.940168011477899,0.0685138996140229
9.808108,7.9277871116628,0.068349143925322
9.810504,7.914614815914782,0.068180690691923
9.8129,7.903444620913182,0.0680011133260461
9.815288,7.881053217365998,0.0678860199347909
9.817664,7.853866216393061,0.0677876977508706
9.820072,7.821464309113793,0.0677229240669151
9.822456,7.792275207394439,0.0676334683793906
9.824836,7.770582651981555,0.0674883397626861
9.827232,7.751963132501728,0.0673246736570097
9.82962,7.738698288955092,0.0671203913206617
9.832,7.724222740594958,0.066928998706155
9.834404,7.709747192234823,0.0667371796849608
9.836788,7.691127672754995,0.066570899260992
9.839172,7.671437218088528,0.066411250617152
9.841572,7.656682130474674,0.0662282370437113
9.84396,7.643789373980375,0.0660405141171821
9.84634,7.628475207859081,0.0658796297962941
9.848736,7.614092207297566,0.0657161356678693
9.851124,7.605575739348439,0.0655280973399606
9.853504,7.597431358451651,0.0653601297569675
9.855908,7.588076272741363,0.0652054947675183
9.858292,7.577650251844436,0.0650577086933103
9.860672,7.570297266880566,0.0648924936860501
9.863068,7.570021519342583,0.0646894638001944
9.865456,7.574681138857214,0.0644649264589404
9.867836,7.584835203931895,0.0641964471111182
9.87024,7.592567859379581,0.0639550251572248
9.872624,7.601091910760184,0.0637181364650231
9.875004,7.606403156580872,0.0635044415603506
9.877408,7.6163702302004515,0.0632834016291297
9.879796,7.631412440499503,0.0630372348080008
9.882176,7.646035341917974,0.0628082063599009
9.884576,7.664382905575559,0.0625723532772641
9.886964,7.690040024084511,0.0623291706228289
9.889344,7.712344567406686,0.0621135040741611
9.891748,7.732507240355583,0.0619127664386822
9.894132,7.751738747744703,0.0617138205894266
9.896512,7.7719014206936015,0.0615141622785167
9.898908,7.790853388829,0.0613286995802873
9.901296,7.806872090658205,0.0611530746900657
9.903676,7.824101497300907,0.0609656600703698
9.906072,7.847337206182861,0.0607526343649492
9.90846,7.867080570251178,0.0605726519083778
9.910852,7.890036739879411,0.0603742842325855
9.913256,7.912713370253924,0.0601885970486576
9.915644,7.936693253240551,0.0600241548997824
9.918024,7.962815006600456,0.0598466053062914
9.920428,7.98400139290775,0.059686394577245
9.922812,8.006678023282262,0.0595038345592701
9.925196,8.02162578992483,0.0593438692582643
9.927592,8.035642391007617,0.0591869945584027
9.929976,8.050729927277041,0.0590238900536443
9.932356,8.065957233173327,0.058856758090512
9.934748,8.075597545710943,0.0586980193649738
9.937136,8.090592534181752,0.0585077150296086
9.939516,8.109871263399114,0.0582929551137544
9.941916,8.135016525228867,0.0580627685831639
9.944304,8.160022017431759,0.0578389152186236
9.946684,8.186377984075012,0.0576004384894293
9.94908,8.218740252957513,0.0573408263323555
9.951464,8.246818781093463,0.0571057842322107
9.953856,8.271964042923216,0.0568808599546982
9.956256,8.301393045499522,0.0566325360666511
9.95864,8.32346527139622,0.0564226683488484
9.96102,8.342883770240443,0.0562113600227685
9.963416,8.356575506099135,0.0560113875940897
9.9658,8.37026724195783,0.0558123540398489
9.968196,8.391967380802189,0.0555865982772989
9.970592,8.415250311512388,0.055370685700948
9.97298,8.442257904461696,0.0551512079767672
9.97536,8.466332231104811,0.0549404339873259
9.977764,8.486681895508811,0.0547327290238263
9.980148,8.503306897673701,0.0545287735844697
9.982528,8.519000734278812,0.0543251312293852
9.984932,8.527617333458032,0.0541470305865523
9.98732,8.533021127077337,0.0539870264638574
9.9897,8.529904661031777,0.0538385921897134
9.992096,8.522132367187325,0.0536930431183129
9.99448,8.509005397409682,0.0535754396473624
9.99686,8.49387632688562,0.0534642170257618
9.999264,8.483170766734972,0.0533253605721995
10.001652,8.474467307330741,0.0531805088806043
10.004032,8.458034984194565,0.05304956961245
10.006428,8.446026171431804,0.0528912441093043
10.008816,8.435088293855678,0.0527270715604793
10.011196,8.424709494786995,0.0525422134980514
10.0136,8.412468364598757,0.0523581817401216
10.015984,8.396083263290823,0.0521912612306241
10.018364,8.376904665303554,0.0520254972474991
10.02076,8.356143275450448,0.0518503777785064
10.023148,8.334171180783846,0.0516847420159257
10.025544,8.316203287610074,0.0515070495373502
10.02794,8.300097725555862,0.0513279828213768
10.030328,8.285063098688287,0.0511428738384893
10.032708,8.27109940700735,0.0509509891133289
10.035112,8.252479887527523,0.0507595630737754
10.037496,8.237724799913668,0.0505606922852633
10.039876,8.227905079352425,0.0503494965917294
10.04228,8.219435833231543,0.0501216600583171
10.044668,8.205100054498267,0.0499045024462485
10.047048,8.188622405391717,0.0496976126682442
10.049444,8.167209389232555,0.049501367193237
10.051832,8.149660804939366,0.0492976451333461
10.054212,8.126757544712985,0.0491193835303891
10.056608,8.100641478926686,0.048955990032213
10.058996,8.075828665752505,0.0488118951899368
10.061376,8.047942816645268,0.0486773794576661
