Time,Force,Position
14.988667999999995,6.190129448555058,0.1531567230072313
14.991063999999998,6.186778769226151,0.153108530985656
14.993451999999998,6.19017856624117,0.1529816076492639
14.995831999999996,6.195393472547502,0.1528710513872138
14.998236,6.20149232258537,0.1527906664579758
15.000623999999998,6.212619087474465,0.1526517567572066
15.003003999999995,6.231707033520986,0.1523979704795052
15.005408,6.252098232179623,0.1521510225701447
15.007791999999998,6.271790582703961,0.1519496181102819
15.010171999999995,6.301353667333521,0.151560232343357
15.012567999999998,6.328635111962944,0.1512313121438893
15.014955999999998,6.356335865472947,0.1508794554539559
15.017335999999997,6.382593596743974,0.1505379881967825
15.019744,6.4071287665223045,0.1502184986355879
15.022132,6.427519965180942,0.1499868997751975
15.024511999999998,6.451543278280075,0.1496583613437647
15.026908,6.477848231379345,0.1492796667740798
15.029296,6.506015515598171,0.1488751608944158
15.031675999999996,6.532180699070582,0.1485106418997635
15.034076,6.56034798328941,0.1481094318659689
15.036464,6.589074346015678,0.1476837547409325
15.038843999999996,6.617149082435888,0.1472566914601876
15.041239999999998,6.643361487736542,0.1468598658131893
15.043623999999998,6.66678039635786,0.1465057730294841
15.046007999999995,6.693412110539093,0.1460868466708491
15.048403999999998,6.723908256586301,0.1456099832993117
15.050791999999998,6.748677639647978,0.1452221642841322
15.053171999999996,6.771724461216959,0.144855156256869
15.055567999999996,6.795330361293378,0.1444568377689001
15.057955999999995,6.810136462451215,0.1442067321944737
15.060336,6.82657257730313,0.1439046903786944
15.062735999999996,6.843288231408767,0.1435901134478059
15.065123999999996,6.858653411074044,0.1433144838341309
15.067504,6.874158360366182,0.1430306625767675
15.069899999999995,6.893155654471955,0.1426705703354792
15.072287999999997,6.911221783017949,0.1423253995792122
15.074683999999998,6.923561148578415,0.1420660888857155
15.07708,6.932967247832683,0.1418538075003554
15.079468,6.942373347086954,0.1416415261149952
15.081847999999995,6.9528503815278615,0.1414106058005844
15.084243999999998,6.955691100035439,0.1413305229535225
15.086631999999998,6.959602753729655,0.1412303422867698
15.089011999999997,6.9675186089167065,0.1410658354798594
15.091407999999998,6.9783677304099525,0.1408568637554593
15.093791999999995,6.988657773395757,0.1406804602231456
15.096187999999998,6.996805946008285,0.1405458729497252
15.098584,7.01282275197962,0.1402927866958274
15.100972,7.0304223498167895,0.1400315750337009
15.103355999999998,7.051746609893074,0.1397274184016848
15.105752,7.082289977768523,0.1392759617243457
15.108135999999998,7.10854960489742,0.1389011944543776
15.110519999999998,7.130385721652901,0.1386101856865661
15.112915999999998,7.152129290609767,0.138287540097449
15.115303999999998,7.174292168447211,0.1379434877841714
15.117683999999995,7.189517578485629,0.1377030116781348
15.120079999999998,7.204742988524045,0.1374633487491197
15.122467999999998,7.222761895241796,0.1371875758199387
15.124847999999997,7.243202211586546,0.1368598911301336
15.127252,7.261268340132541,0.1365432899177555
15.129639999999998,7.277472137558979,0.1362521238169223
15.132019999999995,7.29958968942605,0.1358341418655169
15.134415999999998,7.320496536479622,0.1354441210979275
15.136803999999998,7.331812188681693,0.1351836998557856
15.139187999999995,7.341405279391065,0.1349403456057295
15.141583999999998,7.347832786368766,0.134713197214323
15.143967999999996,7.35323657998807,0.1344657179437201
15.146351999999997,7.352401753942647,0.1342837365566062
15.155919999999998,7.297383709122194,0.1341172237644939
15.158307999999998,7.280906060015641,0.1340778617460785
15.160687999999997,7.264660728334566,0.1340632300956274
15.163083999999998,7.2509293540791075,0.134028849322132
15.165471999999998,7.243716138742096,0.1339175879998346
15.167863999999998,7.237154549711143,0.133809805232988
15.196527999999995,7.146570909737607,0.1337750053562719
15.201311999999998,7.141078360035422,0.133761372307115
15.203695999999995,7.142987912983221,0.1336975932867745
15.206091999999998,7.143966300371242,0.1336453546891526
15.21566,7.133400509847457,0.1335932972752963
15.218044,7.130794004623225,0.133578453552028
15.22044,7.127396103466076,0.1335671252581335
15.222828,7.125069137495565,0.1335376974374532
15.225208,7.122602401898195,0.1335155793231506
15.227604,7.129494543726851,0.1333447728914213
15.229992,7.132242714435812,0.1332392831967964
15.232371999999998,7.1333608714506935,0.1331813341654703
15.234772,7.14299928813044,0.1330189297669755
15.23716,7.15729353260908,0.1328020583574112
15.239539999999998,7.180946654513744,0.1324372070326087
15.24194,7.20883629533672,0.1320430826124126
15.244328,7.235375461719337,0.1316809065447966
15.246707999999998,7.257351348101679,0.1314084536243285
15.249104,7.285193767096411,0.1310578583417425
15.251492,7.309963150158088,0.1307563727574229
15.253871999999998,7.334313224339185,0.1304766416825431
15.256268,7.356521428147005,0.1302309597470863
15.258655999999998,7.379009171208545,0.129970933804855
15.261052,7.400565748710307,0.1297226049529649
15.263447999999997,7.420399764719371,0.1294890492003489
15.265835999999997,7.437300514422241,0.1292946782791485
15.268216,7.453781955244531,0.1291214691397813
15.270619999999996,7.471194561626598,0.1289392640378945
15.273007999999995,7.492611369501499,0.1287026702462841
15.275388,7.5065316310699295,0.128588768039027
15.277787999999996,7.5233851589445555,0.1284366207669899
15.280175999999996,7.540797765326623,0.1282572240190579
15.282556,7.556487810215993,0.1280938666133687
15.284951999999995,7.572597163985945,0.127911947353001
15.287339999999997,7.582700215516647,0.127811460035555
15.28972,7.587356043315538,0.1277628628479745
15.292123999999998,7.59215164074129,0.1277071164576583
15.296892,7.596155842234124,0.1276540340547516
15.299295999999998,7.599089108540318,0.1276181045659503
15.301683999999998,7.604024475592931,0.1275561674320914
15.304063999999997,7.611753339324879,0.1274648483787686
15.306459999999998,7.621344534176381,0.1273548281551703
15.308847999999998,7.631587355333942,0.1272490136283579
15.311231999999997,7.6429011116781425,0.1271272010418795
15.313627999999998,7.654214868022342,0.1270048071357064
15.316015999999998,7.667018868433762,0.1268459476420987
15.318396,7.678240076979344,0.1266936553043136
15.320795999999998,7.689601055151787,0.1265369682010987
15.323179999999995,7.708179040376979,0.1262824744931599
15.325564,7.727036564855894,0.1260161494537702
15.327967999999998,7.747616650827503,0.1257408866840073
15.330355999999998,7.768336506425973,0.1254619851607844
15.332735999999995,7.791710089076917,0.1251680246559259
15.335131999999998,7.817085772474279,0.1248501249902798
15.337519999999998,7.846465657364472,0.1244844339560145
15.339903999999995,7.877707873374225,0.1241010473100328
15.342299999999998,7.9124424341976125,0.1236606506683402
15.344691999999998,7.950389800580915,0.1231757530362706
15.347067999999997,7.983681339165326,0.122736378519414
15.349476,8.014598689950983,0.122305710281521
15.35186,8.0463546584978,0.1218395985609527
15.354243999999998,8.077319231111701,0.1213792823411509
15.35664,8.106980551113486,0.1209111917126317
15.359028,8.136921410368991,0.1204333896736177
15.361407999999996,8.17086647111733,0.1199117605892336
15.363812,8.205742697425446,0.1193860768263979
15.366196,8.239687758173783,0.1188691624180462
15.368579999999998,8.265903955190177,0.1184300148733725
15.370976,8.28560199328812,0.1180515718849879
15.373364,8.30730213213248,0.1176543717552501
15.375743999999996,8.325277608737727,0.1172909927079751
15.378144,8.339248883850141,0.1169722985543574
15.380532,8.344420360043967,0.1167442850568426
15.382911999999996,8.348660670678017,0.1165246419625036
15.385307999999998,8.35183004612543,0.1163200162998876
15.387695999999998,8.3563498960132,0.1160903237962751
15.390079999999998,8.355515069967778,0.1159297183961731
15.392475999999998,8.35188674724302,0.1157924456662524
15.394863999999998,8.351983086757375,0.1156244610588801
15.397243999999995,8.354593383697344,0.1154460034042198
15.399644,8.357575767689651,0.1152850449131562
15.402027999999998,8.358556050935544,0.1151452543545689
15.404411999999995,8.35990842123377,0.1150219152182638
15.406807999999998,8.357768446718362,0.1149511060646723
15.413975999999998,8.338077992051897,0.1149182063162133
15.423527999999996,8.334587543096129,0.1148729875316888
15.425908,8.336589643842547,0.1148521037234194
15.428303999999995,8.34152501089516,0.1148023512277481
15.430691999999995,8.346460377947771,0.1147526870146202
15.433076,8.349393644253967,0.1147241226278771
15.435471999999995,8.3521871409333,0.1147019121305298
15.437855999999996,8.360847170225027,0.114623286833376
15.44024,8.370950221755727,0.1145479162259356
15.442639999999995,8.379051172540011,0.1144936638695349
15.445027999999995,8.388223058510935,0.1144270769801827
15.447408,8.397115405228137,0.1143728918307325
15.449811999999998,8.4049368167587,0.1143315196643709
15.452199999999998,8.414108702729623,0.1142653860929341
15.454579999999996,8.427564329447101,0.114146779966918
15.456975999999996,8.443161826537855,0.1140036159321101
15.459363999999995,8.461972129188524,0.11382095073454
15.461747999999996,8.483343611093053,0.1135964476665901
15.464143999999996,8.502201135571966,0.1133837389622398
15.466531999999996,8.524271465610795,0.1131332702039811
15.468912,8.553698572329234,0.1128014371104422
15.471307999999995,8.58447615348803,0.1124462252578675
15.473695999999997,8.61325163390041,0.1121136745172901
15.47608,8.646031315805622,0.1117442125262183
15.478475999999995,8.679742163270616,0.1113691930903154
15.480863999999997,8.715455111482024,0.1109752405189601
15.483259999999998,8.750097124506796,0.1105966280537775
15.485656,8.783016576038868,0.1102290828532611
15.488044,8.816355336451524,0.1098461765337255
15.490423999999996,8.853838067983872,0.1094238743727497
15.492819999999998,8.884243562090331,0.1090688605498041
15.495207999999998,8.915068365077373,0.1086997420178471
15.497591999999996,8.95455319735614,0.108265724299086
15.499987999999998,8.995108964821542,0.1078236286058678
15.502375999999998,9.036735667473584,0.1073751135833777
15.504755999999997,9.074218399005932,0.1069700763917416
15.507151999999998,9.11305160497864,0.1065461114768794
15.509539999999998,9.146949443898736,0.1061650896126003
15.511923999999995,9.178193555766356,0.1057974079551976
15.514319999999998,9.205713005394864,0.1054546515878405
15.516707999999998,9.223361720918149,0.1051938421456104
15.519091999999995,9.239148105321872,0.1049454494637906
15.521487999999998,9.252420532299984,0.1047041803980538
15.523875999999998,9.2639703977854,0.1044711081622486
15.526255999999997,9.276730968084314,0.1042229742581235
15.528655999999998,9.293775279129784,0.1039337527547305
15.531043999999998,9.310819590175257,0.1036456012763642
15.533427999999995,9.329074606034222,0.1033434419311802
15.535823999999998,9.348540326706686,0.1030274986324637
15.538211999999998,9.36241905402048,0.1027459113771654
15.540591999999997,9.38286316208097,0.1023950370360706
15.542987999999998,9.400793312715845,0.102051442078832
15.545375999999996,9.40675808070046,0.1017733256885604
15.547759999999997,9.40992935200574,0.1015118319285146
15.550159999999998,9.405511529205937,0.101297437844722
15.552547999999998,9.402723720100209,0.1010519180313288
15.554927999999997,9.398213349501784,0.1008122945758668
15.557327999999998,9.397986719649914,0.1005317005405548
15.559715999999998,9.402835226477515,0.1002110207420776
15.562095999999997,9.413038409238313,0.0998408172535195
15.564495999999998,9.43367140461177,0.0993810250456919
15.566883999999998,9.45565487442559,0.0989017643892043
15.569267999999996,9.480711380172467,0.0983984839755211
15.571663999999998,9.50511625961328,0.0978922973332482
15.574051999999998,9.527007181628484,0.0973928154866508
15.576435999999998,9.543171340658157,0.0969308190090912
15.578831999999998,9.557101081515931,0.0964634237506524
15.581219999999998,9.568377095321235,0.0960068006675305
15.583603999999998,9.578070317260703,0.0955516943886213
15.586004,9.58911401364053,0.0950768115041789
15.588392,9.595501882221466,0.094625196372421
15.590775999999998,9.60095858524262,0.0941774501966072
15.593176,9.614423691249444,0.0936732892483475
15.595564,9.626026466136713,0.0931767200014623
15.597948,9.643775312890083,0.0926323879015413
15.600344,9.659522058897048,0.0921022191801006
15.602735999999997,9.675268804904007,0.0915736465776564
15.605116,9.688222054231634,0.0910602023370169
15.607519999999996,9.693818526879651,0.0906065990247089
15.609907999999995,9.69606242434089,0.0901875094055015
15.681568,9.05688077879166,0.0901548167295884
15.683964,9.077783834129496,0.0901352382385325
15.686359999999995,9.098407350213613,0.090126098208704
15.688744,9.122523211111364,0.0900790457954672
15.691128,9.151574439061726,0.0900013110767628
15.693523999999996,9.181556832571868,0.0899196742518882
15.695908,9.208605959775817,0.0898560676816673
15.698287999999998,9.23565508697976,0.0897918332873984
15.700691999999997,9.274856588289069,0.0896422866419268
15.70308,9.31233552810568,0.0894975637630735
15.70546,9.349534928668566,0.0893624362726839
15.707856,9.387385955537516,0.0892351104686437
15.710244,9.42858955759324,0.0890764941644616
15.712628,9.46793082852941,0.0889273325926266
15.715024,9.505689307599742,0.0887797087269061
15.717412,9.540282202938403,0.0886295214428148
15.719791999999998,9.569427874545251,0.0884983979657126
15.722188,9.598713315778962,0.0883637423620632
15.724576,9.632282497759226,0.0881931981813101
15.726959999999998,9.667993550112763,0.0880068344625559
15.729356,9.706637868772502,0.0878034317096371
15.731744,9.740626359633342,0.0876216621274164
15.734139999999996,9.771821353814852,0.0874507471109545
15.736535999999996,9.799663772809582,0.0873113329358903
15.738923999999995,9.827785731058038,0.087164977498653
15.741304,9.85339373188088,0.087020609623467
15.743703999999996,9.880072667890358,0.0868678618225831
15.746091999999996,9.908381617593914,0.0866881445862711
15.748472,9.928821933938664,0.0865539781183944
15.750871999999998,9.950193415843192,0.0864170130869771
15.753259999999996,9.97305514181494,0.0862579463954597
15.75564,9.993263140734213,0.0861058609054839
15.758035999999995,10.010537873347287,0.0859701006606703
15.760423999999997,10.03116518114714,0.0858067020061296
15.762804,10.047648517827302,0.0856718282400612
15.765203999999995,10.063852315253738,0.0855463209491151
15.767588,10.082849609359515,0.0854101906323131
15.769968,10.099332946039674,0.0852760546559704
15.772364,10.116887217906472,0.0851347556962693
15.774755999999996,10.129645892347517,0.0850154948284191
15.777136,10.14454643716184,0.0848811974203354
15.779532,10.156933024550549,0.0847479230595314
15.78192,10.171601251939393,0.0845940350131543
15.784315999999995,10.18603716190276,0.0844207010272209
15.786711999999998,10.193256064813378,0.0842938720706334
15.789099999999998,10.202477068470412,0.0841559682661303
15.791483999999995,10.208904575448113,0.0840279627200715
15.793879999999998,10.212910672798817,0.0839248707971631
15.796267999999998,10.217847935709296,0.0838183233260496
15.798647999999996,10.219991701940446,0.0837219592628389
15.801047999999998,10.219574288917734,0.0836549086030194
15.803435999999998,10.222881538134136,0.0835749025538011
15.805815999999997,10.228842514403013,0.0834898288657408
15.808211999999996,10.22744671399228,0.0834547227403528
15.810599999999996,10.226842309514463,0.0834208110829698
15.81298,10.231964668022176,0.0833631950630944
15.815375999999995,10.239089127276308,0.0832950165979728
15.817767999999996,10.2439319465303,0.0832465095014225
15.820148,10.24742429134394,0.0832147240097064
15.822543999999995,10.255432694329604,0.0831715187214974
15.824931999999995,10.260228291755356,0.0831512925294685
15.827312,10.269539947353142,0.083119869681901
15.829707999999997,10.281505330003403,0.0830838043448007
15.832099999999995,10.295705130825556,0.0830561837695693
15.83448,10.316190773140676,0.0829881002057381
15.836879999999995,10.337188272134997,0.0829305296124047
15.839267999999995,10.361119037435513,0.0828593280685842
15.841648,10.388122838669084,0.0827702860877001
15.844047999999995,10.417920136581987,0.0826725424378159
15.846435999999995,10.449579765614454,0.0825689704296389
15.848816,10.487013379460688,0.0824162984087967
15.851215999999996,10.521933035881313,0.0822658449821247
15.853603999999995,10.553267799689682,0.08212358893977
15.855987999999996,10.587815369057964,0.0819585858126592
15.858383999999996,10.62264247767997,0.0817849270038084
15.860771999999995,10.646947225890692,0.0816530029667757
15.863152,10.663662879996329,0.0815490478711091
15.865555999999998,10.68252040447524,0.0814301510284305
15.867943999999998,10.69886397152854,0.081311422521589
15.870323999999997,10.710551710782946,0.0812078227457293
15.872719999999996,10.724660859664349,0.0810813491456632
15.875107999999996,10.73611628149328,0.0809600877227676
15.877488,10.744778206642874,0.0808481358291939
15.879891999999998,10.752136879180355,0.0807252092718043
15.882279999999998,10.755491350225,0.0806227663576616
15.884659999999997,10.758473734217308,0.0805065092745635
15.887055999999998,10.761456118209615,0.0803905242852868
15.889443999999996,10.763647106269003,0.0802735254976721
15.891824,10.761461805783222,0.0801622135204114
15.894219999999995,10.761138836416997,0.0800457396095917
15.896607999999995,10.758254687796914,0.0799562405828542
15.899003999999998,10.750667489549697,0.0799068166025393
15.9014,10.745082392048891,0.079847702022555
15.903788,10.742151021600566,0.0797847420839862
15.906167999999996,10.743084083018214,0.0797071176599801
15.908568,10.751094381861748,0.0795939212452956
15.910956,10.769766810743429,0.0794391915294702
15.913335999999996,10.792443441117944,0.0792667219949307
15.915736,10.820846834477983,0.0790751468111362
15.918124,10.8543253645175,0.0788588156069448
15.920503999999998,10.887664124930152,0.0786483897920751
15.922899999999998,10.922725446835504,0.0784379116644111
15.925287999999998,10.96058026542019,0.0782209243239191
15.927671999999998,10.997084609564515,0.0780189208315672
15.930063999999998,11.03931571669437,0.0777993597245223
15.932451999999998,11.080056579757008,0.0775991413965364
15.934835999999995,11.122939313192925,0.0773876621094358
15.937231999999998,11.167684377748396,0.0771731295190795
15.939619999999998,11.214152003796563,0.0769577826542278
15.942003999999995,11.25596380204584,0.0767551589639543
15.944399999999998,11.294330477309725,0.0765544678824256
15.946787999999998,11.33954207257402,0.0763034286625452
15.949167999999997,11.384753667838314,0.0760537682671719
15.951567999999998,11.429593176050275,0.0757928018523568
15.953955999999998,11.47056825239626,0.075546874355903
15.956335999999997,11.511403559115386,0.0753068896472435
15.958735999999998,11.547583038035617,0.0750810394602736
15.961123999999998,11.579758315463016,0.0748734132873976
15.963503999999997,11.609419635464803,0.0746664904987839
15.965899999999998,11.635076753973753,0.07447680103539
15.968287999999998,11.658871541363146,0.0742921887693371
15.970671999999997,11.6840168031929,0.074095466983984
15.973067999999998,11.706927646850758,0.0738909231095805
15.975455999999998,11.732120130508756,0.0736711542200503
15.977836,11.752656786367858,0.0734630094081427
15.980235999999998,11.77710509592118,0.0732198548847654
15.982623999999998,11.799830843981802,0.0729785385785686
15.98502,11.81990286498995,0.0727404609601296
15.987423999999995,11.843467230811736,0.0724793550242705
15.989811999999995,11.871175567753214,0.0722000599940673
15.992192,11.898604365440972,0.0719274134586887
15.994587999999997,11.922960127195676,0.0716694853461303
15.996975999999997,11.9463847233906,0.0714140637403484
15.99936,11.964734182906051,0.0711791808817318
16.001755999999997,11.984573886488723,0.0709284216357916
16.004143999999997,12.0026910285787,0.0706784501684719
16.006524,12.021739336228451,0.0704278901498352
