Time,Force,Position
14.765999999999998,8.442076657491942,0.1576369433142286
14.768379999999995,8.474338795144352,0.1573632668334603
14.770784,8.505297680184643,0.157086833300695
14.773172,8.535604938918878,0.1568102146825978
14.775551999999998,8.570056168772808,0.1564709730908926
14.777948,8.604647168253594,0.1561322089699008
14.780335999999998,8.637887693294022,0.1558284981890588
14.782715999999995,8.674061484640646,0.1554885802399614
14.785111999999998,8.703530125613721,0.1552680533779003
14.787499999999998,8.733510623265992,0.1550539511442273
14.789879999999997,8.769869510209851,0.154769044975838
14.792275999999998,8.81274655607216,0.1544047531837433
14.794663999999996,8.858976177121242,0.1539876004270183
14.797059999999998,8.907906747051046,0.1535131052160778
14.799456,8.957116856234567,0.1530280054456011
14.801844,9.002090446499778,0.1525841187009411
14.804223999999998,9.04790265452615,0.1521042940781313
14.80662,9.094413710686824,0.1515974243095011
14.809008,9.1386903486756,0.1511015107420003
14.811387999999996,9.169651129573763,0.1507702233369456
14.813783999999998,9.196515161180471,0.1504705699042388
14.816171999999998,9.227942472787458,0.1500962192260771
14.818551999999997,9.262210502902022,0.1496617651836435
14.820947999999998,9.29410434521783,0.1492398772736319
14.823335999999998,9.320550963801828,0.1488776270770432
14.825719999999995,9.337266617907469,0.1486349465925001
14.828115999999998,9.351468314587487,0.1484115655541736
14.830503999999998,9.36101418346862,0.1482405892985742
14.8329,9.374331936417104,0.1479965125188808
14.835296,9.391142034179229,0.1476931308910117
14.837684,9.401713512276622,0.1474502767303422
14.840068,9.411121507388762,0.1472002395055167
14.842464,9.416013444328868,0.1469957711455937
14.844852,9.41932258940314,0.1468004805061069
14.897399999999998,9.178302028813114,0.1466734757356673
14.899795999999998,9.176998776200998,0.1466694730911862
14.902183999999998,9.180723438440111,0.1466309744272637
14.90458,9.18696205810484,0.1465751912749292
14.906975999999997,9.199439297434298,0.146464511838144
14.90936,9.216572364562644,0.1463054194108126
14.911744,9.23994405135572,0.1460898972467427
14.914147999999996,9.268902731507463,0.1458156175857581
14.916532,9.304659109831375,0.145464919176505
14.918916,9.347585273379796,0.1450498947491686
14.921311999999997,9.38822979692808,0.1446748770010212
14.923696,9.43073665159592,0.1442818176260319
14.92608,9.472963967010038,0.1439034268271457
14.928476,9.51412034723752,0.1435427518155823
14.93086,9.553134857091722,0.1432127347994793
14.933243999999998,9.593499841386286,0.1428588140995252
14.93564,9.633213199374788,0.1425021010294365
14.938028,9.672647018109574,0.1421561705739175
14.940407999999998,9.71063781460538,0.1418120949571908
14.942804,9.740759977742382,0.1415612944894982
14.945192,9.767017709013407,0.1413528112501215
14.947588,9.794206605844217,0.1411374532602165
14.949991999999998,9.817810610062766,0.1409525035902512
14.952375999999996,9.843416715027736,0.1407455895337845
14.954759999999997,9.866369092940232,0.1405631795728653
14.957155999999998,9.891742880479724,0.1403437247869369
14.959539999999995,9.913019918727764,0.1401468004708344
14.961924,9.934064639550328,0.1399333389709837
14.964319999999995,9.945285848095908,0.1397998483112018
14.966704,9.947614709924288,0.1397367469126368
14.981032,9.898925936709311,0.1397025165231472
14.983424,9.88989571622312,0.1396951592563283
15.012096,9.79084093427084,0.1396850729717039
15.014499999999998,9.79261071759178,0.1396440974892214
15.019267999999997,9.800292359495486,0.1395941760526924
15.021672,9.809417023638163,0.1395421412822606
15.036003999999998,9.858247462337872,0.1394897626546044
15.038387999999998,9.869187235771864,0.1394508848221895
15.040771999999995,9.881477483646217,0.1393877217179227
15.043167999999998,9.903918004879516,0.1392070394548481
15.045555999999998,9.92049199350042,0.1390888370199843
15.047936,9.939207852494604,0.1389434593723972
15.050331999999996,9.954850675555727,0.1388337860819158
15.052719999999995,9.97421816085597,0.1386898989955741
15.0551,9.985996552051123,0.1386200048100777
15.057495999999997,10.00378124548553,0.1384837916398476
15.059883999999997,10.021286399666216,0.1383596401664103
15.062264,10.034647582727208,0.1382850790691565
15.06466,10.050802262467537,0.1381869474296996
15.067048,10.077107215566803,0.1379751018664056
15.069432,10.105414269412488,0.1377440047033275
15.071835999999998,10.13320946657898,0.1375064869744416
15.074219999999997,10.16100466374547,0.137269492810606
15.0766,10.191733127218155,0.1370009840602074
15.078996,10.220319720317564,0.1367588783770862
15.081384,10.251839579723166,0.1364873532923298
15.083768,10.281077799128632,0.1362489079824352
15.086163999999997,10.309384852974318,0.1360210808804384
15.088552,10.335410266819869,0.13582577673862
15.090947999999996,10.356220774359084,0.1356929806664851
15.093343999999998,10.382106418577774,0.1355058317232377
15.095731999999998,10.407060897236684,0.1353278995594515
15.098111999999997,10.438301217388563,0.1350785665865697
15.100507999999998,10.467958745674611,0.1348355058196493
15.102895999999998,10.500037683587657,0.1345559683113009
15.105279999999995,10.52666939776889,0.1343193450671352
15.107684,10.55148600265881,0.1340720497562303
15.110072,10.58007449161609,0.1337673194917022
15.112451999999998,10.605637166468554,0.1334711252387757
15.114848,10.626963322402707,0.1332010627121229
15.117235999999998,10.644052959418548,0.1329545820039696
15.119619999999998,10.66235330124789,0.13269238174833
15.122016,10.682283656771313,0.1323998056742401
15.124399999999998,10.705706357108369,0.1320627157612831
15.126783999999995,10.732621402259062,0.1316802264566189
15.129179999999998,10.755160158864584,0.1313237949648879
15.131567999999998,10.780539633977684,0.1309206526506272
15.133947999999997,10.80233421647853,0.130541677422837
15.136347999999998,10.82254600711354,0.1301663201245357
15.138731999999996,10.841035236255854,0.1297996468852372
15.141112,10.85794167353233,0.1294399884759443
15.143515999999998,10.873265318942972,0.1290852627203243
15.145903999999998,10.881931035808304,0.1287855449456041
15.148283999999997,10.888874191180944,0.1284946567156365
15.150683999999998,10.89381524580716,0.1282224275407149
15.153071999999998,10.896754199686963,0.1279678079482652
15.155451999999997,10.897131974312906,0.1277514876028611
15.157847999999998,10.894017404125218,0.1275809646827456
15.1937,10.671837305293288,0.1275207653583163
15.196088,10.667275921150882,0.127500948826766
15.198472,10.66615965999387,0.1274637175308207
15.200868,10.67356365850172,0.127361318818185
15.203252,10.685903024062185,0.1272161356602623
15.205631999999998,10.704108922235042,0.1270225519033804
15.208028,10.730183453766704,0.1267619862336519
15.210416,10.757980546791064,0.126493365915133
15.212795999999996,10.787360431681256,0.1262213199085238
15.215191999999998,10.820884287691143,0.1259078176346372
15.217579999999998,10.85748117963409,0.1255658114920586
15.219959999999997,10.898873669002786,0.12518948403723
15.222364,10.94147686318498,0.1247970323339961
15.224752,10.98035539512806,0.1244334000573278
15.227131999999996,11.016160891138089,0.1240977741638342
15.229527999999998,11.05382871826767,0.1237530242910602
15.231915999999998,11.090844919091191,0.1234090800209713
15.234295999999995,11.128932055101355,0.1230573131231142
15.236691999999998,11.170092227044575,0.1226784339282401
15.239079999999998,11.21032123342802,0.1223052852784086
15.241476,11.254973750184874,0.1218858356972347
15.243872,11.294039273583058,0.1215047025960616
15.24626,11.332592940302044,0.1211182269062644
15.248639999999998,11.366630548849,0.1207613859618029
15.251036,11.39601232959706,0.120436096130827
15.253424,11.418084555493762,0.120156089311833
15.255803999999998,11.434150479151208,0.1199265693725852
15.2582,11.44942500687574,0.1196990532874963
15.260587999999998,11.462976973107567,0.1194790273587428
15.262971999999998,11.478670809712678,0.1192397607707019
15.265376,11.490639984078674,0.119024331291449
15.26776,11.496090999526224,0.1188506422248885
15.270143999999998,11.504475281279968,0.1186559293108959
15.27254,11.51407026784721,0.118447043785536
15.274928,11.52729736885495,0.1181942521764573
15.277307999999998,11.53279560613074,0.1179963654931125
15.279704,11.53214777154042,0.1178504138555451
15.282092,11.525912943591432,0.117738820042059
15.284471999999996,11.515022287843552,0.1176556642235335
15.286867999999998,11.507484207282449,0.117537678864053
15.289255999999998,11.494731220415009,0.1174656066062995
15.291639999999996,11.48756522690624,0.1173595444098031
15.294035999999998,11.476115492650916,0.1172935890414443
15.296419999999998,11.461173413581962,0.1172667398251557
15.325104,11.265893193037767,0.117254182010455
15.327479999999998,11.25518763288712,0.1172108020542044
15.329876,11.249137900535365,0.1171391553297709
15.332264,11.247743995982502,0.117039323389959
15.334656,11.241786811429364,0.116988644718947
15.337059999999996,11.2396940587422,0.1169110750501096
15.339447999999996,11.23466803974884,0.1168547990216221
15.341828,11.236859027808228,0.1167375756186256
15.344223999999995,11.246127253293508,0.1165640212002242
15.346608,11.25767711877892,0.1163661961933182
15.348988,11.275512825757309,0.1161139347597395
15.351388,11.291066892735556,0.1158856560286926
15.353772,11.307691894900447,0.1156469059888199
15.356151999999998,11.324316897065335,0.1154094552153011
15.358548,11.341873064790002,0.1151660720323287
15.360936,11.361431333261086,0.1149084496705963
15.363332,11.38834637841178,0.1145875120720152
15.365727999999995,11.41591304986853,0.1142701322062071
15.368115999999995,11.447483922818114,0.1139232964371611
15.370496,11.474631285394285,0.1136196182902284
15.372891999999997,11.503129122410812,0.1132985140436944
15.37528,11.52683136200159,0.1130102515552749
15.37766,11.54801964416675,0.1127302021733141
15.380056,11.569347695958772,0.1124476815807146
15.382444,11.59630996293771,0.1121095532557495
15.384823999999998,11.62089804211789,0.1117751047336204
15.387224,11.648047300551934,0.1114105767236415
15.389608,11.668259091186943,0.1110957487972756
15.391987999999998,11.68423436290364,0.1107951294941384
15.394384,11.696624742008089,0.1105102370209444
15.396772,11.701146487753729,0.1102786422952113
15.399168,11.70981220461906,0.1100143942263951
15.401563999999995,11.723553058163864,0.1097138476033513
15.403951999999997,11.73715414208181,0.1094187232427456
15.406332,11.75382826193281,0.1091013225239276
15.408735999999998,11.768640050664253,0.108794826777477
15.411123999999996,11.776095062716086,0.1085479788981061
15.413504,11.784760779581418,0.1082884252876965
15.415899999999995,11.791284626073477,0.1080475499197661
15.418287999999997,11.801021278125445,0.1077792414414977
15.420668,11.80968699499078,0.1075205477436533
15.423067999999995,11.819563416669611,0.1072489293454986
15.425452,11.829160299094722,0.1069855514404493
15.427832,11.834892749653864,0.106745400414706
15.430231999999997,11.83475866760061,0.1065418619928211
15.432616,11.83355365036072,0.1063468171819689
15.435,11.8247123171875,0.1062173250412417
15.437396,11.82094612069375,0.106051981231943
15.439784,11.818902485692698,0.1058816460371417
15.442179999999995,11.823516779236954,0.10567537622759
15.444575999999998,11.837210410953515,0.105408001844431
15.446963999999998,11.85025241636402,0.1051382949145449
15.449344,11.85901068102797,0.1049042490141287
15.451739999999996,11.866698010505283,0.1046792107753524
15.454127999999995,11.8690306640494,0.1044966248490173
15.456512,11.869221447220244,0.1043308553270238
15.458907999999996,11.875558302257192,0.1041224542593811
15.461291999999997,11.879101660614811,0.1039272712222455
15.463676,11.881062227106591,0.1037325165096772
15.466079999999998,11.884513037665592,0.103517506205714
15.468463999999996,11.887824078597736,0.1033067565800895
15.470844,11.891926515462792,0.1030962208231339
15.473239999999995,11.894026851581437,0.1028977505959089
15.475627999999997,11.899060454006271,0.1026823441626051
15.478008,11.90874988423,0.1024456604182365
15.480404,11.922303746319702,0.102188353790076
15.482792,11.94642719064893,0.1018525366524748
15.485172,11.96961946941838,0.1015229125197602
15.487568,11.992811748187824,0.1011948937289592
15.489956,12.016143796584135,0.1008665681594724
15.492351999999997,12.035471643487613,0.1005652329661286
15.494751999999998,12.055730655950862,0.10026181651932
15.497135999999998,12.077479912481335,0.0999396475956035
15.499519999999997,12.101231269758223,0.0996069584672498
15.501915999999998,12.133550108528224,0.0992134916545174
15.504303999999998,12.172434328044911,0.0987719499482246
15.506684,12.20559178457607,0.0983582719553449
15.509079999999996,12.242753442600062,0.0979229734966782
15.511467999999995,12.281497892489892,0.0974880535124824
15.513848,12.321964903872416,0.0970532586837534
15.516243999999997,12.36313076338924,0.0966007446865427
15.518631999999997,12.405507327719569,0.0961397266388947
15.521027999999998,12.459244870222332,0.0956129490689974
15.523432,12.511120081605544,0.0950946393689943
15.525816,12.564345767429112,0.0945660360140434
15.528195999999998,12.61771122287954,0.0940377817364591
15.530596,12.66493060646386,0.0935492626654761
15.532979999999998,12.712801616354236,0.0930674634490411
15.535363999999998,12.759601691057972,0.0925945662925403
15.53776,12.799324528335823,0.0921613207832595
15.540148,12.837836660800177,0.0917401754959411
15.542527999999995,12.875138088451026,0.0913321363421057
15.544923999999998,12.9120202072213,0.0909369828409559
15.547311999999998,12.946108829312235,0.0905526658514269
15.549695999999996,12.973911609910202,0.0902081367269157
15.5521,12.996080175321255,0.089906507348642
15.554488,13.02425504297156,0.0895764447129068
15.556867999999998,13.051358975435226,0.0892549627003231
15.559264,13.082746648645443,0.0889091934375586
15.561652,13.107988249989551,0.0885963565660094
15.564031999999996,13.131599837639582,0.0883050360364477
15.566432,13.14920512305036,0.0880422230361624
15.568815999999998,13.15344732954228,0.0878504783746249
15.571199999999996,13.162113046407612,0.0876302096956138
15.573595999999998,13.164772461033694,0.0874379536076167
15.575983999999998,13.163427674166943,0.0872642045405024
15.578363999999995,13.164224757673468,0.0870779495880471
15.580759999999998,13.161856257448324,0.0868887852736275
15.583151999999998,13.15762542610362,0.0867049387928853
15.585531999999995,13.153813903639495,0.086509775732163
15.587927999999998,13.14935075486932,0.0863102080707123
15.590315999999998,13.141023174233162,0.0861249083477828
15.592699999999995,13.12831930505184,0.0859458086800588
15.595095999999998,13.114684270310734,0.0857690370775839
15.597483999999998,13.102120170756267,0.0855858131000572
15.599863999999997,13.090766776015304,0.0853926215889094
15.602259999999998,13.075921036460702,0.0852254040990333
15.604647999999996,13.05879365690596,0.0850739922004847
15.607031999999997,13.034169731044752,0.0849656866795465
15.609436,13.016483272982573,0.0848281937984342
15.611824,13.003592412346142,0.0846742102771489
15.614203999999996,12.996148775441524,0.0845079068399315
15.616604,12.996573771895712,0.0843100430705747
15.618992,12.992155949095906,0.0841509341700707
15.621371999999996,12.991183249281493,0.0839883711904338
15.623772,12.996868478012384,0.0838049878851486
15.62616,13.002134397862696,0.083632565509998
15.628539999999996,13.010426131817823,0.0834677624101297
15.630944,13.024304859131624,0.0832886251251335
15.633332,13.045632910923644,0.0830906691325081
15.635711999999998,13.067612589021726,0.08289746579914
15.638108,13.09438786454556,0.0826888984154687
15.640496,13.129543630107396,0.0824596367548455
15.642875999999998,13.171357324214542,0.0822117790363602
15.645272,13.213171018321688,0.0819647245286229
15.647659999999998,13.252842842055555,0.081729290580299
15.650039999999995,13.288790003550313,0.0815026260953421
15.652435999999998,13.328881136164764,0.0812573168704709
15.654823999999998,13.373535548779488,0.0809820565611861
15.657207999999995,13.410321328035405,0.0807364481003377
15.659603999999998,13.439518013186236,0.0805133697913407
15.661991999999998,13.470204942404283,0.08027599925845
15.664388,13.495025339009942,0.0800594607124066
15.666784,13.52212737561574,0.0798284536455095
15.669172,13.550440117035032,0.0795894125322661
15.671551999999998,13.571815390655296,0.0793771551659676
15.673948,13.591468102782867,0.0791663073922401
15.676336,13.606604756738404,0.0789631069631573
15.678719999999998,13.617085582895047,0.0787716152733027
15.681116,13.616904279013555,0.0786140548291402
15.6835,13.616071348826004,0.0784519068828033
15.685879999999996,13.609232116399196,0.0783125398547603
15.688275999999998,13.595455416173364,0.0781983308889191
15.690663999999998,13.574089621842448,0.0781042118168392
15.693047999999996,13.552723827511524,0.0780098341725664
15.695439999999998,13.536572939486938,0.0778915756250163
15.697827999999998,13.529361620007796,0.0777414780481992
15.700224,13.51814609903582,0.0776062934207214
15.702623999999997,13.506790808436984,0.07747444496532
15.705008,13.504375086383597,0.0773115506763389
15.707392,13.508757062502374,0.0771282193579282
15.709788,13.506992966755044,0.0769699767597067
15.712176,13.51244587806046,0.0767819346531481
15.714555999999998,13.517898789365878,0.0765943577877483
15.716959999999997,13.52069797361882,0.0764095662421977
15.719344,13.5257787978719,0.0762110470225639
15.721723999999998,13.532582183617675,0.0760121985209449
15.72412,13.544320936416064,0.0757975490103232
15.726508,13.557922020334011,0.0755794889395634
15.728887999999998,13.58232500391696,0.075328248273168
15.731288,13.6113838152988,0.0750691789362268
15.733676,13.647659633733388,0.0747814221981696
15.736055999999998,13.687288027354748,0.0744757004414004
15.73846,13.72957014802859,0.0741676746767818
15.740848,13.76998993758287,0.0738634949293545
15.743227999999998,13.808267856763877,0.0735713635746848
15.745631999999995,13.837745977026296,0.0733056791016762
15.748019999999997,13.867363866915577,0.0730368092342068
15.7504,13.895631282364498,0.0727800398618245
15.752803999999998,13.916309603708331,0.0725412503429732
15.755191999999996,13.934054658745971,0.0723117213284758
15.757572,13.9571543897168,0.0720582008118898
15.759975999999998,13.97704131512772,0.0718207855249645
15.762359999999996,13.995065909419075,0.0715869976231259
15.76474,14.014952834829993,0.0713505518669248
15.767143999999998,14.035770925800689,0.0711132705987985
15.769531999999998,14.055937390465324,0.0708718250199973
15.771911999999997,14.0754522288239,0.0706268489014167
15.774307999999998,14.09603800236912,0.0703782608548097
15.776695999999998,14.111688408861726,0.0701447737739366
15.779076,14.1204013475553,0.069931302135142
15.781471999999996,14.12725195512932,0.0697216852112758
15.783859999999995,14.13196069233006,0.0695213642113842
15.78624,14.14002200471758,0.0693051920790108
15.788635999999997,14.15315845378457,0.0690734505802651
15.791023999999997,14.164712110985723,0.06883867545387
15.793399999999998,14.185065567105465,0.0685831865931949
15.795803999999997,14.206629728038704,0.0683206135693333
15.798191999999997,14.232896938599076,0.0680329108148592
15.800576,14.26475114251812,0.0677381905652049
15.802971999999995,14.300609547929998,0.0674340079484446
15.805359999999997,14.333115378155098,0.0671467247698992
15.80774,14.363758877260642,0.066862474252492
15.810136,14.39347121080641,0.0665793656184387
15.81252,14.42011050841912,0.0663062604850285
15.814904,14.445818640472051,0.0660352020946481
15.817307999999995,14.472457938084764,0.0657638078426609
15.819692,14.498817696443757,0.0654996216743139
15.822072,14.521313022936772,0.0652435237617687
15.824479999999998,14.542737414243147,0.0649917180219608
15.826863999999995,14.566583215176529,0.0647253774942574
15.829248,14.590568785736762,0.0644572526083701
15.831643999999995,14.61948972334961,0.0641789764097599
15.834031999999995,14.64626879058918,0.0639103792464762
15.836412,14.670905987455477,0.0636512874899246
