Time,Force,Position
6.258887999999999,0.05508516162775583,0.0
6.261227999999999,0.0440397148005583,0.0
6.263567999999999,0.03485659909291742,0.0
6.265908,0.026604648945054852,0.0
6.268251999999999,0.016350598050775437,0.0
6.270591999999999,0.010892144582247831,0.0
6.272936,0.006504626300358761,0.0
6.275279999999999,0.0019773383916094787,0.0
6.277619999999999,0.0007194117498675854,0.0
6.279959999999999,0.0017431251082629647,0.0
6.282304,0.006083421561908884,0.0
6.28464,0.011215113948472914,0.0
6.286983999999999,0.018209137454593585,0.0
6.289327999999999,0.023340829841157616,0.0
6.291668,0.029403687787499966,0.0
6.294011999999999,0.036397711293620634,0.0
6.296344,0.04246056923996299,0.0
6.298696,0.048383657559445126,0.0
6.301031999999999,0.05495837218498517,0.0
6.303372,0.06074169087760709,0.0
6.305715999999999,0.07052921106306272,0.0
6.308059999999999,0.0815274360620171,0.0
6.3104,0.0943879921805281,0.0
6.312743999999999,0.10366365568678605,0.0
6.315092,0.1127995495661838,0.0
6.317431999999998,0.12007311232602488,0.0
6.319787999999999,0.12813807101878408,0.0
6.322132,0.13913629601773844,0.0
6.324471999999998,0.14714469900340585,0.0
6.326808,0.15594449792199136,0.0
6.329143999999999,0.15980892978796485,0.0
6.331496,0.16195080016124191,0.0
6.333836,0.16008846904168528,0.0
6.336179999999999,0.16087986497460338,0.0
6.338524,0.16181103053438167,0.0
6.340867999999999,0.1610196346014636,0.0
6.343216,0.1602282386685455,0.0
6.345555999999998,0.16078731717598632,0.0
6.347904,0.15883243825781262,0.0
6.350256,0.15766895527255706,0.0
6.352599999999999,0.1484970693016341,0.0
6.354944,0.1374988443026797,0.0
6.357291999999999,0.12483461351812067,0.0
6.359627999999999,0.11682621053245325,0.0
6.361967999999999,0.11081990829320269,0.0
6.364307999999999,0.10774687236014732,0.0
6.366655999999999,0.10281150530753529,0.0
6.369,0.09294077120231123,0.0
6.371339999999998,0.08544422489584151,0.0
6.373691999999998,0.07523739582980528,0.0
6.376028,0.06703266751018587,0.0
6.378367999999998,0.059759104750344794,0.0
6.380711999999999,0.055894672884371305,0.0
6.383051999999999,0.05445165064539529,0.0
6.385392,0.0499355924733639,0.0
6.387735999999999,0.045139995047612076,0.0
6.390084,0.04034439762186026,0.0
6.392415999999999,0.034338095382609714,0.0
6.39476,0.03233599463619286,0.0
6.397103999999999,0.032196225009332655,0.0
6.399448,0.03391878650202908,0.0
6.401788,0.03546558627634004,0.0
6.404131999999999,0.03560535590320025,0.0
6.406483999999999,0.03639675183611836,0.0
6.408816,0.03326716019597118,0.0
6.411155999999998,0.029066633369185472,0.0
6.413499999999999,0.025937041729038296,0.0
6.415844,0.02480955083530797,0.0
6.41818,0.023961599195298056,0.0
6.420523999999999,0.023961599195298056,0.0
6.422872,0.023961599195298056,0.0
6.425215999999999,0.023961599195298056,0.0
6.42756,0.023821829568437848,0.0
6.429903999999999,0.01934176348793172,0.0
6.432243999999999,0.016863798153842438,0.0
6.434583999999999,0.015456768006391694,0.0
6.436928,0.016620250991647285,0.0
6.439264,0.018575129909820985,0.0
6.441604,0.020250469574274264,0.0
6.443947999999999,0.01713021181297573,0.0
6.446292,0.016151824424954258,0.0
6.448627999999999,0.01796693371626775,0.0
6.450968,0.020061582261301662,0.0
6.453311999999999,0.019222964500140396,0.0
6.455651999999999,0.0212343991254059,0.0
6.457996,0.022546985616370346,0.0
6.460336,0.027164925465867445,0.0
6.462679999999999,0.03294634830062013,0.0
6.465031999999999,0.0397514844937682,0.0
6.467371999999999,0.048511499605089964,0.0
6.469719999999999,0.059086624007725214,0.0
6.472071999999999,0.06719311695511983,0.0
6.474416,0.07463675385973867,0.0
6.476759999999999,0.08446391244196048,0.0
6.479104,0.09913199442030801,0.0
6.481444,0.1151486549811453,0.0
6.483784,0.1352508350967154,0.0
6.486132,0.15637483271281163,0.0
6.488475999999999,0.18033575712074748,0.0
6.490819999999999,0.2181678254110026,0.0
6.493163999999998,0.26772916721029993,0.01253800025432599
6.495503999999999,0.3296714088246974,0.024000734132263432
6.497843999999999,0.4046461765602528,0.03510251417906182
6.500179999999999,0.4933523185512673,0.04583340141313671
6.502528,0.5908544677451288,0.056541951623441625
6.504883999999999,0.7007847385823336,0.06703568842815469
6.5072199999999984,0.8220721958762431,0.07715479842538794
6.509563999999999,0.9574177885075752,0.08689009279220627
6.511911999999999,1.1061698901702721,0.09633892235388639
6.514259999999998,1.2644640689983602,0.1056817849317788
6.516599999999999,1.4275047275660875,0.11515066731682608
6.518943999999999,1.605721678486119,0.12445541992159928
6.521291999999999,1.795250489892482,0.13364879320539735
6.523627999999999,1.9947879091730596,0.14273037113823578
6.525967999999999,2.197815777409404,0.15180966053455175
6.528315999999999,2.4103876186690085,0.160767288565524
6.530655999999999,2.6254734173542276,0.16967795522242973
6.533007999999999,2.849034149733938,0.1784250047640935
6.535352,3.076368662038875,0.1870095586039687
6.537695999999999,3.295139484566441,0.19556094376266978
6.540031999999998,3.506697091756997,0.1914762447687937
6.542375999999999,3.7046630943189536,0.1884563733629256
6.544723999999999,3.8925298370659474,0.18574412867556678
6.547063999999999,4.067875910370981,0.18340277680093148
6.549408,4.236288307592725,0.18103204659597721
6.551751999999999,4.396044467238481,0.17879369080285978
6.554099999999998,4.537925281509086,0.1770231335489543
6.556439999999999,4.6652361037630685,0.17563717518123484
6.558783999999999,4.776626459560072,0.17460153080955298
6.561124,4.8761005503929296,0.17370432216703635
6.563471999999999,4.972737714433949,0.17259774483157353
6.565816,5.057458613510822,0.17164542358798252
6.568155999999998,5.1294718516906315,0.17082500830130123
6.570499999999999,5.189940911958633,0.17013772736901098
6.572839999999999,5.241799060621021,0.1694741182356126
6.575187999999999,5.284487219170357,0.16890149382050273
6.577532,5.320938653912832,0.16832448992863921
6.579875999999999,5.347101941527374,0.1679111031520177
6.582215999999999,5.363441716864933,0.16771223878213373
6.58456,5.377919161082937,0.16755779997399212
6.5869,5.389742878248465,0.16746071655307374
6.589243999999999,5.400635429854215,0.16738456441513322
6.591591999999999,5.4104570462733275,0.16734153606456142
6.59394,5.422001224185135,0.16726887542979166
6.596283999999999,5.431962610231108,0.16721776484309936
6.598628,5.440713291463581,0.16720989165760217
6.600971999999999,5.455889583815885,0.1670207615357768
6.603311999999999,5.470414249862132,0.1668308481581803
6.605651999999999,5.488151721468294,0.16654940433843224
6.607999999999999,5.511104099380789,0.16613344573297725
6.610347999999998,5.534056477293283,0.1657292957822148
6.612687999999999,5.557148624832638,0.16531741756108964
6.615031999999999,5.5838256649842455,0.16484234145016363
6.617379999999999,5.613575741068908,0.1642946426331818
6.619724,5.647749327526985,0.16363103421621197
6.622071999999999,5.679269186932587,0.16301456723510327
6.624412,5.708786945591774,0.1624494411048147
6.626759999999999,5.740306804997376,0.16184233271397047
6.629107999999999,5.7759706355226745,0.16113480509300274
6.631452,5.8151268108616065,0.16033504918762811
6.633799999999999,5.849347619147927,0.1596410570957614
6.636144,5.884639362620886,0.15892073231316045
6.638483999999998,5.921002041280484,0.1581803112494502
6.640827999999999,5.956852863260883,0.15743628216841585
6.643172,5.99363485080106,0.1566829981516631
6.645503999999999,6.026831945728985,0.1559906514354672
6.647848,6.058166709537354,0.15534472177240002
6.650195999999999,6.087778911853027,0.15472044384609487
6.652536,6.114085760810167,0.15413684812671102
6.654879999999999,6.13294328528908,0.15369299429212782
6.657223999999999,6.145422420476404,0.15335903102815954
6.659564,6.156318763797893,0.153040433019123
6.661907999999999,6.167774185626822,0.15269016610164673
6.664251999999999,6.175784484470358,0.15238880258165916
6.666592,6.178719646634423,0.15219759455400383
6.668935999999999,6.183005283238845,0.1519629046904055
6.671279999999999,6.183706027231017,0.15178214414365196
6.6736239999999984,6.181613274543852,0.15165018187436868
6.675972,6.177286103684793,0.15153007380180383
6.678315999999999,6.169094500959761,0.15148182359112985
6.680663999999998,6.165978034914201,0.15132807899091355
6.683012,6.163001338495501,0.1511656481072064
6.685355999999999,6.158162310957246,0.15103453255921329
6.687695999999999,6.15211257860549,0.15093665731274228
6.69004,6.144060745507319,0.1508782023080011
6.692383999999999,6.13973357464826,0.15075845355993664
6.6947199999999984,6.134987094908621,0.15066521997866703
6.697068,6.132894342221455,0.1505352725665107
6.699415999999999,6.134386482146543,0.15035370240996818
6.701759999999998,6.1416053850571615,0.15007309658299398
6.704103999999999,6.153480115766671,0.14971676609311388
6.706451999999999,6.167868803901797,0.14933427972675792
6.708799999999998,6.176111420170809,0.1490774626006471
6.711139999999999,6.1891496338655765,0.14874066648150006
6.713483999999999,6.205260883493398,0.1483436558817324
6.715831999999999,6.221604450546696,0.1479766993072689
6.718176,6.24646827726486,0.14747168732065358
6.720519999999999,6.27319443510258,0.1469384257453275
6.722867999999998,6.29950128405972,0.14643352320392528
6.725204,6.326879068203498,0.1459083381116404
6.727539999999999,6.353744995668077,0.14537826096304643
6.729883999999998,6.3796797575728785,0.14486463576601194
6.732235999999999,6.404683353917902,0.1443647430401818
6.734575999999999,6.432759986195982,0.14381061234843107
6.736915999999999,6.46218709291442,0.14322005925834827
6.739272,6.492033508513439,0.1426128137971345
6.741607999999999,6.521228297806399,0.1420049981597927
6.743948,6.550702626353081,0.14138449902733968
6.746291999999999,6.579385558966845,0.140775073016812
6.748635999999999,6.605135225274412,0.14021921332802206
6.750971999999999,6.630233265275923,0.13966568421380227
6.753316,6.654679678971373,0.1391134631444771
6.755667999999998,6.683270063786519,0.13848301851341882
6.758011999999999,6.706785311922193,0.13794646576538508
6.760356,6.724294257818617,0.13750904066449848
6.762695999999998,6.742362282222481,0.13704126286476725
6.765044,6.754703543640816,0.13666160280723627
6.767384,6.764391078006676,0.1363114155066045
6.769727999999999,6.771145346066339,0.13600523169888082
6.772067999999999,6.77403518226003,0.1357569059180134
6.774407999999999,6.7745036088267225,0.13556618123712555
6.776751999999998,6.776042970580054,0.135355376414007
6.779095999999999,6.782657469012857,0.13506041440860342
6.78144,6.781543103713714,0.1348794558616681
6.783783999999999,6.780149199160851,0.13471491766588012
6.786131999999999,6.777125280913908,0.1346025266405596
6.788471999999999,6.7718197226668275,0.13453791372264554
6.790816,6.766514164419748,0.13447309468335128
6.793159999999999,6.757995800612752,0.13446798021457232
6.795503999999999,6.747335566432478,0.1345031845687466
6.797839999999999,6.731600195572733,0.13462340896851283
6.800179999999999,6.715864824712988,0.13474189095825886
6.802527999999999,6.701852015345938,0.13484204144739712
6.804872,6.689841306725307,0.1349104394132302
6.807212,6.6859787707172025,0.1348447026359736
6.809559999999999,6.6842581050823755,0.13474015996476557
6.811903999999998,6.685982562432942,0.13460507241580438
6.814247999999999,6.696087509821513,0.13436907152045435
6.816583999999999,6.710708515382116,0.13408305863918632
6.818931999999998,6.731847679861166,0.1337185722048761
6.821271999999999,6.754849175459773,0.13333133196372482
6.823616,6.775848570311962,0.13297541188269418
6.825959999999999,6.790562123671182,0.13272741311451292
6.828303999999999,6.8127250015086265,0.1323879710328499
6.830647999999998,6.833816944159433,0.1320685309983717
6.832987999999999,6.854397030131043,0.13173856987482394
6.835339999999999,6.880052252782123,0.1313310441401245
6.837691999999999,6.907430036925903,0.13091388312074428
6.840027999999998,6.938812022562513,0.13043747666595693
6.842371999999999,6.976340080065237,0.12986822683221763
6.844719999999999,7.023179793165744,0.12919193993800326
6.847059999999999,7.069600197385668,0.12854199184234
6.849399999999999,7.11215616973962,0.12794663500421502
6.851743999999998,7.152710041347154,0.12738091017584874
6.854092,7.187769467394637,0.1269180899226437
6.856427999999999,7.218265613441843,0.12654485588934733
6.858771999999998,7.248249902809852,0.12616520952276405
6.8611239999999984,7.268363458072638,0.12592104205049875
6.86346,7.2887565525891445,0.1256648928789103
6.865803999999999,7.305285215239676,0.1254587553263383
6.868148,7.324886913823263,0.12521162018434284
6.870491999999999,7.345931634645827,0.12496568326223492
6.872824,7.371911722521003,0.1246567372281394
6.875167999999999,7.3960294792766215,0.12437033749180967
6.877519999999999,7.422149336778659,0.12405910246988973
6.879864,7.448920820586752,0.12375351284880212
6.882207999999999,7.476623469954625,0.12344474614601493
6.884547999999999,7.5001821482028035,0.12319557661363009
6.886899999999999,7.522530121637484,0.12297129911304501
6.889235999999999,7.541805059139108,0.12279194649968377
6.891579999999999,7.553630672162506,0.12268722532290678
6.893932,7.566806759626262,0.12255425597476968
6.896279999999999,7.580262386343739,0.12240746289365484
6.898624,7.5966512793674115,0.12222737549616886
6.900967999999999,7.619326013884056,0.12196211198111818
6.903319999999999,7.643211453214197,0.12167338386078783
6.905655999999999,7.66616572698456,0.12139645843588139
6.908007999999999,7.695405842247894,0.12103322419575288
6.910355999999998,7.721852460831895,0.12069792425538468
6.912699999999999,7.745365813109699,0.12039358917305992
6.915047999999999,7.766737295014227,0.12012431387232336
6.917392,7.79174089135925,0.11979304750103498
6.919744,7.812740286211439,0.11951056901424778
6.922096,7.832808515503851,0.11923722205062882
6.924439999999999,7.851154183303567,0.11897609165715736
6.926787999999998,7.869639620730143,0.11870969271663565
6.929119999999999,7.8819789862906084,0.1185205519204091
6.931467999999999,7.892595790358376,0.11834005957148575
6.933824,7.905773773680002,0.1181121453680666
6.936176,7.915878721068572,0.11792199585925557
6.938519999999999,7.928777165136478,0.11770621904454988
6.940864,7.938323034017607,0.117541950680318
6.943204,7.951174256257269,0.1173642892757409
6.945547999999999,7.961092212190735,0.117218544427526
6.947887999999999,7.965003865884952,0.11714273544293904
6.950232,7.969055289206029,0.1170605797251882
6.952575999999999,7.972315316594188,0.11698057338085337
6.954915999999999,7.970360437676016,0.11696675560013414
6.95726,7.973201156183593,0.11690642877211066
6.959603999999999,7.983119112117061,0.11676506622072859
6.961939999999999,7.988521009878496,0.11665724342900384
6.964283999999999,7.987637066146962,0.1166290598546253
6.966624,7.99196802872176,0.11653656327136834
6.968971999999999,7.999651566483332,0.11639645492540339
6.971316,8.007055564991184,0.1162689652948812
6.973655999999998,8.013248858685538,0.11616187195363392
6.975999999999999,8.021863562006889,0.1160139137937376
6.978344,8.036903876448072,0.11578245365944122
6.980692,8.04793998939642,0.1155958047575984
6.983032,8.060838433464326,0.11539284677855319
6.985375999999999,8.077089452719008,0.11514471770691796
6.98772,8.09403932010799,0.11486495766151764
6.990063999999999,8.104610798205384,0.11463190942185653
6.9924,8.11997787372853,0.1143559611053942
6.994736,8.137486819624954,0.11405285549358844
6.997083999999999,8.156206470334876,0.11373116830384597
6.999435999999999,8.173296107350719,0.113447445405567
7.001779999999998,8.192527614739838,0.11313526452902767
7.004123999999999,8.206963524703207,0.11286889766375491
7.006468,8.217395233173741,0.11264662044280072
7.008804,8.231411834256528,0.11240022160885978
7.011144,8.247570305712593,0.11212584945162955
7.013491999999999,8.258653640489184,0.1119085069823938
7.015832,8.265593004146083,0.11173982658674253
7.018175999999999,8.271461432616343,0.11158420613559226
7.020519999999999,8.276678234780544,0.11142351897564418
7.022863999999998,8.283757368064302,0.11124901736133178
7.025203999999999,8.2899978835869,0.11111241063132435
7.027543999999999,8.29889212616197,0.1109609110862722
7.029888,8.309276612804261,0.11077885200402242
7.032235999999999,8.313375257953581,0.11066954105701626
7.034571999999999,8.318916925341878,0.11056425154345823
7.036916,8.333258391648759,0.11037892985266762
7.039259999999999,8.345225670156886,0.11019872615329986
7.041607999999998,8.356122013478373,0.1100318339054239
7.043944,8.366599047919284,0.1098833584953955
7.046287999999999,8.379497491987188,0.10969797118585833
7.048635999999998,8.394398036801508,0.10949432816943806
7.050975999999999,8.408087876802332,0.109308111221934
7.053319999999999,8.423640047922714,0.10910937964965285
7.055675999999998,8.437609427177259,0.10891262176881605
7.058015999999999,8.45292928087216,0.10869274852526009
7.060364,8.471322170500121,0.10844209296259996
7.062707999999999,8.492508556807415,0.10817245376430723
7.065052,8.515045417555067,0.1078785430985704
7.067395999999999,8.537722047929579,0.1075784312545986
7.069735999999999,8.558536347184535,0.10729321666562701
7.072083999999999,8.5753936667749,0.10701263927814138
7.074423999999999,8.591459590432347,0.1067345211777783
7.076768,8.606454578903154,0.1064696992227039
7.079111999999999,8.625873077747379,0.10615124311671527
7.081448,8.645710885472182,0.10581718579391744
7.083784,8.658750995024818,0.10554041689855433
7.086127999999999,8.668578299017536,0.10529956064632572
7.088479999999999,8.677194898196756,0.10507595389708367
7.090815999999999,8.687161971816337,0.10483041426781288
7.093159999999999,8.694335548756582,0.10460339534157595
7.095503999999998,8.700857499390766,0.10437258060270492
7.09784,8.713805061144784,0.10407300132026988
7.100183999999999,8.723307499913412,0.10378670572587204
7.102528,8.734672269801594,0.10348892270890256
7.104871999999999,8.744407025995695,0.10322568292862554
7.107211999999999,8.750137580696963,0.10299741660676326
7.109556,8.754145573905536,0.10277610085057158
7.111899999999999,8.761226603047163,0.10252754910412737
7.114248,8.772172064054763,0.10225162960833482
7.116591999999999,8.783908920995284,0.10197619548148834
7.118939999999999,8.798019965734557,0.10170039859501004
7.121291999999999,8.811060075287191,0.1014364924688701
7.123631999999999,8.8279646167058,0.10114692705796807
7.125976,8.841516582937633,0.10089664511312538
7.128319999999999,8.854928779542606,0.10065306082216827
7.130659999999999,8.871414012080633,0.10038244107201742
7.132995999999999,8.890972280551717,0.10008486153166536
7.135344,8.914162663463296,0.09973978056737949
7.137687999999999,8.937492816001736,0.09939267839738183
7.140032,8.965478796339067,0.0990203686263893
7.142375999999999,8.991974532609179,0.09867608387174875
7.14472,9.018330499252428,0.0983429564284595
7.14706,9.046269257761518,0.0980099813847132
7.149395999999999,9.075278951457243,0.09766925591126333
7.151748,9.107780989966605,0.09728956118961676
7.154095999999999,9.142424898849248,0.09688871131105474
7.156435999999999,9.17506670698547,0.09650273316972971
7.158779999999998,9.208360141427749,0.09612765185692848
7.161128,9.238580539936976,0.09578011440082683
7.163471999999999,9.26386557139359,0.09546581279972745
7.165816,9.292083869156398,0.09513473455754225
7.168159999999999,9.321373102105845,0.09479483027343875
7.170511999999999,9.346658133562459,0.09448684570463739
7.172856,9.378089236885184,0.09413302741129294
7.175196,9.40872894427499,0.09378040001836499
7.177548,9.439228882037934,0.09343490437614455
7.179879999999999,9.469169741293438,0.09311093896198154
7.182219999999999,9.497620356481725,0.09281410895469536
7.184564,9.522718396483235,0.09255181426642593
7.186903999999998,9.547816436484746,0.0922924337565334
7.189243999999999,9.576127282046171,0.09200684547303019
7.191583999999999,9.597081350927988,0.09178179491292757
7.19394,9.619106354996443,0.09154827717994031
7.19628,9.640991589438036,0.0913216648344741
7.198619999999998,9.658593083133075,0.09113247733421838
7.200963999999999,9.675123641641477,0.09095242534084402
7.203303999999999,9.697660502389128,0.09073402330963261
