Time,Force,Position
5.459571999999999,0.17538034548767922,0.0
5.461911999999999,0.1887559177807059,0.0
5.464256,0.20320242526037113,0.0
5.466599999999999,0.21395899895499956,0.0
5.468939999999999,0.2245758030227678,0.0
5.471279999999999,0.2323991104112011,0.0
5.473624,0.24087404410569227,0.0
5.475963999999999,0.2530736400392967,0.0
5.478303999999999,0.26299159597276395,0.0
5.480643999999999,0.26890535041339747,0.0
5.482988,0.27146652966725515,0.0
5.48534,0.2718858385478358,0.0
5.487683999999999,0.2713739818686381,0.0
5.490031999999999,0.2715137514954983,0.0
5.492375999999999,0.26243441332319234,0.0
5.49472,0.2509336655238889,0.0
5.497063999999999,0.23263521955241687,0.0
5.499408,0.21753708576669373,0.0
5.501744,0.2004368512345538,0.0
5.504084,0.18706127894152708,0.0
5.506431999999999,0.17182337552894372,0.0
5.508784,0.15844780323591706,0.0
5.511127999999999,0.14400129575625184,0.0
5.513471999999999,0.13062572346322515,0.0
5.515816,0.118321086356837,0.0
5.518168,0.1048057444369501,0.0
5.520519999999999,0.09129040251706318,0.0
5.522863999999999,0.07684389503739796,0.0
5.525211999999999,0.0645392579310098,0.0
5.527544,0.05316578638439996,0.0
5.529887999999999,0.04300301965128886,0.0
5.532244,0.03298002254503797,0.0
5.534591999999999,0.021886090252148542,0.0
5.536931999999999,0.010931927586119333,0.0
5.539272,0.005192671226422564,0.0
5.541619999999999,0.0006641196802245358,0.0
5.543955999999999,0.0,0.0
5.546295999999999,0.0,0.0
5.548652,0.0,0.0
5.550992,0.0,0.0
5.553335999999999,0.0007113415084676858,0.0
5.55568,0.003704323017072643,0.0
5.558027999999999,0.00855963564523424,0.0
5.560363999999999,0.015836357900393325,0.0
5.562708,0.022181914595774083,0.0
5.565048,0.029458636850933168,0.0
5.5673879999999984,0.03673535910609225,0.0
5.569731999999999,0.04387231173439112,0.0
5.572076,0.05100926436268999,0.0
5.574415999999999,0.05893761292390696,0.0
5.576767999999999,0.06937991891073848,0.0
5.579116,0.08596829676368077,0.0
5.581459999999999,0.10362760980326159,0.0
5.583804,0.12114715321598218,0.0
5.586147999999999,0.13652482625542575,0.0
5.588487999999999,0.15255412560092718,0.0
5.590827999999999,0.1685834249464286,0.0
5.593163999999999,0.18447295466506985,0.0
5.595511999999999,0.19877969251787486,0.0
5.597863999999999,0.211735955930321,0.0
5.600207999999999,0.2211873811549644,0.0
5.602552,0.2312904326856657,0.0
5.604891999999999,0.2359462604845573,0.0
5.607235999999999,0.23897207458936953,0.0
5.609579999999999,0.2438602198137384,0.0
5.611928,0.24488393317213372,0.0
5.614271999999999,0.2507032439562809,0.0
5.616616,0.2538688276879534,0.0
5.618956,0.26075907365873907,0.0
5.621299999999999,0.26406442701727173,0.0
5.623651999999999,0.2622020958977151,0.0
5.625991999999999,0.2521915921656308,0.0
5.628336,0.23896828287363098,0.0
5.630684,0.22695567839512987,0.0
5.633019999999999,0.217224713916766,0.0
5.635364,0.20819259757270328,0.0
5.637719999999999,0.20023141641527903,0.0
5.640059999999999,0.1914788393249367,0.0
5.642399999999999,0.18603161559312698,0.0
5.644744,0.18314557111517493,0.0
5.647083999999999,0.1849153544361145,0.0
5.64942,0.18147023145072164,0.0
5.651768,0.1814702314507217,0.0
5.654123999999999,0.1814702314507217,0.0
5.656463999999999,0.18161000107758188,0.0
5.658808,0.18547443294355534,0.0
5.661151999999999,0.18254116663736017,0.0
5.663503999999999,0.1814702314507216,0.0
5.665855999999999,0.17802510846532876,0.0
5.668203999999999,0.17816487809218898,0.0
5.670547999999999,0.18174977070444204,0.0
5.672892,0.1882679296228903,0.0
5.675235999999999,0.1987902900341722,0.0
5.677575999999999,0.20824171525881563,0.0
5.679927999999999,0.21634266604310015,0.0
5.682263999999999,0.22002010645397027,0.0
5.684611999999999,0.22341800761112,0.0
5.686963999999999,0.22988894470132507,0.0
5.689308,0.2355684858586121,0.0
5.691651999999999,0.24017709182926056,0.0
5.693995999999999,0.24292336668035236,0.0
5.696343999999999,0.24902221671821997,0.0
5.698688,0.2561920019427261,0.0
5.701028,0.2576350241817021,0.0
5.703376,0.2590780464206781,0.0
5.705711999999999,0.25772757198031915,0.0
5.708056,0.2574480327265988,0.0
5.710408,0.2602415294059337,0.0
5.712744,0.25954268127163266,0.0
5.715084,0.2571212716446352,0.0
5.717427999999999,0.2540482357115798,0.0
5.719775999999999,0.24790216384546906,0.0
5.722115999999999,0.23989376085980166,0.0
5.72446,0.2297434875008572,0.0
5.726815999999999,0.2217350845151898,0.0
5.729152,0.2206641493285513,0.0
5.731495999999999,0.21973298376877295,0.0
5.733835999999999,0.21652017820885733,0.0
5.736187999999999,0.2114450415293851,0.0
5.738523999999999,0.20609036559619245,0.0
5.740868,0.20473989115583346,0.0
5.74322,0.20217871190197573,0.0
5.7455599999999984,0.2022712597005928,0.0
5.747903999999999,0.20860242716393768,0.0
5.750248,0.21102194093306595,0.0
5.7526,0.21753820399364493,0.0
5.754943999999999,0.22600934597239764,0.0
5.757291999999999,0.235736518735023,0.0
5.759643999999999,0.24979275821457633,0.0
5.761988,0.26948131702317357,0.0
5.764331999999999,0.2934044988922125,0.0
5.766676,0.3257988227400041,0.0
5.769016,0.3655461315516668,0.008434885841599635
5.771359999999999,0.41753457055156934,0.01727175924137509
5.773708,0.48320716197868785,0.02599293055598537
5.776047999999999,0.5597704091536873,0.03460386077876326
5.778403999999999,0.6508564265170638,0.04299403144115761
5.780743999999999,0.7532524085089018,0.05151561353871073
5.783087999999999,0.8745474492342884,0.05978972090717725
5.785424,1.0087352464539727,0.06813981964495082
5.787764,1.1455729790103932,0.07675699310971988
5.790112,1.2940474372772388,0.0853238105037191
5.792459999999999,1.4498748805079555,0.09391416526157743
5.794795999999999,1.6190616109417937,0.1024016749567041
5.79714,1.806822534885086,0.11075954501458002
5.799487999999999,2.006499723792524,0.11904343392288712
5.801823999999999,2.2174415513580494,0.12729712997675935
5.804168,2.43606312496941,0.13557006744273417
5.806511999999999,2.6669277246268788,0.14375093597570737
5.808856,2.905426744359809,0.15185604866085237
5.811191999999999,3.148908352973594,0.1598641242006312
5.813536,3.390529526325692,0.1678411665748293
5.815884,3.627823528818731,0.16735986606686498
5.818219999999999,3.8590224729896403,0.16638514169403307
5.820564,4.071229810628385,0.16559601846606553
5.822903999999999,4.262443440988546,0.16502686553751564
5.825252,4.43284845966736,0.16482713349625475
5.827588,4.592455370396911,0.16451809094171313
5.829931999999999,4.73353530944525,0.16449855637720218
5.83228,4.866146002372706,0.1642825646073001
5.834611999999999,4.9936853503364285,0.16378152502040702
5.836956,5.109540750761482,0.16339361308545813
5.839299999999999,5.215901295849388,0.16297424060054905
5.841648,5.310672337055112,0.16258031772462708
5.843984,5.387987341766263,0.16234374301919327
5.846327999999999,5.450220497781596,0.16221041846252063
5.848684,5.502539489579201,0.1620805626691349
5.851024,5.544572230106739,0.16192265728616248
5.853367999999999,5.572174748244517,0.16185682083619166
5.855712,5.587441692537569,0.16186674023404904
5.858055999999999,5.597308634927055,0.16193038615969477
5.860392,5.6078744254508415,0.16194552624903957
5.862731999999999,5.618859524855208,0.16193264564658108
5.865071999999999,5.629844624259575,0.1619232970911511
5.867411999999999,5.649070444075086,0.16176769559550025
5.869756,5.67811977616758,0.1614461135456369
5.872096,5.71517751124574,0.1609367880563422
5.874448,5.755075964831478,0.1603313771491571
5.876779999999999,5.789946503565988,0.15977882112016595
5.87912,5.817180726367168,0.159432298355837
5.881463999999999,5.845206345101266,0.15908195133072067
5.883803999999999,5.878726409395416,0.15859038180248275
5.886148,5.9106636818237295,0.1581156874470171
5.888491999999999,5.939527918318988,0.15771838854529602
5.890831999999999,5.972768443359417,0.15725505834469733
5.893168,6.006008968399847,0.1567870267029161
5.895511999999999,6.035292513775686,0.15635947435991326
5.897851999999999,6.061550245046713,0.15595259732537423
5.900204,6.087016580384822,0.1555527313515494
5.902547999999999,6.110201275722795,0.15521262946590686
5.904891999999999,6.127287121022899,0.1549672613988866
5.907239999999999,6.140415986658413,0.15476644307144383
5.909575999999999,6.151310434122031,0.15458239020464606
5.911924,6.157129744906179,0.15451177505567848
5.914267999999999,6.1620178901305485,0.15445955128788416
5.916612,6.166394178675719,0.1543977652472529
5.918955999999999,6.167884422742938,0.1543460913161626
5.9213,6.163508134197767,0.15440684950963698
5.923647999999999,6.165929543824765,0.15433885695681657
5.925987999999999,6.172122837519119,0.15415839623009497
5.928335999999999,6.175430086735521,0.15398851955026635
5.93068,6.1687740540480815,0.15397660015093945
5.93302,6.1622577909875025,0.15395572876494137
5.935363999999999,6.158674794233119,0.1538778352381907
5.937755999999999,6.1525778400531195,0.15382924357705566
5.940151999999999,6.149553921806176,0.15371576389352695
5.942555999999999,6.146110694678653,0.15362884946675176
5.94494,6.145693281655941,0.1535233189671852
5.947335999999999,6.14541563826009,0.15340851364678765
5.949732,6.146628238931458,0.15324070167488416
5.95212,6.150402018856683,0.15299439872756926
5.954515999999999,6.151754389154911,0.1528169452051686
5.956919999999999,6.151756285012783,0.15268326948586075
5.959303999999999,6.155762382363485,0.15246781146394184
5.9617,6.157626609340911,0.15230370545129707
5.964095999999999,6.1582801315048386,0.1521745471791657
5.966483999999999,6.161819698146718,0.15203751576481125
5.968868,6.1721569629607655,0.15177643773701097
5.971263999999999,6.184356558894369,0.1514885998144261
5.973648,6.196928241880311,0.15122185100033964
5.976031999999999,6.21094294710523,0.1509520697705492
5.978435999999999,6.231895120129177,0.15054937335605104
5.980819999999999,6.254057997966621,0.15011608533700652
5.983204,6.268212472818399,0.14983536796919275
5.985599999999999,6.285160444349512,0.14951270681573953
5.987984,6.29917514957443,0.14924443890451952
5.990363999999999,6.319335926665458,0.1488551206219656
5.992767999999999,6.342569739689543,0.14841017000415882
5.995155999999999,6.367386344579463,0.1479541502960876
5.997535999999999,6.394205050215801,0.14746189637888527
5.999931999999999,6.4207442165984165,0.1469886112184983
6.00232,6.448773627048253,0.14646528819311683
6.004699999999999,6.476151411192031,0.1459379102075767
6.007096,6.495800331603863,0.14554159020929197
6.009484,6.5120041290303,0.14518447927558892
6.011864,6.523272559404126,0.1449166535509137
6.014271999999999,6.534960298658533,0.14462725164136953
6.0166559999999984,6.542364297166386,0.14443178702961054
6.019035999999999,6.547766194927821,0.14427491280045723
6.021432,6.550654135263643,0.14414295536785818
6.02382,6.552750679666546,0.14401688988949007
6.026215999999999,6.552845123323031,0.14392754723386936
6.028612,6.550937466233102,0.1438741658885638
6.031,6.557457521009419,0.1436513414874293
6.03338,6.561323848733262,0.1434630127242789
6.03578,6.567332046830382,0.14323093271745171
6.038168,6.571198374554224,0.14304520675146964
6.040547999999999,6.570548644106037,0.14291863794468687
6.042943999999999,6.570038683284706,0.14278429460348377
6.045331999999999,6.571670592836656,0.14260892213234067
6.047715999999999,6.576375538321661,0.1423804244219219
6.050112,6.580940714179804,0.1421602189372665
6.052499999999999,6.590441257090561,0.14186304145329023
6.05488,6.607670663733262,0.14144780340180507
6.057275999999999,6.629695667801718,0.14096138387131504
6.059663999999999,6.655073247056948,0.1404013342292004
6.062043999999999,6.6753756896327054,0.13993050270282073
6.064443999999999,6.6959576714621845,0.1394436802733602
6.066828,6.716679422918523,0.1389520494683014
6.069211999999999,6.742336541427473,0.13838443468549153
6.071607999999999,6.768133429563286,0.13781014637353806
6.073996,6.792719612885597,0.1372637913229907
6.076375999999999,6.820239062514106,0.13667467675549325
6.078775999999999,6.845476872142476,0.13614093186830656
6.08116,6.8672223369572105,0.13567957070502107
6.083559999999999,6.890690363264641,0.13520686810462187
6.085955999999999,6.914298159198932,0.13473170785011843
6.088343999999998,6.93841781181242,0.13426716845423634
6.090723999999999,6.963608399612547,0.13378728600066694
6.09312,6.988239908905233,0.13334583565254868
6.095508,7.008867216705085,0.13296895362924022
6.097887999999998,7.033638495624632,0.13252908564804683
6.100291999999999,7.055476508237982,0.13213657637249637
6.102679999999999,7.075452189731777,0.13176999084081345
6.105059999999999,7.097150432718268,0.13139472469210103
6.107456,7.119779841264538,0.1310107657474828
6.109847999999999,7.147344616863419,0.13055977154095025
6.112227999999999,7.177563119514776,0.13008761555731319
6.114624,7.2053602125391345,0.12966562897101724
6.117012,7.229944500003578,0.12930052120274288
6.119391999999999,7.256251348960718,0.128924444096254
6.121788,7.288424730530247,0.12847668607862056
6.124175999999999,7.316593910606944,0.1280848821842986
6.126556,7.343831925123861,0.1277048315367011
6.128951999999999,7.377495550760608,0.12722103986152755
6.131339999999999,7.408225910091163,0.12677826808929518
6.133719999999999,7.435743463861803,0.12638818270912663
6.136119999999999,7.465542657632577,0.12595908309611398
6.138507999999999,7.4930602114032165,0.12557310701308885
6.140904,7.517644498867659,0.12522588266634999
6.143299999999999,7.545813678944355,0.12484824396301021
6.145684,7.5675572479012185,0.12457281149679904
6.148067999999999,7.588881507977504,0.12431957338896443
6.150463999999999,7.611276703240426,0.12405240535619026
6.152851999999998,7.6288763010775975,0.12384145681180797
6.155231999999999,7.6494091652209635,0.1235992111306498
6.157635999999999,7.667288302311856,0.12338013669392614
6.160023999999999,7.680511611603855,0.12320738738698991
6.162404,7.6980186616424096,0.12297209587977445
6.164799999999999,7.718458977987159,0.12270463822393675
6.167191999999999,7.740761625451464,0.122423144754165
6.169572,7.75719774030338,0.12221042462251286
6.171971999999999,7.779640157394546,0.12192709836349033
6.174359999999999,7.80287397041863,0.12164240968303835
6.17674,7.823965913069438,0.12139118917835885
6.179132,7.8481308916533,0.12110354406072657
6.181515999999999,7.875229136543358,0.12078428429026701
6.183911999999999,7.901396215873636,0.12047652398175404
6.186303999999999,7.9318470359504705,0.12011305603965529
6.188691999999999,7.961506460094386,0.11975051594039192
6.191067999999999,7.988512157185826,0.11940896861099495
6.193464,8.01966182539696,0.11901490009882636
6.195847999999999,8.050951263234955,0.11861573406676598
6.198244,8.081309535513173,0.11822834675490022
6.200639999999999,8.113809678164666,0.1178126369920365
6.203024,8.140815375256105,0.1174774956375763
6.205403999999999,8.166610367534048,0.1171628760671069
6.2078,8.195478395745043,0.1168112907699217
6.210188,8.223275488769401,0.11647820606762904
6.212583999999999,8.248279085114424,0.11617132971925845
6.21498,8.267416148847058,0.11592516311722664
6.217363999999999,8.285482277393054,0.11569153282892719
6.219744,8.300195830752273,0.11550849942765797
6.222139999999999,8.31612008892499,0.11530679291151076
6.224527999999999,8.328319684858595,0.11513565076284663
6.226907999999999,8.33479251780667,0.11501734702258674
6.229307999999999,8.33861162370227,0.11491627217707595
6.231692,8.340288859224591,0.11484287740669964
6.234071999999999,8.334237231014967,0.11484295458883449
6.236479999999999,8.327394206872423,0.1148447143508793
6.238863999999999,8.319620017170102,0.1148541273565699
6.241243999999999,8.307329769295752,0.1148957260428254
6.243647999999999,8.293736268809281,0.11492771325066288
6.246035999999999,8.276278336456842,0.11499650164737933
6.248416,8.258029008171484,0.11506582303964934
6.250811999999999,8.239687132087505,0.11510666205082212
6.253199999999999,8.221624795257249,0.11513532745626372
6.255579999999999,8.204773163240493,0.11514273281009195
6.257975999999998,8.183265703424844,0.1151879230871757
6.260364,8.161898013236055,0.11522648634156718
6.262759999999999,8.141880797487625,0.11523958116841075
6.265164,8.125216156925969,0.11520520603104514
6.267547999999999,8.105106393378923,0.11518924039164091
6.269927999999999,8.080201032406123,0.11521727458501418
6.272323999999999,8.059020333672438,0.11521488852669413
6.274708,8.043845937178002,0.11514763216403547
6.277091999999999,8.030953180683703,0.11504629410457862
6.279491999999999,8.0209936904956,0.1149161602895912
6.28188,8.016621193666168,0.11474056548204119
6.284256,8.017044294262488,0.11452148322141023
6.286659999999999,8.01998135228442,0.1142924681938873
6.289047999999998,8.032230065904137,0.11399095086250711
6.291427999999999,8.04592180176283,0.11369368957880104
6.293831999999999,8.065340300607053,0.11334679190292316
6.296219999999999,8.08219762019742,0.11304416172095776
6.2986,8.102500062773178,0.11272509293354133
6.300995999999999,8.12652716758805,0.11237884292350686
6.303383999999999,8.149064028335701,0.11206665328569991
6.305759999999999,8.177327652068886,0.11170606931575129
6.308167999999999,8.204240801361708,0.11137038744639093
6.310551999999999,8.232876512147229,0.11102717942169887
6.312931999999999,8.264305719612084,0.11066759877241751
6.315335999999999,8.304674495622383,0.11022533359540083
6.317723999999999,8.349838869058436,0.10974253440920828
6.320104,8.397145112867765,0.1092393603952715
6.322499999999999,8.441238551117179,0.1087791400746199
6.324887999999999,8.483190118993313,0.1083464527500718
6.327267999999999,8.521696563884058,0.1079303132957521
6.329663999999998,8.558620216908967,0.10751864084622481
6.332052,8.590748272508124,0.10714746849684524
6.334435999999999,8.623714945868441,0.10674533317227573
6.336835999999999,8.647369963630974,0.10641119533616125
6.339223999999999,8.670233585460592,0.1060788734521968
6.341603999999999,8.691095106543788,0.10576753980050363
6.344008,8.714517806880846,0.10541428124329459
6.346391999999999,8.735286780165428,0.10507534066356627
6.348771999999999,8.750328990464478,0.10478013142963714
6.351176,8.763928178524555,0.10448077175931221
6.353559999999999,8.77287153878574,0.10421325379018948
6.35594,8.7863781790472,0.10388852734308514
6.358335999999999,8.799233193002598,0.10355963350426571
6.360723999999999,8.808363544718887,0.10325725295780808
6.363103999999999,8.806412457516451,0.10305442780563215
6.365507999999999,8.80217973031388,0.1028804961254268
6.367895999999999,8.794082571245335,0.10273578264385384
6.370276,8.783052145870593,0.10261391021691973
6.37268,8.775746382734967,0.10246866724721525
6.375063999999999,8.772305051465311,0.10229465305872487
6.377444,8.76672184982238,0.1021429301364484
6.379839999999999,8.767284720045561,0.10193514727185708
6.382224,8.764634784708823,0.10176123251101914
6.384607999999999,8.767711612357616,0.10154820651334966
6.387004,8.768646569633134,0.10135701685710316
6.389387999999999,8.76986106616237,0.10115546052053738
6.391783999999999,8.773077663438023,0.10093816564780286
6.39418,8.780298462206511,0.10068907170440977
6.396567999999999,8.794456728774028,0.1003866407813712
6.398948,8.811408492020881,0.10006932033492888
6.401352,8.83408701825326,0.09971637179732044
6.403735999999999,8.85141086855245,0.09941798488124438
6.406116,8.866732618105221,0.09913538922586511
6.408523999999999,8.87777062691144,0.09889415796639033
6.410908,8.89374400277027,0.09861382226099262
6.413287999999999,8.912558097136678,0.09828667479980933
6.415687999999999,8.93430545780928,0.09793968038585632
6.418076,8.96005701997472,0.09756024713809053
6.420455999999999,8.980873215087545,0.09721874090915114
6.422847999999999,9.000338935760011,0.09690076299812764
6.425235999999999,9.024600253858228,0.09655267784538964
6.427611999999999,9.044717600836753,0.09624408172170433
6.430015999999999,9.065486574121334,0.09594093751145386
6.432403999999999,9.077967605166528,0.09570933945152658
6.434779999999999,9.095523772891195,0.0954373004891787
6.437176,9.110798300615725,0.09519162211756839
6.439559999999999,9.123651418713257,0.09497817318230961
6.441955999999999,9.133291731250871,0.09479659279633225
6.444356,9.138648303041935,0.09465651632038165
6.446739999999999,9.14186300445972,0.09453697176449623
