Time,Force,Position
8.624839999999999,0.015381544541602604,0.0
8.627235999999998,0.021351854689327893,0.0
8.62962,0.025459833717496543,0.0
8.632015999999998,0.02863664718588687,0.0
8.634412,0.030882295094498885,0.0
8.636795999999999,0.03298817337625068,0.0
8.639175999999999,0.03416288609822416,0.0
8.641583999999998,0.03416288609822416,0.0
8.643968,0.03416288609822416,0.0
8.646348,0.03416288609822416,0.0
8.648743999999999,0.03416288609822416,0.0
8.651131999999999,0.03416288609822416,0.0
8.653512,0.03416288609822416,0.0
8.655916,0.03416288609822416,0.0
8.658299999999999,0.03219677744333257,0.0
8.66068,0.03219677744333257,0.0
8.663075999999998,0.030510208042161407,0.0
8.665463999999998,0.028683869014130028,0.0
8.667843999999999,0.025646825172599908,0.0
8.670247999999999,0.022749550957929996,0.0
8.672635999999999,0.01878134155662156,0.0
8.675016,0.012811031408896268,0.0
8.677411999999999,0.008703052380727617,0.0
8.679796,0.005526238912337288,0.0
8.682175999999998,0.003280591003725278,0.0
8.684584,0.004164534735260447,0.0
8.686967999999998,0.006259183280294357,0.0
8.689347999999999,0.009388774920441535,0.0
8.691743999999998,0.016010711374224725,0.0
8.694132,0.022632647828007914,0.0
8.696527999999999,0.03325878577462481,0.0
8.698924,0.04002049185526821,0.0
8.701308,0.05078639942874531,0.0
8.703691999999998,0.05968997588266578,0.0
8.706088,0.06952471789636457,0.0
8.708471999999999,0.08029062546984167,0.0
8.710852,0.08998559785668024,0.0
8.713256,0.09660753431046343,0.0
8.715644,0.10709390263022012,0.0
8.718024,0.11571793983042014,0.0
8.720419999999999,0.12727524333681536,0.0
8.722807999999999,0.13617881979073582,0.0
8.725188,0.14601356180443462,0.0
8.727583999999998,0.15184410232529966,0.0
8.729971999999998,0.15488114616682977,0.0
8.732363999999999,0.15189132415354278,0.0
8.73476,0.1486219628865354,0.0
8.737148,0.14596823583406066,0.0
8.739527999999998,0.1393462993802775,0.0
8.741931999999998,0.1327243629264943,0.0
8.744319999999998,0.12209822497987742,0.0
8.746699999999999,0.11533651889923403,0.0
8.749103999999999,0.10457061132575693,0.0
8.751491999999999,0.09566703487183646,0.0
8.753872,0.08583229285813769,0.0
8.756267999999999,0.07506638528466057,0.0
8.758655999999998,0.06537141289782201,0.0
8.76104,0.058749476444038815,0.0
8.763435999999999,0.04826310812428214,0.0
8.765823999999999,0.03963907092408209,0.0
8.768203999999999,0.02808176741768688,0.0
8.770599999999998,0.019178190963766415,0.0
8.772988,0.00934344895006763,0.0
8.775371999999999,0.003512908429202547,0.0
8.777767999999998,0.00047586458767242743,0.0
8.780156,0.00047586458767242743,0.0
8.782535999999999,0.00047586458767242743,0.0
8.784932,0.0,0.0
8.78732,0.0,0.0
8.789703999999999,0.0008951734682530578,0.0
8.7921,0.0039322173097831765,0.0
8.794488,0.005898325964674765,0.0
8.796867999999998,0.007724664992706143,0.0
8.799268,0.00941123439387731,0.0
8.801656,0.00941123439387731,0.0
8.804035999999998,0.01030640786213037,0.0
8.806432,0.010306407862130369,0.0
8.808819999999999,0.010306407862130369,0.0
8.811203999999998,0.01030640786213037,0.0
8.813607999999999,0.01030640786213037,0.0
8.815992,0.01030640786213037,0.0
8.818371999999998,0.01030640786213037,0.0
8.820775999999999,0.01030640786213037,0.0
8.82316,0.01030640786213037,0.0
8.825543999999999,0.01030640786213037,0.0
8.827939999999998,0.01030640786213037,0.0
8.830324,0.01106181170352322,0.0
8.832719999999998,0.011061811703523218,0.0
8.835116,0.011061811703523218,0.0
8.837504,0.010166638235270161,0.0
8.839879999999999,0.007129594393740042,0.0
8.842279999999999,0.005163485738848453,0.0
8.844664,0.009061868427980391,0.0
8.847048,0.029018591343082552,0.0
8.849443999999998,0.07193513019165856,0.012714777957110405
8.851831999999998,0.1297825183724745,0.024041846944109536
8.854211999999999,0.20700482987451121,0.034317316156627475
8.856608,0.3004252512293783,0.04418956956416323
8.858996,0.4112544872505746,0.0536623429090882
8.861391999999999,0.5411225516321796,0.06268026316133182
8.863788,0.6845822206423833,0.07158390051900966
8.866171999999999,0.8380013798406896,0.08062474771676713
8.868552,1.0086895840784647,0.08950841983287881
8.870956,1.1966468333557088,0.09826379857927078
8.873344,1.399638709500528,0.10694100299901675
8.875723999999998,1.6165942773262836,0.11559089775233788
8.87812,1.8471302200439201,0.12424211399178005
8.880503999999998,2.1001141220158326,0.1326641467845185
8.882883999999999,2.3699024341762596,0.14096096494499533
8.885288,2.6585444790998607,0.14904950851590926
8.887675999999999,2.9655756219356824,0.15689708354628507
8.890056,3.2855958607801563,0.16456817834716309
8.892451999999999,3.6102739686918905,0.17206738676854813
8.894836,3.9180097926461177,0.17954521813700203
8.897231999999999,4.200235851149731,0.17435560139864062
8.899628,4.464726333905054,0.17062824556554848
8.902012,4.714973585725718,0.1679039191763525
8.904395999999998,4.952607620305805,0.16553318109341655
8.906787999999999,5.172832840219563,0.1635619230730914
8.909175999999999,5.3706666565861365,0.16212267751472215
8.911556,5.557515373548344,0.1608063362278536
8.91396,5.739152975919956,0.15931584446275232
8.916343999999999,5.90380107250582,0.15796604274260564
8.918724,6.04852639699974,0.15677935793459147
8.921128,6.1775182464917835,0.15571251483875986
8.923516,6.2954324487808435,0.1546646806197936
8.925896,6.403806469762382,0.15353603426918852
8.928296,6.491558870517674,0.15261446656340075
8.930684,6.565300357763788,0.1517766219522362
8.933063999999998,6.621211825605122,0.1511676070650812
8.935459999999999,6.6636223407586055,0.1507577236723995
8.937847999999999,6.694114695090076,0.15050309157334738
8.940228,6.712501897144426,0.15043927026122922
8.942632,6.730562338116814,0.15043405387133624
8.94502,6.753743241739048,0.15040970420328686
8.947399999999998,6.784979770175192,0.1501992628193751
8.949796,6.808394887080773,0.15008256077780274
8.952183999999999,6.8227778876422915,0.15008898859292735
8.954564,6.839954384883146,0.15005442502176825
8.956968,6.859784609176473,0.14998230070072024
8.959356,6.881012529738404,0.1498317379625904
8.961735999999998,6.8979113835834065,0.1496946913064542
8.964139999999999,6.9163930292942455,0.14954773172561797
8.966527999999998,6.9380402587367564,0.14937604670207394
8.968907999999999,6.961969128179405,0.14915194853138353
8.971303999999998,6.982500096464903,0.14892608254654777
8.973692,6.995581740272176,0.14881136376759532
8.976071999999998,7.003448477773116,0.14879589229194942
8.978468,7.010895906393474,0.14880497188154362
8.980851999999999,7.019042183148133,0.1487745297464918
8.983248,7.01857565243931,0.14883983510449839
8.985643999999999,7.013825380983932,0.14899153798409376
8.988031999999999,7.012520232513948,0.14910456894336008
8.990416,7.017873012589273,0.14911447609376438
8.992819999999998,7.026346050425895,0.14902766860126082
8.995204,7.026531146023132,0.14909421983143048
8.997587999999999,7.032023695725315,0.14909689028981976
8.999984,7.044546261025144,0.14901519677078456
9.002367999999999,7.053064624832141,0.14900301725771864
9.004748,7.068427908639551,0.14884306884061393
9.007143999999998,7.079507451700403,0.14876802526010574
9.009531999999998,7.092681643306291,0.14869342640983127
9.011916,7.107438626778015,0.14861013517590668
9.01432,7.1243374806230175,0.14848718410803846
9.016704,7.141795412975458,0.14833605892116006
9.019084,7.161487763499794,0.14817823769515623
9.02148,7.1897003736889955,0.14790379987166674
9.023867999999998,7.224990221304084,0.14751071327799348
9.026248,7.257254254814361,0.14713188185374843
9.028652,7.2880752660856665,0.14675793922721678
9.03104,7.3235521051558585,0.14631875795365262
9.033423999999998,7.364243850532384,0.14578494738012543
9.03582,7.404656056655189,0.14526944411321172
9.038204,7.438689873486406,0.14483795220937043
9.040588,7.46885925845165,0.1444680159412414
9.042984,7.502101679349949,0.14404510774269597
9.045368,7.530688272449358,0.14368153634898453
9.047752,7.5626274407355405,0.14325915980228213
9.050147999999998,7.596056853088942,0.14279448421101976
9.052532,7.6193359920834,0.14249617859919733
9.054912,7.643965605518217,0.14216464684481026
9.057312,7.670225232647113,0.14179138453081636
9.059696,7.69131717529792,0.14146815800335155
9.062092,7.7091037645901945,0.1411716609706681
9.064492,7.724748483509192,0.14091408381860465
9.066876,7.741603907241688,0.14063378447864164
9.069256,7.751661632802015,0.14044925675233225
9.07166,7.759065631309867,0.1402925375195917
9.074048,7.768471730564137,0.1401072823739259
9.076427999999998,7.777738060191545,0.13992929810200008
9.078824,7.788075325005594,0.13973464848388586
9.081212,7.795758862767168,0.13956648025826934
9.083592,7.803769161610704,0.1393488036752548
9.085996,7.81205899970796,0.13911668619726886
9.088384,7.8202090681783565,0.13889153115433991
9.090763999999998,7.828638675902475,0.13865371006499366
9.09316,7.84521645623912,0.13829779825869393
9.095552,7.853134207284039,0.13805199637230203
9.097931999999998,7.861703584635017,0.13780978929110607
9.100336,7.877489969038743,0.13745936066586623
9.102723999999998,7.887549590456941,0.1371774578890622
9.105104,7.888669643329691,0.13701862259111022
9.107499999999998,7.891512257695139,0.13684484185167053
9.109884,7.897148368739922,0.13663960909454928
9.112267999999998,7.902924249411565,0.13642765057579415
9.114667999999998,7.906046403030732,0.13624174164129665
9.117052,7.908237391090121,0.1360656432870945
9.119432,7.910148839895791,0.13590324270808712
9.121835999999998,7.910709814261101,0.13577206334497505
9.124223999999998,7.910060083812913,0.1356648505487585
9.126604,7.907548022245168,0.13557885615661427
9.129,7.908481083662815,0.1354648344233915
9.131388,7.907784131386383,0.1353950497589049
9.133767999999998,7.911091380602785,0.13527114420726613
9.136168,7.914398629819187,0.1351472386556274
9.138552,7.915424239035451,0.13506387695044986
9.140932,7.911234941945384,0.1350579809174178
9.143336,7.912912177467708,0.13497828178306415
9.145724,7.913937786683972,0.13489554609663418
9.148103999999998,7.913752691086737,0.13483648161506925
9.1505,7.92129645922145,0.1346847428701392
9.152888,7.934706759968552,0.13445853506721134
9.155268,7.94518379440946,0.1342678417011448
9.157664,7.949514756984258,0.1341640087483436
9.160052,7.956639216238389,0.13403064958527405
9.162448,7.964415301798581,0.13390094048583254
9.164844,7.974984884038104,0.13374086718780775
9.167231999999998,7.985554466277631,0.13358079388978297
9.169612,7.997055214076935,0.13341102337950794
9.172007999999998,8.009766666689737,0.13321759300152505
9.174396,8.023409284862318,0.13301482580101875
9.17678,8.032535844862867,0.13285583250341293
9.179175999999998,8.041243095982834,0.13271657429683772
9.18156,8.047668707102664,0.1326180835773886
9.18394,8.056236188595774,0.13248745372103082
9.186336,8.068807871581717,0.132305300339701
9.188719999999998,8.083241885687213,0.1321044618443927
9.191116,8.097396360538992,0.13191846643739585
9.193511999999998,8.11634643281652,0.13168142032727545
9.195899999999998,8.134365339534273,0.1314555750511249
9.19828,8.150242375878747,0.13126313059836345
9.200676,8.16719034740986,0.13105684042441967
9.203064,8.190936017113144,0.1307742394783702
9.205443999999998,8.225483586481428,0.13036792881776785
9.207844,8.259099990289933,0.12997541422116557
9.210232,8.290714293352021,0.12960686084775946
9.212611999999998,8.325261862720305,0.12920939203466686
9.215008,8.363673863954562,0.12877394141905246
9.217396,8.401154699629043,0.1283481880156883
9.219791999999998,8.443431132729275,0.12787807757754494
9.222184,8.484496861016007,0.12742981752432803
9.224571999999998,8.529147481914992,0.1269532969623093
9.226952,8.576219512440975,0.12643702820082728
9.229347999999998,8.620498046287624,0.12594574687776927
9.231732,8.665567976067189,0.12545802878919263
9.234127999999998,8.70891534435406,0.12498626536088364
9.236524,8.75254225189465,0.12450699873772557
9.238912,8.795657302756041,0.12402208179679622
9.241292,8.831555346564684,0.12362743038662188
9.243688,8.866522224813549,0.12324231705715191
9.246076,8.904981447876049,0.12280886691891503
9.248456,8.941578339818994,0.12239430411831463
9.25086,8.976732209522961,0.12198416640310761
9.253248,9.004716294002423,0.12163028975217376
9.255628,9.031257356242909,0.121276928692884
9.258024,9.060359597737254,0.1208805432426151
9.260412,9.086016716246206,0.1205064736596557
9.262792,9.106366380650206,0.12016787121286596
9.265187999999998,9.126995584307927,0.11981835835820343
9.267575999999998,9.141246398674063,0.11951713976121152
9.269956,9.155264895614721,0.11919521470562067
9.272352,9.16798013994326,0.11886693717333612
9.27474,9.178972822779103,0.11854903463408431
9.277131999999998,9.197322282294557,0.11814993492655004
9.279528,9.208222417331784,0.11780726580556887
9.281916,9.217399990876316,0.1174738740247532
9.284296,9.220990571062176,0.11718273143456619
9.286692,9.22243928087476,0.11691706832105367
9.289079999999998,9.227520105127839,0.1165967845758036
9.291464,9.229947202328445,0.11629140044844691
9.29386,9.22608845803608,0.11605683624434021
9.296248,9.225954375982827,0.11579534401404673
9.298628,9.220745157250102,0.11558492367867106
9.301032,9.215116629636796,0.11539064670094201
9.30342,9.20799785795627,0.1152250969349092
9.3058,9.199388842208528,0.11508839751950359
9.3082,9.191431452766844,0.11495575454524459
9.310588,9.185988020750772,0.11481339863046451
9.312968,9.182546689481118,0.1146522236284475
9.315364,9.178406510077162,0.11451786281794342
9.317752,9.175569583285322,0.11439177790162144
9.320132,9.175246613919098,0.11425678248330613
9.322539999999998,9.171571069366097,0.11416343113534842
9.324924,9.15839687776021,0.11417388151504898
9.327308,9.150669909886131,0.11414968925653467
9.329704,9.146248295370585,0.11411486544691671
9.332092,9.150207170893044,0.11402006195640467
9.334471999999998,9.15602837753506,0.1139120464271578
9.336868,9.160219570482997,0.11383803570977842
9.339256,9.1717203182823,0.11371721343517564
9.341636,9.186014562760938,0.1135764418966566
9.344032,9.196584145000463,0.11346306751738093
9.346419999999998,9.214742821345075,0.11329326231097586
9.348816,9.235694994369021,0.11310469538967392
9.351212,9.257718102579608,0.11290414007421574
9.353599999999998,9.279741210790196,0.11270358475875755
9.35598,9.302695484560557,0.11249799683180611
9.358376,9.327512089450476,0.11228149671637586
9.36076,9.350978219900037,0.11208878292514629
9.36314,9.381661357402349,0.11182725767124903
9.36554,9.414486365277938,0.11154512696514142
9.367924,9.444378106847331,0.11128873605061214
9.370308,9.481207316215754,0.11097454222020565
9.372708,9.525113763010062,0.11059593293327996
9.375096,9.571581389058231,0.11018327728277842
9.377476,9.614883431374727,0.10977666392398656
9.379872,9.650596379586137,0.10942522307953778
9.38226,9.685657701491488,0.10907096326267403
9.384656,9.723280202650697,0.10868110875651968
9.387052,9.755595249704959,0.1083194522460315
9.389435999999998,9.789540310453296,0.10792939943425064
9.39182,9.821623040082079,0.10755065588436108
9.394212,9.84946925079255,0.10718940911404219
9.3966,9.876803604823822,0.10682120945439802
9.398979999999998,9.906419598855233,0.10642888460341599
9.401376,9.934872109901388,0.10602262464232146
9.403764,9.957086001282816,0.10564440596018958
9.40616,9.975063373745932,0.10528008109829178
9.408556,9.992808428783569,0.10489749098394514
9.410944,10.003383698596702,0.1045502773890756
9.413324,10.009722449491523,0.10421609208314232
9.41572,10.01554934370715,0.10387247106207591
9.418107999999998,10.017419258258183,0.1035323195152349
9.420488,10.012910783517622,0.10322383362029953
9.422884,10.002396006537818,0.10296132788736403
9.425272,9.988668423998094,0.10272817085160035
9.427651999999998,9.978945042951207,0.10246389558530274
9.430056,9.9672195611579,0.10221449910748723
9.43244,9.949348007498484,0.1020155867092986
9.434819999999998,9.933338784958623,0.10180597182316503
9.437224,9.910903951298934,0.1016564961086613
9.439612,9.891122844691719,0.10149617113131919
9.441992,9.868780558830645,0.10137034447509337
9.444387999999998,9.844948028902351,0.10126896155959621
9.446776,9.817902693414142,0.10119702944495595
9.449156,9.794022941657607,0.1011237373057858
9.451552,9.774379708819382,0.10103972167213103
9.45394,9.754037627846856,0.10098024714823665
9.456336,9.73192576355339,0.10095520176186334
9.458732,9.714422505230573,0.10093389320020753
9.46112,9.70008483063943,0.10091158471981346
9.4635,9.68691063903354,0.10090362235229404
9.465903999999998,9.67340968634569,0.10093468396900226
9.468288,9.665216187762788,0.10094541433000799
9.470667999999998,9.662330143284834,0.10093588337158706
9.473068,9.667824588844887,0.10088146532060673
9.475452,9.673179264778081,0.10083228039522721
9.477835999999998,9.683981164443082,0.10075879779504028
9.480232,9.701440992653392,0.10064598924336658
9.48262,9.718481511983125,0.10054849857355719
9.485,9.74353043429852,0.10039275155161019
9.487396,9.768719126240779,0.10023311927935145
9.489783999999998,9.798703415608788,0.10004491674118758
9.492168,9.829898409790296,0.09984287788910141
9.494564,9.863886900651138,0.0996271606351065
9.496948,9.9010881970719,0.09938642718226934
9.499332,9.941642068679435,0.09911461149498907
9.501736,9.987550616220163,0.09879681506711342
9.50412,10.037882674134305,0.09843850140390642
9.506504,10.084117982756997,0.09808481579774483
9.5089,10.126628629140574,0.09775007891494163
9.511288,10.169558584404733,0.09740237120640047
9.513668,10.212907848549472,0.09704018901773831
9.516063999999998,10.255465716761291,0.09668017159683928
9.518451999999998,10.295649397174357,0.096321856638366
9.520848,10.330385853855613,0.09598829245720317
9.523243999999998,10.365913706469787,0.09565694781643728
9.525631999999998,10.397065270538791,0.09534033394573241
9.528012,10.422629841249124,0.09505019168605705
9.530408,10.445540684906984,0.09476824737464411
9.532796,10.462445226325594,0.0945271895418606
9.535175999999998,10.47920999811734,0.09429163940129473
9.537579999999998,10.494391978043254,0.09405693822990514
9.539967999999998,10.509573957969165,0.09382317535559875
9.542348,10.522893606775522,0.09359849790194083
9.544744,10.532069284462182,0.09340576179389817
9.547132,10.535098890282734,0.093255859913846
9.549511999999998,10.532634050543232,0.09315355543796958
9.551916,10.524674765243677,0.09309859837292137
9.554303999999998,10.521511077369874,0.09301893610584254
9.556684,10.524865548414517,0.09291151398670756
9.55908,10.529151185018941,0.09280057510575045
9.561468,10.535438922369782,0.09267766538488227
9.563847999999998,10.543588990840178,0.09254768637520411
9.566244,10.555463721549687,0.09240326817679023
9.568632,10.570131948938533,0.0922478714151775
9.571015999999998,10.583077614834682,0.09209626950076076
9.573412,10.597466302969808,0.0919504783121384
9.575796,10.620654790023519,0.0917589725350907
9.57818,10.646776543383424,0.09155203999936666
9.580583999999998,10.677973433422801,0.09131416519754318
9.582972,10.706237057155983,0.09109162926276852
9.585352,10.732079271262169,0.09089419953173859
9.587748,10.755779614995076,0.09071311474719451
9.590136,10.779340189101122,0.09053649883310978
9.592516,10.798105165781417,0.09038215804668379
9.594912,10.823528071007019,0.09019792960422698
9.5973,10.854445421792677,0.08996970232557099
9.599696,10.887923951832194,0.0897118426373915
9.602092,10.916606884445956,0.0894778302033258
9.60448,10.940913528514548,0.08925530094938224
9.60686,10.965359942210002,0.08903018147848539
9.609255999999998,10.989946125532315,0.08880249542298572
9.611648,11.009736711428873,0.08859723026279283
9.614028,11.024452160645962,0.08842308334314325
9.616424,11.035163408370217,0.08827142363973126
9.618811999999998,11.045734886467612,0.08812419305616362
9.621196,11.05379240713939,0.0879787511669837
9.623592,11.053981294452363,0.08787400123005143
9.625979999999998,11.05323901620556,0.08777277039637338
9.62836,11.050634406839196,0.08767858579896706
9.630764,11.053384473406028,0.08754703980091194
9.633147999999998,11.056693618480299,0.08739854096624332
9.635528,11.062563942808428,0.08722268939200717
9.637923999999998,11.06699124489758,0.08704063739385876
