Time,Force,Position
6.959244,0.013701566666922975,0.0
6.961575999999999,0.01998975349311382,0.0
6.96392,0.02720910587908298,0.0
6.966263999999999,0.03521985419797025,0.0
6.968612,0.04644340807677312,0.0
6.970948,0.05766696195557598,0.0
6.973291999999999,0.07303448695407276,0.0
6.975643999999999,0.08840201195256954,0.0
6.977988,0.10190720583150968,0.0
6.980331999999999,0.11555216933731002,0.0
6.982676,0.12812619765647182,0.0
6.985023999999999,0.13776695966943847,0.0
6.987364,0.14633678649576662,0.0
6.989708,0.15797964925515012,0.0
6.992056,0.1653387712679795,0.0
6.994396,0.17605046846758468,0.0
6.996739999999999,0.18354701477405438,0.0
6.999079999999999,0.1911833307073843,0.0
7.001424,0.20147337369318896,0.0
7.00376,0.2086903807459383,0.0
7.006107999999999,0.21097202074607557,0.0
7.008455999999999,0.2153955311194899,0.0
7.0108,0.2190276455599861,0.0
7.013147999999999,0.2220081336944244,0.0
7.015488,0.22163604664208694,0.0
7.017835999999999,0.21819092365669404,0.0
7.0201720000000005,0.20873949843205064,0.0
7.022523999999999,0.20021923876718553,0.0
7.024863999999999,0.1915592094754602,0.0
7.027208,0.18261964093001448,0.0
7.029551999999999,0.1770326475713446,0.0
7.031896,0.17745195645192524,0.0
7.0342400000000005,0.18094430126556127,0.0
7.036579999999999,0.17936150939972503,0.0
7.038928,0.18406455902685978,0.0
7.0412680000000005,0.18220222790730312,0.0
7.043612,0.18327316309394162,0.0
7.045956,0.18127106234752477,0.0
7.048299999999999,0.17968827048168853,0.0
7.05064,0.17745385230979444,0.0
7.05298,0.17615059969767863,0.0
7.055323999999999,0.17349687264520386,0.0
7.057668,0.1696324407792304,0.0
7.060012,0.16441753447289797,0.0
7.062351999999999,0.15734029704700886,0.0
7.064696,0.15440703074081374,0.0
7.067036,0.15305655630045478,0.0
7.069379999999999,0.146910484434344,0.0
7.071724,0.14476861406106697,0.0
7.074071999999999,0.14006321910071237,0.0
7.076407999999999,0.13307618414022046,0.0
7.078747999999999,0.12301611324667316,0.0
7.081099999999999,0.11095394160670902,0.0
7.083432,0.10089387071316175,0.0
7.085772,0.08883169907319763,0.0
7.088111999999999,0.0799823329931491,0.0
7.09046,0.07006203172646203,0.0
7.092796,0.062143831206191824,0.0
7.095139999999999,0.05301492587242287,0.0
7.097491999999999,0.04467741647157202,0.0
7.099824,0.03741084225735971,0.0
7.102183999999999,0.029352872110229286,0.0
7.104528,0.022365837149737392,0.0
7.106868,0.01658950700274424,0.0
7.109207999999999,0.012815277602167937,0.0
7.111552,0.007970113014953106,0.0
7.113899999999999,0.0034044876814586923,0.0
7.116244,0.0027528613754007917,0.0
7.118584,4.956716146301998e-05,0.0
7.120927999999999,4.956716146301998e-05,0.0
7.123268,4.9567161463019985e-05,0.0
7.125603999999999,0.0010302998827043603,0.0
7.127948,0.005084068537001081,0.0
7.130288,0.010208772377936333,0.0
7.132631999999999,0.012260440285816203,0.0
7.134976,0.013241173007057544,0.0
7.137316,0.015292840914937416,0.0
7.139659999999999,0.016133804009318544,0.0
7.142004,0.018045702290338205,0.0
7.144344,0.019957600571357866,0.0
7.146687999999999,0.019957600571357866,0.0
7.149032,0.019957600571357866,0.0
7.151375999999999,0.019957600571357866,0.0
7.153715999999999,0.019957600571357866,0.0
7.15606,0.019957600571357866,0.0
7.158403999999999,0.019957600571357866,0.0
7.1607520000000005,0.019957600571357866,0.0
7.163091999999999,0.01990803340989485,0.0
7.165436,0.01990803340989485,0.0
7.1677800000000005,0.01990803340989485,0.0
7.170119999999999,0.01990803340989485,0.0
7.172471999999999,0.01892730068865351,0.0
7.1748080000000005,0.014873532034356787,0.0
7.177156,0.009748828193421535,0.0
7.179499999999999,0.007697160285541664,0.0
7.181839999999999,0.006716427564300323,0.0
7.184184,0.004664759656420453,0.0
7.186527999999999,0.0038237965620393226,0.0
7.188872,0.0019118982810196613,0.0
7.191208,0.0001893367883232302,0.0
7.193555999999999,0.003311939882841631,0.0
7.1959,0.009647348537275623,0.0
7.198243999999999,0.015051591631931295,0.0
7.200588,0.016172093980032845,0.0
7.202928,0.019294697074551247,0.0
7.205271999999999,0.020554969049513008,0.0
7.207616,0.02367757214403141,0.0
7.209959999999999,0.02866250635810645,0.0
7.212311999999999,0.03471837575882003,0.0
7.214644,0.03770120922647822,0.0
7.216987999999999,0.039892646761218294,0.0
7.219336,0.043806645788654806,0.0
7.221672,0.047580875189231105,0.0
7.224015999999999,0.04786275977617141,0.0
7.22636,0.049215579549750234,0.0
7.228707999999999,0.04963723376355073,0.0
7.23104,0.051781449470047654,0.0
7.233383999999999,0.055927765922961434,0.0
7.23574,0.058723607935516266,0.0
7.238092,0.058534271147193034,0.0
7.240432,0.05541166805267464,0.0
7.242775999999999,0.04907625939824064,0.0
7.245111999999999,0.043672016303584964,0.0
7.247448,0.04348502484848161,0.0
7.249791999999999,0.04036242175396321,0.0
7.252143999999999,0.041897991791556274,0.0
7.254484,0.042781935523091445,0.0
7.256828,0.0427347136948483,0.0
7.259171999999999,0.040405851866467876,0.0
7.261516,0.03993932115764409,0.0
7.263847999999999,0.04212651750129506,0.0
7.266188,0.041799756419331494,0.0
7.268532,0.042683700150866664,0.0
7.270868,0.05120395981573176,0.0
7.273211999999999,0.05879305392081853,0.0
7.275556,0.06810470951860174,0.0
7.277896,0.07611311250426914,0.0
7.280236,0.07918614843732451,0.0
7.282579999999999,0.08346988918387863,0.0
7.28492,0.09241180306254425,0.0
7.287264,0.10163325619493024,0.0
7.289607999999999,0.10978377414067772,0.0
7.291952,0.11486125615336981,0.0
7.294288,0.11900522727306374,0.0
7.296623999999999,0.12329131335283776,0.0
7.298968,0.12478155742005691,0.0
7.301311999999999,0.12305899592736048,0.0
7.303652,0.11975364256882783,0.0
7.305996,0.12273413070326615,0.0
7.308339999999999,0.12720486290492364,0.0
7.310687999999999,0.12809070249432805,0.0
7.313036,0.1276260676433735,0.0
7.315384,0.12609049760578042,0.0
7.317731999999999,0.12055072607535365,0.0
7.320076,0.11473141529120645,0.0
7.322419999999999,0.1110539748803363,0.0
7.324764,0.10867978708158198,0.0
7.327104,0.10923886558902283,0.0
7.32944,0.11394191521615758,0.0
7.331787999999999,0.11277843223090199,0.0
7.334132,0.11012470517842723,0.0
7.336475999999999,0.1074709781259525,0.0
7.33882,0.10989238775294999,0.0
7.341163999999999,0.1101719270066704,0.0
7.343508,0.11217402775308725,0.0
7.345839999999999,0.11324496293972579,0.0
7.348188,0.11496752443242221,0.0
7.350536,0.11333516540512298,0.0
7.352872,0.10662766969835151,0.0
7.355216,0.0996406347378596,0.0
7.357555999999999,0.09437616127006414,0.0
7.3599,0.09125355817554573,0.0
7.36224,0.08813095508102733,0.0
7.364587999999999,0.08486858235964873,0.0
7.366935999999999,0.08174597926513032,0.0
7.369268,0.07569010986441675,0.0
7.371611999999999,0.06791167897100676,0.0
7.373963999999999,0.060133248077596756,0.0
7.376308,0.048350615691353044,0.0
7.378648,0.04057218479794304,0.0
7.380991999999999,0.03400445871803178,0.0
7.383343999999999,0.02850766782475905,0.0
7.385679999999999,0.021008776185069463,0.0
7.388024,0.01565175491865694,0.0
7.390376,0.009363568092466095,0.0
7.392716,0.004006546826053572,0.0
7.395059999999999,0.0,0.0
7.397404,0.0,0.0
7.399756,0.0,0.0
7.402099999999999,0.0,0.0
7.404444,0.0,0.0
7.406796,0.0,0.0
7.409136,0.0,0.0
7.411479999999999,0.0,0.0
7.413824,0.0,0.0
7.416176,0.0,0.0
7.418516,0.0,0.0
7.420864,0.0,0.0
7.423207999999999,0.0,0.0
7.425552,0.0,0.0
7.427892,0.0,0.0
7.430235999999999,0.0,0.0
7.432575999999999,0.0,0.0
7.43492,0.0,0.0
7.437267999999999,0.0,0.0
7.439612,0.0,0.0
7.441951999999999,0.0,0.0
7.444296,0.0,0.0
7.446636,0.0,0.0
7.448979999999999,0.0,0.0
7.451319999999999,0.0,0.0
7.453671999999999,0.0,0.0
7.45602,0.0,0.0
7.458359999999999,0.0,0.0
7.460704,0.0,0.0
7.463051999999999,0.0,0.0
7.465387999999999,0.0,0.0
7.467732,0.0,0.0
7.470072,0.0,0.0
7.47242,0.0,0.0
7.474767999999999,0.0,0.0
7.477112,0.0,0.0
7.479467999999999,0.0,0.0
7.481816,0.0,0.0
7.484159999999999,0.0,0.0
7.486504,0.0,0.0
7.48884,0.0,0.0
7.491175999999999,0.0,0.0
7.49352,0.0,0.0
7.495863999999999,0.0,0.0
7.498199999999999,0.0,0.0
7.500539999999999,0.0,0.0
7.502884,0.0,0.0
7.505231999999999,0.0,0.0
7.507572,0.0,0.0
7.509912,0.0,0.0
7.512255999999999,0.00939327772453543,0.0
7.514595999999999,0.035496521981099004,0.0
7.51694,0.0832450998223027,0.01265532209087924
7.519283999999999,0.14546922602364043,0.02433686101541184
7.521632,0.22244843983883264,0.035327569027852876
7.523975999999999,0.31362366276043835,0.04598916503743951
7.526323999999999,0.42565282333376614,0.05591526716773977
7.528675999999999,0.5572326689467003,0.0653441549738516
7.53102,0.7070599469871247,0.07440785517488847
7.533363999999999,0.8674057937230927,0.08351866812099668
7.535708,1.0403648576996378,0.09264808254517347
7.53806,1.2323155282083487,0.10158000501422797
7.5404,1.4423266396894463,0.11037824928650662
7.542748,1.6690949395308152,0.11906407013437921
7.5451,1.9164848595984292,0.12754797204336962
7.547444,2.184496399892288,0.13586102752378504
7.549787999999999,2.467030710374524,0.14413046850548406
7.552135999999999,2.7631112995149842,0.15229005337348506
7.554472,3.071202597276077,0.16031790521445696
7.556811999999999,3.3904206599262663,0.16819434230643407
7.559156,3.704621733397092,0.17600932207384484
7.561503999999999,4.002532149216471,0.18379836773043418
7.563844,4.273629546973118,0.17900023493548045
7.566188,4.530251396369633,0.17517588530687336
7.568536,4.775423511510826,0.17200538786661956
7.570872,5.010636136463916,0.16911240906708752
7.573216,5.2257862196982,0.16694818054899582
7.575559999999999,5.420966309012299,0.16530681435348457
7.577907999999999,5.596268952204828,0.16408908720140114
7.58024,5.768734668605519,0.16272920975607827
7.582583999999999,5.935105326684081,0.16124790766071392
7.584932,6.083695083043977,0.15993342851756936
7.587268,6.211850210632731,0.15877113971054782
7.589611999999999,6.322316984301434,0.15773573710940958
7.591956,6.408809562557115,0.1569794796533791
7.594296,6.475611686146331,0.15637924624757546
7.596636,6.52831034842775,0.15579768895071314
7.598979999999999,6.56904552391678,0.15531326583891433
7.601328,6.598793704143575,0.15498088430145968
7.60366,6.618718372093388,0.15480366709172305
7.606004,6.636268852244449,0.15465080461897468
7.608347999999999,6.656752598701702,0.15444891574901876
7.610692,6.684685669637185,0.15412705971347815
7.613023999999999,6.713549906132446,0.15379144606865103
7.615371999999999,6.738037854082535,0.15351453645166022
7.61772,6.757777426435115,0.15327911406784744
7.620063999999999,6.777144911735358,0.1530265284013825
7.622408,6.795721001102684,0.15277805114555432
7.624751999999999,6.820023853455537,0.15243424598545613
7.627091999999999,6.840509495770658,0.15212386340662234
7.629431999999999,6.858481180660166,0.15184835308531439
7.631779999999999,6.875242160736173,0.15160351176690898
7.634131999999999,6.893818250103497,0.15137087146947673
7.636476,6.916770628015993,0.15108724298020573
7.638819999999999,6.947359321861819,0.15064555799467302
7.641164,6.974502892722252,0.15024135065144462
7.643511999999999,7.0020185506350225,0.14985700291616488
7.645852,7.026600942241599,0.14952067439198605
7.648199999999999,7.053884282728889,0.14911363579036369
7.650544,7.080655766536985,0.14869785641723668
7.652896,7.106356315158441,0.14830677901923198
7.655236,7.131218246018735,0.14796856243201878
7.657579999999999,7.155893185423928,0.1476823268304498
7.659927999999999,7.180940211881456,0.147414820917822
7.662267999999999,7.2092000438989,0.14708694270495143
7.664616,7.239322207035901,0.14673558286777785
7.666959999999999,7.267814356478822,0.14643447254298797
7.669295999999999,7.297097901854661,0.14612535739210583
7.671635999999999,7.321493302006132,0.14585788038609293
7.673988,7.340022169545215,0.14568355815276188
7.676323999999999,7.349471698911989,0.1456612720228521
7.678663999999999,7.3602244808908805,0.1456436631003366
7.681008,7.378194269922519,0.14550181094192316
7.683356,7.394441497461462,0.14537965883605114
7.685691999999999,7.40640498425385,0.1453383370202153
7.688032,7.42274475959141,0.1452505005104868
7.690379999999999,7.440295239742469,0.14513697892528674
7.692715999999999,7.46306062619986,0.14493463571887177
7.69506,7.4800992496717225,0.14481286640653987
7.6974,7.4966260164643845,0.14468191414189896
7.699748,7.5130130136301885,0.14455887757823754
7.702095999999999,7.524464643743379,0.14450961228543444
7.70444,7.533961394938396,0.14445306262452906
7.706787999999999,7.5433655983347965,0.14436565527562142
7.709132,7.550627931357919,0.14431689492285857
7.711471999999999,7.5571914162467415,0.14430428338098758
7.713816,7.566176310762562,0.14423964266655895
7.71616,7.577210527853042,0.1441066940840553
7.718496,7.588244744943522,0.1439733355982446
7.720839999999999,7.603143393899973,0.1437857879421984
7.723184,7.624979510655455,0.14349172283010425
7.725524,7.645791914052544,0.14317911994846025
7.727867999999999,7.659946388904322,0.1429600471423939
7.730212,7.670376201516987,0.14278711827219875
7.732555999999999,7.680666244502792,0.1426211636531817
7.734892,7.689885352301957,0.14247478385743537
7.737235999999999,7.697381898608427,0.1423452559979604
7.739571999999999,7.701433321929504,0.1422484221611702
7.741916,7.70669545006408,0.14212562186988004
7.744256,7.716892945251268,0.14193446944066745
7.746599999999999,7.727509749319036,0.14172339524096225
7.748944,7.742969372640799,0.14141228351445292
7.751284,7.7600117878283985,0.14109399868859823
7.753627999999999,7.7817100308148905,0.1407264555255738
7.755972,7.805270604920939,0.14033871072730258
7.758315999999999,7.82845909197465,0.1399353202317076
7.76066,7.849505708655082,0.13956765682568711
7.763004,7.872786743507409,0.13920018123863287
7.765355999999999,7.90007197985257,0.13877971168826536
7.767692,7.923912093212339,0.13838844598899844
7.770044,7.948171515452686,0.1379810548060525
7.772383999999999,7.9732223336259525,0.13757158810431902
7.774732,7.999483856612717,0.13713992357738275
7.777072,8.029097954786259,0.13665055786035096
7.779415999999999,8.060853923333077,0.13612931529494166
7.78176,8.094100135947114,0.1355752297942463
7.784096,8.132002176360043,0.13497766187025412
7.786443999999999,8.17148700863881,0.1343771174794742
7.788788,8.21404487685063,0.1337366635737225
7.791128,8.251248069129257,0.13318479331445837
7.793476,8.284307290288192,0.13268967960382758
7.795819999999999,8.312011835513934,0.13227572933728377
7.798171999999999,8.336131488127421,0.13189406457907996
7.800516,8.352382507382103,0.1316119220508247
7.802856,8.366771195517227,0.13134998115781626
7.805204,8.38260290589133,0.13108915044650882
7.807539999999999,8.401228112944764,0.13080022729946952
7.809884,8.414917952945588,0.13057287009203528
7.812236,8.422182181826582,0.1304402131592044
7.814572,8.429958267386771,0.13031651164439945
7.816912,8.434521547387044,0.13024066072627244
7.819307999999999,8.438153661827542,0.13017445343259768
7.821692,8.440714841081398,0.13012415571887193
7.82408,8.444858812201092,0.13006835455362356
7.826483999999999,8.44700068257437,0.13003745598557456
7.828868,8.447512539253568,0.130047002337385
7.831256,8.441878324066654,0.13013558300311698
7.83366,8.43610433925288,0.13022963761322895
7.836048,8.42790894481211,0.13036561187967177
7.838443999999999,8.419713550371338,0.13050174895451497
7.840847999999999,8.420317954849153,0.13053905976263452
7.843232,8.428790992685775,0.13048754470410773
7.845628,8.443270332761648,0.13036579556102842
7.848023999999999,8.459891543210798,0.13021371675605206
7.850412,8.47558158810017,0.13007011382484815
7.852808,8.488478136310206,0.1299529798576518
7.855212,8.501654223773963,0.1298249798281106
7.8576,8.517903347170774,0.12965905597045482
7.860004,8.540298542433696,0.12941630133272755
7.862404,8.56776887437609,0.12911377191028178
7.864792,8.598172472624684,0.12878011405351641
7.867188,8.63122979792575,0.12842893485403986
7.869588,8.662936648786456,0.12810342459453988
7.871971999999999,8.691989772594686,0.12780032476201453
7.874376,8.723184766776193,0.12747004304289858
7.876771999999999,8.756940940211559,0.1270961509197776
7.879163999999999,8.792047588087286,0.12669497451450054
7.88156,8.825431674470314,0.1263064901004844
7.883951999999999,8.861097400853481,0.12588531130402855
7.886348,8.898113601677007,0.1254391801131572
7.888743999999999,8.929403039515,0.1250539429039351
7.891131999999999,8.955896879927243,0.12471915505226842
7.893528,8.975453252540456,0.12445921528627198
7.895923999999999,8.993938689967033,0.12421282170247246
7.898311999999999,9.017639033699938,0.12390547580618594
7.900708,9.047904758179538,0.12351392122197147
7.903103999999999,9.077099547472496,0.12313863105501374
7.905488,9.104571775272763,0.12277515243215734
7.907867999999999,9.130461211207193,0.1224190142672009
7.910276,9.154767855275784,0.122071459333049
7.912663999999999,9.178143333784599,0.12173341193684237
7.915039999999999,9.19621135818846,0.12142924773031603
7.917439999999999,9.21791149703282,0.12107029029573285
7.919827999999999,9.236398830317267,0.12074896502087776
7.922207999999999,9.253163602109016,0.1204386005220429
7.924604,9.264061841288374,0.12018400762400237
7.926992,9.274308454161673,0.11992573741536038
7.929375999999999,9.284694836661831,0.11966223300362766
7.931772,9.291077017669158,0.11943919196466057
7.934156,9.296667802743567,0.11921851706005929
7.936555999999999,9.29853392557886,0.11902607475667175
7.938952,9.299468882854377,0.11884079601289337
7.94134,9.302405940876312,0.11863450777216326
7.943719999999999,9.307764408525243,0.11839152817915495
7.946116,9.306185408375145,0.11821671413233363
7.948504,9.29631846598566,0.1181330546726798
7.950884,9.282587091730202,0.11808375397024828
7.953279999999999,9.26992665266138,0.118021326461088
7.955672,9.256055508779061,0.11797674580458062
7.958052,9.238692020083107,0.1179806557492089
7.960447999999999,9.219605969894456,0.11799292480957745
7.962835999999999,9.203173646758277,0.11798951854287588
7.965216,9.182597352502407,0.11803040824942501
7.967616,9.16737573417973,0.11800828020672072
7.969999999999999,9.152805742163109,0.11798965817835493
7.972384,9.137956210892767,0.11798264825075463
7.974779999999999,9.12562063704804,0.1179649991667812
7.977167999999999,9.113145293576455,0.11795264337766723
7.979564,9.10653648271726,0.11788696650130674
7.981959999999999,9.1015104637239,0.11781824493110267
7.984347999999999,9.10314237327585,0.1176953503007511
7.986727999999999,9.10863871469377,0.11753976456658831
7.989124,9.118139257604525,0.11734653868626085
7.991512,9.12829142682134,0.1171586493133209
7.993891999999999,9.142028488650409,0.11694857642153383
7.996292,9.161911622345588,0.11667668027242034
7.998676,9.19087409421307,0.11631949547300437
8.001059999999999,9.216763530147498,0.11599350937339455
8.003456,9.243584131641702,0.11566175688883655
8.005844,9.27068427238963,0.1153181723043588
8.008224,9.297504873883836,0.11498473153591006
8.01062,9.327398511311097,0.1146229746513731
8.013008,9.361016810977473,0.11423509377237517
8.015404,9.39114276583021,0.11389524624938557
8.0178,9.423410591056227,0.11353474505929972
8.020188,9.461033092215434,0.11311502108964536
8.022568,9.498935132628366,0.11268847223602602
8.024963999999999,9.536045777108377,0.11226322145164325
8.027352,9.567569428229717,0.11187880577850155
8.029736,9.598720992298722,0.11148283282084603
8.032131999999999,9.62828976450189,0.11109262350066273
8.034516,9.653342478533025,0.11072981665632717
8.0369,9.676812400698324,0.11037239763433473
8.039296,9.699490926930707,0.11001822100204715
8.041684,9.724870402043805,0.10962441556690943
8.044063999999999,9.747176841223851,0.10926114932916202
8.04646,9.765898387791642,0.10892138704078336
8.048852,9.786761804732711,0.10855983608113048
8.051231999999999,9.807532673875162,0.10817559168127618
8.053632,9.827651916711554,0.10778616097266346
8.05602,9.851403273988444,0.1073511871655481
8.058411999999999,9.870638573093302,0.10694096986464088
8.060808,9.887359914772547,0.10653854894462944
8.063191999999999,9.905571500519008,0.10611044157476898
8.065572,9.919918654399499,0.1057110702678866
8.067964,9.932403477160433,0.10532449642362496
8.070348,9.9363680402565,0.1049903558586614
8.072744,9.940332603352568,0.10465580915693298
