Time,Force,Position
10.235748,0.024886975925329777,0.0
10.238152,0.02568650051167032,0.0
10.240536,0.025686500511670318,0.0
10.24292,0.02512742200422948,0.0
10.245324,0.027501609802983815,0.0
10.247708,0.02722207054926339,0.0
10.250092,0.026383452788102127,0.0
10.252496,0.028757640586856457,0.0
10.254884,0.02912972763919394,0.0
10.257264,0.02656041973191381,0.0
10.259668,0.02599321257105053,0.0
10.262052,0.02721204603797171,0.0
10.264432,0.03150391543794826,0.0
10.266836,0.03686672002456336,0.0
10.269224,0.045162790917373616,0.0
10.271604,0.048515366104149416,0.0
10.274,0.048794905357869844,0.0
10.276388,0.05028514942508901,0.0
10.278768,0.05340540718638754,0.0
10.281172,0.06202011050773894,0.0
10.28356,0.06835317382895306,0.0
10.28594,0.079481834575919,0.0
10.288336,0.0923411854690038,0.0
10.290724,0.10426124214888785,0.0
10.293104,0.11245663658965861,0.0
10.2955,0.12116388770962706,0.0
10.297888,0.13150115252367492,0.0
10.300272,0.14169864771086252,0.0
10.302668,0.15604011401774406,0.0
10.305052,0.17225204009760467,0.0
10.307436,0.184739303938352,0.0
10.30984,0.19293469837912278,0.0
10.312224,0.19312168983422612,0.0
10.314608,0.19037541498313432,0.0
10.317012,0.18562703938562566,0.0
10.319396,0.18660542677364714,0.0
10.321776,0.1866526486018903,0.0
10.324176,0.18455800005685638,0.0
10.32656,0.18190427300438167,0.0
10.32894,0.17431517889929488,0.0
10.33134,0.16518049024532336,0.0
10.333728,0.15325230491201686,0.0
10.336108,0.14039295401893204,0.0
10.338504,0.12846476868562556,0.0
10.340891999999998,0.11732797928523718,0.0
10.343272,0.10633095951170903,0.0
10.345668,0.09505440048446043,0.0
10.348056,0.08177574071079499,0.0
10.350435999999998,0.06635521056385248,0.0
10.352832,0.050143284483991864,0.0
10.35522,0.037656020643244546,0.0
10.357616,0.028241792735552593,0.0
10.360012,0.027310627175774274,0.0
10.3624,0.028102023108692385,0.0
10.364776,0.031035289414887555,0.0
10.367176,0.029033188668470697,0.0
10.369564,0.034899721280861044,0.0
10.371944,0.04369952019944656,0.0
10.37434,0.04649301687878152,0.0
10.376728,0.04872743505067564,0.0
10.379108,0.05371815258495325,0.0
10.381504,0.05549606455931527,0.0
10.383892,0.05549606455931527,0.0
10.386288,0.058484681347176035,0.0
10.388684,0.06133352850817659,0.0
10.391072,0.062180274922760286,0.0
10.393452,0.06395818689712231,0.0
10.395848,0.06395818689712231,0.0
10.398236,0.06395818689712231,0.0
10.400616,0.06601563812520475,0.0
10.403012,0.06928379416678593,0.0
10.405399999999998,0.07348311576814541,0.0
10.40778,0.06993542047284383,0.0
10.41018,0.06652749480440244,0.0
10.412564,0.06004653320290567,0.0
10.414948,0.055567672347825746,0.0
10.417344,0.0461534444401338,0.0
10.419732,0.03487688541288521,0.0
10.422128,0.028675463065108858,0.0
10.424524,0.024755680717469777,0.0
10.426912,0.019764963183192163,0.0
10.429291999999998,0.017987051208830145,0.0
10.431692,0.017987051208830145,0.0
10.43408,0.014998434420969386,0.0
10.43646,0.012149587259968838,0.0
10.438856,0.011302840845385138,0.0
10.441244,0.009524928871023122,0.0
10.443624,0.009524928871023122,0.0
10.446028,0.009524928871023122,0.0
10.448416,0.007467477642940682,0.0
10.450796,0.004199321601359501,0.0
10.453192,0.0,0.0
10.45558,0.0,0.0
10.457964,0.0,0.0
10.46036,0.0,0.0
10.462744,0.00014789828028264704,0.0
10.465124,0.0013667317472038248,0.0
10.467528,0.0037962700276237427,0.0
10.469916,0.006505347561764081,0.0
10.472296,0.012427230655820014,0.0
10.474692,0.015555617070540982,0.0
10.47708,0.01696144199256552,0.0
10.47946,0.018646806168310482,0.0
10.481856,0.02047193997091565,0.0
10.48424,0.024299174519937673,0.0
10.486636,0.024299174519937673,0.0
10.489032,0.024299174519937673,0.0
10.49142,0.024299174519937673,0.0
10.493799999999998,0.02542546018824179,0.0
10.496196,0.02548081066990738,0.0
10.498584,0.02548081066990738,0.0
10.500964,0.02632755708449108,0.0
10.50336,0.029036634618631416,0.0
10.505744,0.03495851771268735,0.0
10.50814,0.03901806968718664,0.0
10.51054,0.03887017140690399,0.0
10.512928,0.037651337939982814,0.0
10.515308,0.0352217996595629,0.0
10.517712,0.03251272212542256,0.0
10.5201,0.026590839031366623,0.0
10.52248,0.024029659777508934,0.0
10.524884,0.026264077949403056,0.0
10.527268,0.026216856121159902,0.0
10.529648,0.02896313097225171,0.0
10.532048,0.025842873210953174,0.0
10.534432,0.029622885931732044,0.0
10.536812,0.032471733092732595,0.0
10.539208,0.037602220253870416,0.0
10.541595999999998,0.04081502581378601,0.0
10.543976,0.04509876656034013,0.0
10.546372,0.05050879297519837,0.0
10.54876,0.05199903704241754,0.0
10.551139999999998,0.051766719616940265,0.0
10.553536,0.04584483652288433,0.0
10.555924,0.041785284548385045,0.0
10.55832,0.04178528454838505,0.0
10.560716,0.04178528454838505,0.0
10.563104,0.04178528454838505,0.0
10.565484,0.04277180058982896,0.0
10.567888,0.04361854700441266,0.0
10.570272,0.04403785588499329,0.0
10.572652,0.04039761279107462,0.0
10.575048,0.04067715204479505,0.0
10.577436,0.036105743391098066,0.0
10.579816,0.036105743391098066,0.0
10.58222,0.03503480820445954,0.0
10.584608,0.03675736969715597,0.0
10.586988,0.03391665118957785,0.0
10.589392,0.03172755898805764,0.0
10.59178,0.029678236413397636,0.0
10.59416,0.02548704346546057,0.0
10.596564,0.027441922383634274,0.0
10.598948,0.03125913242136461,0.0
10.601328,0.03769287219461823,0.0
10.603732,0.04598894308742849,0.0
10.60612,0.05349361804732064,0.0
10.6085,0.05806502670101762,0.0
10.610896,0.059703169048519425,0.0
10.613284,0.05871665300707552,0.0
10.615664,0.057869906592491825,0.0
10.61806,0.056883390551047915,0.0
10.620448,0.056883390551047915,0.0
10.622828,0.054965708949825685,0.0
10.625224,0.054965708949825685,0.0
10.627612,0.054258732162102204,0.0
10.629992,0.051549654627961856,0.0
10.632396,0.04697824597426487,0.0
10.634784,0.044688477320705175,0.0
10.637164,0.04253847829400567,0.0
10.63956,0.04024870964044597,0.0
10.641948,0.0390298761735248,0.0
10.644328,0.034738006773548234,0.0
10.646724,0.028444036627154824,0.0
10.649112,0.022010296853901202,0.0
10.651492,0.013714225961090941,0.0
10.653892,0.010960367678522166,0.0
10.65628,0.017516269135867336,0.0
10.65866,0.03361424775860376,0.0
10.661056,0.05693357037177342,0.0
10.663444,0.10227031362192068,0.01175216008267491
10.665824,0.16799446381496624,0.022281991094400773
10.668232,0.25271022054017717,0.03205039499373148
10.670616,0.35446270487937986,0.04134805579944537
10.672996,0.4726928383251335,0.0504101893900461
10.675396,0.6126608531541442,0.05918207675059538
10.677779999999998,0.7715732526870771,0.06785006688815685
10.680164,0.95404053875245,0.07613431538372463
10.68256,1.1513101342599208,0.0843291561923255
10.684948,1.3556985014479157,0.09281209598104558
10.687344,1.5754463607275802,0.10133477756122193
10.68974,1.8197728198980796,0.10960941331807281
10.692128,2.081927402615489,0.11778846736010823
10.694508,2.3586047555212755,0.1259300173559382
10.696904,2.6437985763761884,0.13417955348772892
10.699288,2.9472398296585918,0.1423196947218319
10.701672,3.2627818982804295,0.15032363956947184
10.704076,3.583119564328019,0.15826196067983322
10.70646,3.9095107544431027,0.16609145377707715
10.70884,4.244099234856826,0.17375750556650843
10.711236,4.56044217870093,0.1695769008117221
10.713624,4.856212620004901,0.1665534264633949
10.716008,5.130757036604812,0.1643003937920096
10.718404,5.389520756374605,0.1625626380373105
10.720792,5.636927289687691,0.1610440208570317
10.723172,5.864877581617657,0.15976707460879955
10.725568,6.071928609925527,0.1585877422402931
10.727956,6.250302393193243,0.15792105789391667
10.73034,6.420437351907681,0.15732285671218213
10.732736,6.591274950472163,0.1563499826119542
10.735124,6.754249603251444,0.15519985293601168
10.737508,6.8826823742360475,0.1544197636619776
10.739904,6.990865612046745,0.1537906547785761
10.742292,7.088762598587375,0.15315715048313946
10.744676,7.183497793112074,0.15231674217894803
10.747072,7.255516718865494,0.15160182275158066
10.74946,7.304957249616624,0.151106493041898
10.75184,7.346111733986237,0.1506701152776613
10.75424,7.378700632720609,0.15030876328521917
10.756628,7.401792780259965,0.15003238940125135
10.759024,7.413943258507458,0.1499353128946818
10.76142,7.417059724553015,0.15006542526693853
10.763808,7.420501055822671,0.15025354842973876
10.766188,7.4231056651890315,0.15037412543018902
10.768588,7.41691237149468,0.1505253316189438
10.770972,7.405551393322237,0.15073359183728882
10.773356,7.390790618134777,0.15105811966262203
10.775752,7.385808029253922,0.15118289289084497
10.77814,7.37239962436469,0.15135670629381892
10.78052,7.35387075682561,0.15154203312890976
10.78292,7.322630436673729,0.15196673001572325
10.785308,7.303308277343863,0.15227426627905238
10.787688,7.289852650626385,0.15248569071787796
10.790092,7.272999122751761,0.152692159488395
10.79248,7.248975809652628,0.15298446065839696
10.79486,7.231283664016842,0.15323306156020375
10.797256,7.216757102112727,0.15346507977464519
10.799644,7.200275661290437,0.15368980095607399
10.802024,7.177043744124223,0.15398254600895658
10.804428,7.146734589532119,0.15439647298995599
10.806816,7.124618933522917,0.154744732584985
10.809196,7.121173810537525,0.15478338306910822
10.811592,7.123130585313568,0.1546764449321802
10.81398,7.122433633037136,0.15460201110786498
10.816364,7.126764595611933,0.1544771469704364
10.818764,7.135704164157378,0.15432502178520086
10.821148,7.153350983822793,0.15399391013150035
10.823532,7.162245226397867,0.1537683344474982
10.825928,7.171279238599799,0.15353330110858446
10.828316,7.176122057853794,0.15341711722744608
10.830696,7.189904445653235,0.15314624396273374
10.833096,7.205084529721277,0.15280171570248194
10.835484,7.2152366989380905,0.15250858183314608
10.837868,7.227064207819359,0.15223887321401064
10.840264,7.237633790058884,0.1520357233104821
10.842652,7.245689414872793,0.1518580903938429
10.845032,7.255422275209027,0.15158679119246907
10.847428,7.260778847000088,0.15136648332831426
10.849816,7.268789145843625,0.1511119538340285
10.852196,7.2813155028591945,0.15079610656493372
10.854596,7.2929579161432265,0.15045354295641658
10.856984,7.294497277896558,0.15025645845384591
10.859364,7.293847547448369,0.15014220913743212
10.86176,7.300879458903884,0.1499490381428529
10.864148,7.307492061478819,0.14977944946484714
10.866532,7.31187024588186,0.1496189878978807
10.868928,7.313175394351845,0.1495127147873548
10.871315999999998,7.3202998536059765,0.14935419274421033
10.8737,7.329286643979665,0.14916965507200738
10.876096,7.3424646273012915,0.14887290197368896
10.878483999999998,7.34954376058505,0.14864365890543163
10.88088,7.350988678681895,0.1485300116842619
10.883276,7.357741050883689,0.1483563993751354
10.88566,7.36197946565987,0.14820621694235747
10.888044,7.369151146742245,0.148009863004736
10.89044,7.378697015623375,0.14779853958788713
10.892828,7.39364288640807,0.14756135786856436
10.895207999999998,7.414035980924576,0.14725645812004498
10.897608,7.432846283575247,0.1469608010445489
10.899992,7.449422168054022,0.14667408445841434
10.902372,7.465858282905936,0.14639495068181693
10.904768,7.483597650369969,0.14612047481317966
10.90716,7.5023154052220224,0.14579705781520966
10.90954,7.514654770782488,0.14555468180190206
10.91194,7.527785532275869,0.14530880717280362
10.914328,7.542871172687426,0.1450706865875964
10.916708,7.560610540151457,0.14480615732740154
10.919104,7.57890898612293,0.14451591254540055
10.921492,7.602142799147014,0.14415754863297384
10.923888,7.624537994409938,0.14384606463569533
10.926284,7.651029938964311,0.14350527800419266
10.928672,7.684878660198293,0.14304526092936565
10.931052,7.714723179939442,0.14264776187864195
10.933448,7.747500965986788,0.1422127758799441
10.935836,7.785074349459884,0.1417199741485939
10.938216,7.823998207373339,0.14120164508120672
10.940616,7.862130669353876,0.14069710546617414
10.943003999999998,7.900123361707553,0.14020405809011915
10.945384,7.945285839285735,0.13964516687320225
10.947784,7.993753670222452,0.13906818743345462
10.950171999999998,8.043711745226386,0.13845752964478134
10.952552,8.092878424297403,0.1378504751801632
10.954956,8.14069462892806,0.13727900962173928
10.95734,8.190512934305135,0.13668080251278855
10.959724,8.238468908562654,0.13610479062880912
10.96212,8.289917227633806,0.13547403754453669
10.964508,8.340154841891463,0.13487295914005273
10.966888,8.38918175133562,0.13430047692416033
10.969284,8.429920718540389,0.13384772937077943
10.971672,8.467726419438963,0.1334314263166988
10.974052,8.510886796270729,0.1329446964207565
10.976448,8.546038770116827,0.1325622783514915
10.978836,8.584543319149702,0.13212886005305485
10.981232,8.618252270756825,0.13175012619071408
10.983628,8.648376329751695,0.1314073681279505
10.986016,8.67421664800001,0.1311276747066073
10.988396,8.696332304009214,0.13088690577626172
10.990792,8.718587729645277,0.1306422023072742
10.99318,8.732462665243336,0.13047995091222067
10.99556,8.743544104162059,0.13034544629666703
10.99796,8.756720191625815,0.1302161193343736
11.000348,8.770455357597013,0.13006299786036826
11.002728,8.782188422821793,0.12993337342371294
11.005124,8.794573114352632,0.1298077321633671
11.007511999999998,8.80709757551033,0.12967600174276897
11.009896,8.814686669615416,0.1296009136837549
11.012292,8.820553202227806,0.1295373733682382
11.014679999999998,8.82893369226581,0.12946065297713427
11.01706,8.84252908861015,0.12931722329587014
11.019456,8.857195420141124,0.12915889567475503
11.021848,8.859988916820459,0.12913332424127297
11.024228,8.866646845365768,0.12906744403580553
11.026624,8.870231737978022,0.12903932988113384
11.029012,8.876749896896468,0.12897976589999083
11.031392,8.882336890255141,0.12892890876433719
11.033792,8.891136689173726,0.12883510377267088
11.03618,8.901147192905809,0.1287214728857615
11.038576,8.908084660704837,0.12864501098158335
11.040972,8.921819826676035,0.12849842032033904
11.043364,8.935554992647234,0.1283518296590947
11.045744,8.945845035633036,0.12822801339045575
11.048144,8.957578100857816,0.1281057497671317
11.050532,8.970661640522957,0.12795768408427868
11.052916,8.982302157949123,0.12780939414073314
11.055312,8.998226416121838,0.1276070006160203
11.0577,9.01135717761522,0.12742811112497857
11.060084,9.025698643922103,0.12723008115344914
11.06248,9.03287032500448,0.12708577188868198
11.064872,9.03710873978066,0.12697186776770641
11.067252,9.044559960116755,0.12681724168050504
11.069652,9.058948648251882,0.12658808057463544
11.07204,9.073616875640726,0.1263484558307633
11.074424,9.088564642283291,0.12609765292526326
11.07682,9.106585444858913,0.12581415056661394
11.079204,9.123814851501615,0.12553292299785196
11.081584,9.14039263183826,0.12525015390716307
11.083988,9.154828541801628,0.12499465117484869
11.086376,9.172477257324912,0.12469928864584325
11.088756,9.183328274676025,0.12447044598704002
11.091152,9.196460932027277,0.12421026470913048
11.09354,9.207591488632112,0.12397058787414357
11.09592,9.218070418930889,0.12372863038687874
11.098316,9.228549349229667,0.1234870742035571
11.100704,9.24103038027486,0.12322590253381338
11.103084,9.246434173894167,0.12304068133296041
11.10548,9.253979837886748,0.12282829296818627
11.107868,9.257661070013357,0.12265162802111071
11.110248,9.265858360311997,0.12244171338525323
11.112644,9.278479160984052,0.12217448402493938
11.115032,9.284302263483937,0.12197157610790924
11.117412,9.285050229304348,0.12182316313021456
11.119808,9.286077734378484,0.12166410010630577
11.122192,9.2863138435197,0.1215069528763531
11.124588,9.280823189675385,0.12140036521094219
11.126983999999998,9.27533253583107,0.12129358354300672
11.129372,9.268770946800117,0.12119969531650188
11.131752,9.2644909977693,0.12107442984714864
11.134156,9.256626156126233,0.12097293387547933
11.136544,9.255698782282193,0.12080380036846353
11.138924,9.251418833251378,0.12067865332874957
11.141328,9.249420524220703,0.12052223801254217
11.143716,9.244628718510686,0.12038752311549797
11.146096,9.241978783173952,0.12022760219234287
11.1485,9.23625581190416,0.12010025567358396
11.150888,9.234676811754063,0.11992761365387493
11.153268,9.232026876417324,0.11976721658160173
11.155664,9.2331016033197,0.11957773620835985
11.158052,9.235526804662436,0.11936538640584103
11.160432,9.2316661645122,0.1192232569517419
11.162836,9.232601121787718,0.11903964295663592
11.16522,9.241684251675764,0.11877249404021421
11.167604,9.24927713749659,0.11853491138999472
11.17,9.257521649623474,0.11830122122752007
11.172384,9.267488723243051,0.11805855661072868
11.174767999999998,9.281320228728603,0.11778361142632925
11.177164,9.29314963346774,0.11752771616312357
11.179552,9.302976937460459,0.11729172322564971
11.181932,9.315457968505655,0.1170404901795283
11.184328,9.32235200619218,0.11683186404015473
11.186716,9.330876057572784,0.11658924493944964
11.189096,9.3431247711925,0.11632123410024359
11.191491999999998,9.356164880745135,0.11605108053137823
11.193884,9.367063119924492,0.11580656281786059
11.196264,9.380103229477127,0.11553828452277093
11.19866,9.393143339029761,0.11527140743000133
11.201048,9.411118815635007,0.11496161187532591
11.203432,9.430584536307475,0.11462622366485739
11.205836,9.448327695487244,0.1143005279863474
11.208224,9.470214825786707,0.11393259586973371
11.210604,9.490239624966614,0.11357828463283924
11.213,9.500533459668159,0.1133048157907298
11.215388,9.511386372877142,0.1130106655824418
11.217768,9.522379055712987,0.1127115626320748
11.220164,9.536724313735608,0.11237433379855724
11.222552,9.545994435078756,0.11208493891823798
11.224936,9.558197822728099,0.11177146456333192
11.227332,9.573334476683636,0.11143505322092438
11.22972,9.587400195452537,0.11111086027423667
11.2321,9.601977770900634,0.11079525449318169
11.2345,9.616275807095011,0.11049081806018989
11.236884,9.623636375490358,0.11024572453823746
11.239264,9.634069979818761,0.10997253531876203
11.241664,9.644224044893445,0.10970990029122808
11.244048,9.653027635527767,0.10946943828237285
11.246444,9.660760290975453,0.1092408543793643
11.24884,9.664488744930303,0.10904727831837277
11.251228,9.669520451497272,0.10886387798827253
11.253612,9.676786576236132,0.10868415030263756
11.256008,9.683773161721273,0.10851521525076849
11.258396,9.694065100564949,0.10833890085525161
11.260776,9.713017068700347,0.10810096946962264
11.263172,9.731270188701446,0.10788863356502934
11.26556,9.752316805381877,0.10766071477560023
11.267944,9.768939911688896,0.1074816286077467
11.27034,9.792500485794946,0.10724973947485975
11.272728,9.81899432620719,0.10699891732578805
11.275112,9.844137692179075,0.10676996181181901
11.277508,9.87421642520357,0.10650669362631468
11.279896,9.909230525280678,0.1062085329901747
11.28228,9.94689835241026,0.1059013380934471
11.28468,9.991363877712011,0.10554833909915547
11.287068,10.035549863760043,0.10520826873852945
11.289447999999998,10.079735849808076,0.10486819837790344
11.291844,10.126063706229383,0.10450967322676485
11.294232,10.176116224889805,0.10413386181864097
11.296612,10.230172945043059,0.10373034279367307
11.299012,10.278363132583921,0.10336823419360323
11.3014,10.32497052825895,0.10300953720308667
11.30378,10.372648859120616,0.10264355287435539
11.306176,10.423028138863002,0.10224514780876702
11.308564,10.468192512299057,0.10189213209545202
11.310948,10.515638525735246,0.10151674983014736
11.313344,10.561873834357936,0.10115870208198473
11.315732,10.609971474100183,0.10079105061351534
11.318128,10.649129545296985,0.10048594299544933
11.320524,10.683492019068035,0.10021142804594561
11.322912,10.717202866533029,0.09993320876798995
11.325292,10.745186951012489,0.0996898766787827
11.327692,10.76744427250642,0.09947984763413707
11.33008,10.787839262880796,0.09928030231717316
11.33246,10.805440756575837,0.09909600962671193
11.334855999999998,10.822250854337959,0.09891269508770005
11.337244,10.842273757659996,0.0987036747352882
11.339624,10.860434329862478,0.09850440954174727
11.342028,10.872448830198845,0.0983496606869827
11.344416,10.884323560908356,0.0982007450130427
11.346796,10.90155296755106,0.09800875357946781
11.3492,10.916780273447348,0.0978299991725394
11.351588,10.931867809716772,0.09765671803815805
