Time,Force,Position
12.271935999999997,0.10798932487963593,0.0
12.274323999999996,0.10105185708060704,0.0
12.276704,0.09504555484135649,0.0
12.2791,0.08637303217546456,0.0
12.281488,0.07690911357665452,0.0
12.283867999999998,0.06651402941806617,0.0
12.286271999999997,0.05625871488633801,0.0
12.288659999999997,0.04493246516797131,0.0
12.29104,0.036539481755799796,0.0
12.293436,0.03229046946332219,0.0
12.295824,0.03176611940995786,0.0
12.298208,0.030170834169955005,0.0
12.300604,0.026433678556675087,0.0
12.302992,0.02227721406281454,0.0
12.305371999999998,0.01998308068851063,0.0
12.307771999999996,0.01848034324712483,0.0
12.31016,0.016046440245960716,0.0
12.312544,0.011610436498379745,0.0
12.314939999999996,0.008105598310577099,0.0
12.317328,0.004600760122774451,0.0
12.319712,0.003622372734752978,0.0
12.322104,0.0014680089873092808,0.0
12.324488,0.0022594049202273913,0.0
12.326884,0.0022594049202273913,0.0
12.329275999999997,0.0022594049202273913,0.0
12.331663999999996,0.0022594049202273913,0.0
12.334055999999997,0.0030632942273121373,0.0
12.33646,0.003063294227312137,0.0
12.338843999999998,0.003063294227312137,0.0
12.341223999999997,0.005077888347895624,0.0
12.343615999999995,0.007883878401397221,0.0
12.345999999999997,0.009199624387679656,0.0
12.34838,0.014379802239935584,0.0
12.350776,0.020491145651969828,0.0
12.35316,0.025531553877365547,0.0
12.355555999999996,0.02642799098306735,0.0
12.357947999999997,0.026427990983067355,0.0
12.360332,0.02642799098306736,0.0
12.362727999999995,0.026672801782711263,0.0
12.365132,0.026672801782711263,0.0
12.367515999999998,0.02521728616956861,0.0
12.369895999999995,0.02521728616956861,0.0
12.372291999999998,0.02441339686248387,0.0
12.374675999999996,0.02441339686248387,0.0
12.377056,0.02530983396818567,0.0
12.379459999999998,0.026066501447027268,0.0
12.381843999999996,0.027881610738340758,0.0
12.384224,0.03236294045629563,0.0
12.386619999999995,0.036052874241332404,0.0
12.389003999999996,0.03772821390578568,0.0
12.391399999999996,0.03861215763732084,0.0
12.393791999999998,0.04047448875687749,0.0
12.396179999999998,0.0367498265177642,0.0
12.398556,0.03409609946528945,0.0
12.400951999999997,0.032373537972593014,0.0
12.403336,0.03693681797286756,0.0
12.405731999999997,0.04532980138503908,0.0
12.408136,0.05344324554349018,0.0
12.410519999999998,0.058378612596102206,0.0
12.412899999999995,0.06169645932880149,0.0
12.415304,0.06715617643477784,0.0
12.417692,0.07154495835411565,0.0
12.420071999999998,0.077004675460092,0.0
12.422468,0.084326723685625,0.0
12.424851999999998,0.08982116924567786,0.0
12.427228,0.09545538443259093,0.0
12.429623999999995,0.09829610294016902,0.0
12.432008,0.0986228640221326,0.0
12.434403999999995,0.1005324169699324,0.0
12.436808,0.10043986917131534,0.0
12.439191999999998,0.10048709099955849,0.0
12.441571999999995,0.10290850062655596,0.0
12.443967999999998,0.10691270211938966,0.0
12.446351999999996,0.10519014062669324,0.0
12.448732,0.10187229389399395,0.0
12.451123999999997,0.09641257678801761,0.0
12.453511999999996,0.0880195933758461,0.0
12.455907999999996,0.079906149217395,0.0
12.458299999999998,0.07472597136513907,0.0
12.460687999999998,0.07140812463243978,0.0
12.463068,0.0676834623933265,0.0
12.465459999999997,0.06731137534098902,0.0
12.467847999999996,0.06386625235559616,0.0
12.470243999999996,0.056544204130063176,0.0
12.472639999999998,0.050153321464308516,0.0
12.475023999999998,0.043762438798553856,0.0
12.477407999999995,0.03830272169257751,0.0
12.479803999999998,0.033494630892659055,0.0
12.482187999999995,0.02789514415982249,0.0
12.484583999999998,0.02429775817340278,0.0
12.48698,0.020560602560122865,0.0
12.489363999999998,0.014961115827286306,0.0
12.491747999999998,0.009501398721309957,0.0
12.494152,0.007766343854446891,0.0
12.496536,0.007766343854446891,0.0
12.498915999999998,0.009221859467589535,0.0
12.50132,0.009746209520953862,0.0
12.503708,0.011201725134096507,0.0
12.506087999999998,0.011201725134096507,0.0
12.508484,0.011201725134096507,0.0
12.510872,0.00946667026723344,0.0
12.513251999999998,0.005449975400233103,0.0
12.515656,0.0034353812796496163,0.0
12.51804,0.0034353812796496163,0.0
12.520419999999998,0.004379040213594572,0.0
12.522816,0.005182929520679318,0.0
12.525204,0.006778214760682175,0.0
12.527583999999996,0.00944443518732356,0.0
12.529975999999998,0.011179490054186626,0.0
12.532363999999998,0.017198285667603813,0.0
12.53476,0.023077311654160795,0.0
12.537152,0.029887503200496095,0.0
12.53954,0.03697723400055181,0.0
12.541919999999998,0.04406696480060753,0.0
12.544315999999998,0.04901482522738619,0.0
12.546703999999998,0.05129646522752346,0.0
12.549079999999996,0.05450927078743905,0.0
12.551475999999996,0.055719975600937804,0.0
12.553859999999997,0.060388296773996035,0.0
12.556255999999998,0.06649964018603027,0.0
12.558656,0.07284330102354179,0.0
12.561039999999998,0.08114184077922702,0.0
12.563423999999998,0.09004478501272699,0.0
12.56582,0.09605978891040569,0.0
12.568203999999998,0.10182808615057123,0.0
12.570587999999995,0.1129491634660602,0.0
12.572983999999998,0.12322972716251865,0.0
12.575367999999996,0.14067628436774476,0.0
12.577763999999998,0.17352955549288318,0.0
12.58016,0.21829719572429798,0.011329365007929885
12.582544,0.2782392324501478,0.021829699398789138
12.584923999999996,0.3541470616033508,0.031638616778890856
12.587315999999998,0.44862718840813853,0.04097757315741524
12.589699999999995,0.5593054250657568,0.050125485628836
12.592095999999998,0.6890224900837835,0.05901838863776461
12.594499999999996,0.8313999941706307,0.06793389780796241
12.596884,0.9861583980725781,0.0768303239419926
12.599263999999998,1.1579535295885173,0.0855889521519621
12.601667999999997,1.3443639790914508,0.09423298197157919
12.604052,1.5454369684096214,0.10276634906524837
12.606431999999998,1.7589380793711353,0.11128108421572606
12.608828,1.9788610097367418,0.11992953845010033
12.611211999999998,2.215356032865386,0.1284486660291229
12.613608,2.472754111331864,0.13678970206391916
12.616003999999997,2.744304768792251,0.14501190861662605
12.618388,3.0213951977830646,0.15318008119614634
12.620772,3.3133389497599577,0.16116127518096562
12.623171999999997,3.60542626307945,0.16899259898988925
12.625559999999997,3.881595005799832,0.1768294212916797
12.62794,4.13947099012235,0.17334067858642657
12.630343999999996,4.379099542017377,0.17075828715879143
12.632727999999997,4.598199021484776,0.168974371350994
12.635108,4.79951759923351,0.16763377313652827
12.637504,4.985988541569771,0.16643920580813587
12.639892,5.154351821105402,0.16553533301048917
12.642271999999998,5.318015842729636,0.1645200087491159
12.644671999999996,5.473116174576502,0.16349589877300677
12.64706,5.61411304511557,0.16257726898283617
12.649439999999998,5.733976438749195,0.1618457021066999
12.651836,5.836151478462771,0.1612397980139132
12.654224,5.927248870973362,0.16063752580691631
12.656603999999998,6.013182370721603,0.15982562173964537
12.659007999999996,6.080496350990017,0.15914853256471134
12.661392,6.129143589950361,0.15864780349454627
12.663771999999998,6.160659657640225,0.15832578185066387
12.666168,6.1843089878291515,0.15804622866921503
12.668556,6.194736904583948,0.15793900744656428
12.670952,6.195713396114099,0.15800690809042528
12.673355999999998,6.201997341749201,0.15799580936107666
12.675739999999998,6.211679188541452,0.15798437194479695
12.67812,6.227227567946094,0.1578570813225936
12.680515999999995,6.247898305858452,0.15757246107070808
12.682899999999997,6.263261589665861,0.157366333902348
12.68528,6.272059492726577,0.15732119866298017
12.687676,6.285513223586185,0.15719331273409248
12.690064,6.294078809221426,0.15712231271166502
12.692443999999998,6.300969055192211,0.15703012925134846
12.694847999999997,6.306648596349498,0.15697207164083074
12.697235999999997,6.322151649783765,0.15676653847127842
12.699616,6.339469812509346,0.15657351265689443
12.702012,6.357486823369228,0.1563398345416442
12.7044,6.373501733482694,0.15615032442131752
12.706779999999998,6.391239205088857,0.15593851544778267
12.709183999999995,6.410699238187715,0.15570537083876806
12.711571999999997,6.438586983152823,0.15529332224393455
12.713947999999998,6.46321659658764,0.15487421576992033
12.716355999999998,6.485472022223704,0.15447560923968498
12.718739999999997,6.508518843792683,0.15406813021412888
12.72112,6.527142154988251,0.15376699230248456
12.723523999999998,6.543531048011923,0.15347665414814707
12.725911999999996,6.559408084356398,0.15318002871443706
12.728292,6.573794876633651,0.15293367430132906
12.730695999999998,6.59134725264258,0.1526578086563728
12.733083999999998,6.613602678278643,0.15225549026866378
12.73546,6.631761354623257,0.15189796833440114
12.737855999999995,6.6444728072360615,0.1516215185219614
12.740239999999996,6.651177957609612,0.15146124924154286
12.74262,6.656160546490468,0.15132258683557534
12.745016,6.655975450893234,0.15125042384116127
12.7474,6.658631073803577,0.1510894769488098
12.749795999999996,6.658585747833204,0.15100942229899245
12.752191999999996,6.657329717049332,0.15096111243062904
12.754575999999997,6.6530006503324035,0.15097416140338907
12.756956,6.644807151749503,0.15105559545626374
12.759359999999996,6.627674084621158,0.15130216346247286
12.761747999999995,6.612123809358647,0.15153456832465306
12.764124,6.597784238909637,0.15173518397506705
12.766527999999996,6.582793042154567,0.1519347197317007
12.768915999999995,6.568500693533798,0.1520927532899674
12.771292,6.557933007152142,0.15219098599014286
12.773695999999996,6.546294385583847,0.15231050320180065
12.776083999999996,6.538659965508388,0.1523541742141602
12.77846,6.53423835099284,0.15232995151056508
12.780867999999998,6.533401629089548,0.15225717509286624
12.783251999999996,6.531493971999617,0.15220659171691167
12.785632,6.532659350842741,0.1520962273897858
12.788035999999998,6.539039635992201,0.1518799308563267
12.790419999999996,6.548912265955294,0.15157981353351402
12.7928,6.559576291851304,0.1512745409093064
12.795203999999998,6.5694489218143985,0.15097929735586693
12.797591999999998,6.578158068792237,0.15066958503309905
12.799971999999997,6.590731647636048,0.15029853899751913
12.802376,6.6108943205849435,0.14981015785748472
12.804764,6.635712821332731,0.14925101294796272
12.807139999999997,6.663185049132996,0.14865353352499627
12.809544,6.687444471373342,0.1481221703157858
12.811932,6.71114481510625,0.14762458115843413
12.814311999999996,6.735124698092881,0.1471088748303121
12.816707999999998,6.75910458107951,0.1465939786700676
12.819091999999998,6.778568405894106,0.14614258402275832
12.821471999999996,6.798963396268481,0.1456810784198628
12.823875999999998,6.814283249963385,0.1453161268284739
12.826259999999998,6.829463334031428,0.1449632493894076
12.828643999999995,6.84250154772619,0.14465669464752623
12.831039999999998,6.862197689966263,0.14425239982972254
12.833423999999996,6.88533895519173,0.14381463349183254
12.835804,6.908200681163477,0.1433960959632226
12.838207999999998,6.929711932694864,0.1430185064615841
12.840595999999998,6.9505715579201945,0.1426395900212988
12.842975999999997,6.966867903145251,0.14235838729553504
12.845371999999998,6.985538436169059,0.14206193471687034
12.847759999999996,6.999273602140257,0.14184642132656095
12.85014,7.00914433624548,0.14169163117694766
12.852543999999998,7.021017171097122,0.1415072111970377
12.854927999999996,7.038384451508812,0.14122041032439928
12.857308,7.062828969346396,0.14082273030262307
12.859703999999995,7.0914174583036695,0.14035951334434804
12.862087999999996,7.125453170992757,0.13983913479904936
12.864483999999996,7.162561919614899,0.13927481442198156
12.866879999999998,7.204466265662793,0.13864840916703125
12.869267999999998,7.243437345404491,0.1380657249824162
12.871647999999997,7.285481461079246,0.13743544439744254
12.874052,7.327525576753999,0.13681203340441078
12.87644,7.369429922801893,0.13619820723302567
12.878819999999996,7.405188196983677,0.13568556079429836
12.881215999999998,7.441598097471519,0.13518440611120774
12.883603999999998,7.478939163519139,0.13467676256164957
12.885983999999995,7.512276028073923,0.13422442168317678
12.888379999999998,7.548266619681184,0.13375122977371412
12.890763999999995,7.58774955610208,0.13320871846988144
12.893147999999997,7.63137646364267,0.13261040393661416
12.895547999999998,7.679287111929817,0.13194542589986533
12.897935999999998,7.724124724283906,0.13132379973476077
12.900315999999997,7.765097904772023,0.13075724916426287
12.902711999999998,7.801368035633005,0.13028902582465765
12.905095999999997,7.834425360934072,0.12987996357817028
12.907491999999998,7.863478484742306,0.1295286001202131
12.909896,7.888806946311424,0.12922166662946857
12.912284,7.909711897507129,0.1289885174928701
12.914663999999998,7.928614747956417,0.12878391958902513
12.917064,7.95138203027168,0.12853573989486816
12.919452,7.977222348519997,0.12825130815289126
12.921831999999998,8.002643357887733,0.12798860471101658
12.924235999999995,8.030206237628745,0.12769699931533757
12.926623999999997,8.062052858116312,0.12734432815917132
12.929004,8.089523190058705,0.12702657540095758
12.931407999999998,8.117784917934019,0.1267098157707308
12.933795999999996,8.152844343981503,0.12631827234300624
12.936176,8.187764000402126,0.1259383094914156
12.938571999999995,8.223475052755667,0.12555925758835484
12.940959999999995,8.253319572496817,0.1252484554892156
12.94334,8.279811517051192,0.12499066774151556
12.945743999999998,8.312449533471675,0.12465807836182678
12.948131999999998,8.347089650638576,0.12430403225468478
12.950512,8.38000720631278,0.12395990663427137
12.952907999999995,8.407989394934372,0.12366956714040606
12.955295999999995,8.436762979488883,0.12337722700566761
12.957676,8.466467729603174,0.12307879497857876
12.960071999999997,8.49980459415796,0.12271940295214012
12.962459999999997,8.532210293152966,0.12236974814936497
12.96484,8.562613891401554,0.12204592811754633
12.967243999999996,8.585009086664478,0.12181422856722465
12.969627999999997,8.605030094128649,0.12158931878172122
12.972012,8.622397374540343,0.12138468285952021
12.974407999999997,8.635620683832347,0.12123141078940476
12.976792,8.647773057937709,0.1210915480980735
12.979171999999998,8.656200769803956,0.12098464696953991
12.981564,8.660764049804232,0.12091668474367316
12.983952,8.660811271632475,0.12088290714468453
12.986327999999997,8.657925227154522,0.12087905017629573
12.988736,8.656110117863207,0.1208612495920592
12.99112,8.656064791892833,0.12079978692677558
12.993499999999996,8.652294803683347,0.12076996760041159
12.995904,8.645731318794525,0.12076351474139334
12.998292,8.644522509838893,0.12068877235960519
13.000671999999998,8.64694581532376,0.1205551970154984
13.003075999999997,8.647786328942791,0.12042537500178052
13.00546,8.64876661218868,0.12029036521682604
13.007844,8.648256651367351,0.12018681724903814
13.01024,8.647886460172883,0.12007749100604104
13.012624,8.647795808232138,0.11995682233432968
13.015007999999998,8.649986796291527,0.11980300709073728
13.017411999999997,8.651246618791136,0.11965633890553556
13.019796,8.65050434054433,0.11953054437266385
13.022175999999998,8.650460910431827,0.11937521626502123
13.024576,8.653630285879238,0.11917929390803701
13.02696,8.658941531699925,0.11895651010878736
13.029343999999998,8.663321611960832,0.11874107743073622
13.03174,8.668772627408378,0.11851147285515795
13.034128,8.677296678788982,0.118247654839387
13.036507999999998,8.688614226848921,0.11796239057753016
13.038912,8.698161991587918,0.11772056304341985
13.041296,8.705707655580499,0.11749927549688079
13.043679999999998,8.711251218826664,0.11729791096365776
13.046076,8.710788479833578,0.11716007748216282
13.048464,8.71269992863925,0.11701792133558568
13.050843999999998,8.716753247818191,0.11684948481397178
13.05324,8.713869099198108,0.11675003926112772
13.055628,8.708843080204748,0.116677177630933
13.05802,8.70661055789072,0.11658219655670296
13.060415999999996,8.70051360371072,0.11652241666038368
13.062804,8.695999441396557,0.11645944303616416
13.065184,8.693207840575088,0.11638741581689208
13.067587999999995,8.69348927568668,0.11628151177740999
13.069975999999995,8.69027836598463,0.11622666950012492
13.072356,8.684785816282446,0.1162041679183696
13.074751999999997,8.675289065087428,0.11622311037081787
13.077139999999996,8.668493262773127,0.11619178064417827
13.07952,8.660486755645328,0.11617959865035214
13.081916,8.647265342211197,0.11622817963848879
13.084304,8.632600906538087,0.11627279030106197
13.086683999999998,8.618355779745563,0.1162997944157904
13.08908,8.60783531519215,0.11629732393664606
13.091463999999998,8.605323253624402,0.11621313568074633
13.09386,8.601880026496879,0.11613591086856284
13.096255999999997,8.593780971570464,0.11609515771744292
13.098643999999997,8.583540046270771,0.11608037128771487
13.101024,8.580376358396967,0.11599127397920725
13.10342,8.577911518657466,0.11587277119374538
13.105808,8.569440376678713,0.11581565943552218
13.108192,8.565625062498851,0.11572192489637163
13.110587999999996,8.563951618692267,0.11560234622957932
13.112972,8.565630750072458,0.1154385204578837
13.115355999999998,8.569823838878264,0.11526613030451899
13.117752,8.586681158468629,0.11498153004907366
13.12014,8.605540578805412,0.1146774397417277
13.122535999999997,8.629335366194804,0.11432692066734257
13.124931999999998,8.654153866942595,0.11400019226581176
13.127319999999996,8.683767965116136,0.11363424839074938
13.1297,8.722740940715703,0.11317006394907346
13.132095999999995,8.761294607434692,0.11272593568690492
13.134487999999996,8.79863756934018,0.11229969196543328
13.136868,8.839193336805584,0.1118434186992207
13.139263999999995,8.874534197964655,0.11144703045655495
13.141647999999996,8.915322282855536,0.1110173434303905
13.144028,8.962908065918587,0.11053485810745595
13.146431999999995,9.01328734566097,0.11003458628012684
13.148819999999995,9.064318251709413,0.1095447384703404
13.1512,9.120004985556747,0.10902827863868425
13.153592,9.18370012238975,0.10844258543385452
13.15598,9.246743632916694,0.10785724191437851
13.158375999999995,9.306993646764303,0.10729521965476707
13.160771999999998,9.36682435173133,0.10675709866309153
13.163155999999995,9.422930394459245,0.10624739096083603
13.165536,9.470516177522294,0.10580490710439559
13.167931999999997,9.521035226891541,0.10534463758525023
13.170319999999997,9.572485441820563,0.10488384324835605
13.1727,9.623284030443529,0.10442283427856273
13.175103999999996,9.674222388693355,0.10396218211693807
13.177491999999996,9.720085610263707,0.10355100441482618
13.179872,9.764086500714505,0.10315116342808134
13.182275999999998,9.814885089337473,0.1027078086713447
13.184659999999996,9.860608541280964,0.10231061192086278
13.18704,9.906611532478179,0.10190407039798301
13.189439999999998,9.953964998115753,0.10148286828263538
13.191823999999997,9.99731426226049,0.10109664930025154
13.194208,10.041594691965008,0.10070885495147248
13.196603999999995,10.086154660923246,0.10031596671156144
13.198987999999996,10.127501824321566,0.0999556881287772
13.201372,10.162842685480639,0.0996413156823063
13.203767999999997,10.199626568878685,0.09933408153983364
13.206155999999996,10.23827278339629,0.09901917879130169
13.208551999999996,10.271192234928364,0.09873742446146075
13.210947999999998,10.30276121202008,0.09847393874315855
13.213335999999998,10.334190419484935,0.09821571402347946
13.215715999999995,10.360824029524037,0.09798711873572223
13.21812,10.386386704376502,0.09776987145123534
13.220503999999998,10.409667739228825,0.09757649067043689
13.222883999999995,10.431086442961597,0.09739376746005411
13.225292,10.451294441880869,0.09722528233032003
13.227676,10.473085232665982,0.09705704821737784
13.230055999999998,10.488218094905779,0.09692606735068177
13.232452,10.500138151585663,0.09682167837386876
13.234839999999998,10.512849604198465,0.09671779055196641
13.237219999999995,10.521556855318433,0.09664148868727596
13.239615999999998,10.526399674572428,0.09658721794776742
13.242003999999998,10.528868306027668,0.09653267096121988
13.244383999999997,10.524119930430162,0.09653141885783902
