Time,Force,Position
15.284008,0.022139051883005165,0.0
15.286412,0.02344230449512097,0.0
15.288799999999998,0.026607888226793403,0.0
15.291179999999995,0.03256696863780081,0.0
15.293584,0.03494115643655514,0.0
15.295972,0.039457214608586526,0.0
15.298355999999998,0.04476466871353603,0.0
15.300752,0.05086351875140365,0.0
15.303136,0.05365701543073861,0.0
15.305519999999998,0.06203750546874349,0.0
15.307916,0.06945083785544479,0.0
15.310304,0.07458253024200882,0.0
15.312683999999996,0.07957445300171263,0.0
15.315079999999998,0.08722010281389121,0.0
15.317467999999998,0.09300342150651314,0.0
15.319851999999996,0.09971790575891339,0.0
15.322247999999998,0.10242818851847993,0.0
15.324631999999998,0.10406753609140794,0.0
15.327012,0.10406753609140795,0.0
15.329407999999995,0.1018691100110391,0.0
15.331795999999995,0.09859974874403168,0.0
15.334176,0.09439922191724598,0.0
15.336575999999996,0.08912775990382174,0.0
15.338963999999995,0.08292513233061918,0.0
15.341359999999998,0.07844506625011308,0.0
15.343756,0.07289406498296841,0.0
15.346139999999998,0.0644097974096286,0.0
15.348523999999998,0.057136234649787496,0.0
15.35092,0.05144546375578263,0.0
15.353307999999998,0.04203003062266447,0.0
15.355687999999995,0.034616698235963174,0.0
15.358088,0.02948500584939914,0.0
15.360471999999998,0.024493083089695316,0.0
15.362852,0.016847433277516748,0.0
15.365247999999998,0.011064114584894817,0.0
15.367632,0.004349630332494565,0.0
15.370012,0.001639347572928017,0.0
15.372428,0.0,0.0
15.374816,0.0,0.0
15.377195999999998,0.0,0.0
15.379592,0.0,0.0
15.381975999999998,0.0,0.0
15.384356,0.0,0.0
15.386751999999998,0.0,0.0
15.389139999999998,0.0,0.0
15.391531999999998,0.0,0.0
15.393936,0.0,0.0
15.396324,0.0,0.0
15.398704,0.0,0.0
15.4011,0.0,0.0
15.403484,0.0,0.0
15.405863999999998,0.0,0.0
15.408272,0.0,0.0
15.41066,0.0,0.0
15.41304,0.0,0.0
15.415436,0.0,0.0
15.417824,0.0,0.0
15.420203999999998,0.0,0.0
15.422608,0.0,0.0
15.424992,0.0,0.0
15.427376,0.0,0.0
15.429776,0.0,0.0
15.432164,0.0,0.0
15.434544,5.655570709179699e-05,0.0
15.436947999999996,5.655570709179698e-05,0.0
15.439335999999996,5.655570709179698e-05,0.0
15.44172,5.655570709179699e-05,0.0
15.444115999999998,5.655570709179699e-05,0.0
15.446503999999996,5.655570709179699e-05,0.0
15.448884,5.655570709179699e-05,0.0
15.451279999999995,5.655570709179699e-05,0.0
15.453668,5.655570709179699e-05,0.0
15.456048,5.655570709179699e-05,0.0
15.458444,5.655570709179699e-05,0.0
15.460832,5.655570709179699e-05,0.0
15.463212,0.0006721899216244347,0.0
15.465615999999995,0.0006721899216244347,0.0
15.468003999999995,0.0012406023079139215,0.0
15.470384,0.005114368052736058,0.0
15.472787999999998,0.011874178275510218,0.0
15.475175999999998,0.020309328162737658,0.0
15.47756,0.031211213647336485,0.0
15.479955999999998,0.04658193547572355,0.0
15.482343999999998,0.06529400275416854,0.0
15.484724,0.09104541950910809,0.0
15.487119999999996,0.120007745966094,0.0
15.489507999999995,0.15623050958833384,0.0
15.491892,0.2046944033988136,0.008455240361950812
15.494287999999996,0.27331338672671435,0.016590844633068168
15.496675999999995,0.35952628031817835,0.024835753835604157
15.499056,0.46501031969552836,0.03282628593536117
15.501452,0.5829678066865953,0.04098783879332016
15.50384,0.7140031457691942,0.04940086115501205
15.50622,0.8644947262349131,0.0577696335675607
15.508623999999998,1.0399369936438048,0.06584846789441448
15.511011999999996,1.2372475781839651,0.0736847109851562
15.513396,1.4458321352610621,0.08160562693548394
15.515791999999998,1.668184058685143,0.08957479387684959
15.518179999999996,1.90422013453644,0.09753280691004655
15.52056,2.157899238337413,0.10531153471447356
15.522963999999998,2.422331124117276,0.11307739381765278
15.525351999999998,2.693604138181812,0.12095592189217422
15.527732,2.9776773609420286,0.12881188884542494
15.530136,3.2768324323980638,0.13661418924798768
15.532519999999998,3.58594888990007,0.1443383500651154
15.534903999999996,3.9071232778509515,0.1519703456848327
15.537299999999998,4.228624426883798,0.159599888947493
15.539687999999998,4.547009109871082,0.15868863998146
15.542068,4.8446342988631335,0.15805529350511066
15.544463999999998,5.121175128635855,0.15727724006157823
15.546847999999995,5.373509445570078,0.15683490157293078
15.549232,5.6221228919809265,0.15612087556173831
15.551627999999996,5.865527119659048,0.15503289266715692
15.554015999999995,6.093666298901989,0.15388064037802418
15.556396,6.288753840417472,0.153112640933821
15.558792,6.456095302452578,0.15271955864431727
15.56118,6.6212042421736585,0.1521991515945614
15.563564,6.775841835027439,0.1515738782908782
15.56596,6.91074364724438,0.15095782589082946
15.568348,7.015897279234527,0.15067927234980466
15.570728,7.112300229992201,0.15040152154343023
15.573124,7.2061930150399975,0.1499082254985616
15.575512,7.280070480197234,0.1494358539529429
15.577892,7.330440280650276,0.1490630128649664
15.580288,7.36274774427306,0.14882816544787725
15.582672,7.38183379446171,0.14872367851378
15.585072,7.397569165321457,0.14857987389636368
15.587467999999998,7.400734749053131,0.14855794395416724
15.589851999999995,7.404597285061235,0.14860960075865082
15.592236,7.416139567115174,0.1486935587094727
15.594631999999995,7.437133274393757,0.14864014495157007
15.597019999999995,7.4491420871565195,0.14866353154689843
15.5994,7.451467157269163,0.14879587092611798
15.601796,7.448110790366648,0.14907860608481713
15.604187999999995,7.458023058726508,0.14921385208230897
15.606568,7.475059786340499,0.14919218153449318
15.608971999999998,7.483438380520637,0.14918947006463923
15.611359999999998,7.488743938767716,0.14923837755992375
15.61374,7.499262507463259,0.14930498165018713
15.616135999999996,7.528172069928894,0.14910206221108277
15.618523999999995,7.553823500864238,0.14889048076804323
15.620904,7.570303045828658,0.1487956612609393
15.6233,7.58952886564417,0.1487024783758562
15.625688,7.612571895497412,0.14858901306121683
15.628068,7.634778203447364,0.14840888981249917
15.630464,7.650980105015934,0.1482144770722477
15.632852,7.661222926173496,0.1480786626363506
15.635236,7.6782162236749825,0.147880076148104
15.637632,7.69590836931077,0.147644855475232
15.64002,7.709970296363931,0.1473846004470461
15.642404,7.716722668565724,0.14721582654573256
15.6448,7.721425718192859,0.14711625232125713
15.647188,7.7325997049102,0.14697052598752863
15.649583999999995,7.745311157523004,0.14674544971713488
15.651979999999998,7.744893744500292,0.1466595635999854
15.654367999999998,7.73902910774577,0.14664009386093488
15.656748,7.732046313976367,0.14667868042493046
15.659143999999998,7.72240979315449,0.1467474036088981
15.661531999999998,7.71179678080246,0.14675840801234966
15.663916,7.691220486546588,0.14688588411422643
15.666311999999998,7.671667905649113,0.1470310991986202
15.668699999999998,7.6550013692295895,0.14717190031416938
15.67108,7.636472501690509,0.1473377628123266
15.673475999999996,7.6197134174723695,0.14744866816087743
15.675863999999995,7.60705108254568,0.14752693445558387
15.678248,7.600767136910577,0.14752786646671534
15.680643999999996,7.596625061648753,0.14749036272581093
15.683031999999995,7.583730409296587,0.14754540004724512
15.685412,7.575119497690975,0.14752238833135176
15.687811999999996,7.566601133883979,0.1475298716291524
15.690199999999995,7.563669763435653,0.14746613418973284
15.69258,7.564230737800963,0.1473310714191949
15.694975999999995,7.5572026180611855,0.1472983187160094
15.697364,7.550639133172362,0.14731256528935854
15.699759999999998,7.558043131680215,0.14714915417409286
15.702156,7.57052226686754,0.146904508568778
15.704544,7.585050724629525,0.1465907334998495
15.706923999999995,7.601441513511066,0.14625181810869997
15.709328,7.615690432019331,0.1459522635616043
15.711712,7.632732847206931,0.1456181388700979
15.714095999999998,7.647540844222636,0.14529128273928313
15.716492,7.663699315678701,0.14493264320021715
15.71888,7.686655485306935,0.14448052919491414
15.721259999999996,7.709332115681447,0.14404425960100464
15.723655999999998,7.730006645309543,0.14364067441789194
15.726043999999998,7.7482597653106415,0.14329051772430657
15.728424,7.76651288531174,0.14294172153849843
15.730819999999998,7.792634638671647,0.1424787850978725
15.733207999999998,7.809025427553188,0.14215184848410417
15.735591999999995,7.823042028635974,0.14183735299793693
15.737987999999998,7.837338168972482,0.1415128314889481
15.740371999999995,7.8502838348686295,0.14122105220378978
15.742752,7.8640208966976965,0.14092168248514153
15.745151999999996,7.875383770728009,0.1406345093780264
15.747536,7.8796694073324325,0.1404567810082026
15.749931999999998,7.885537835802691,0.14027213700633703
15.752328,7.889916020205731,0.14012626030832326
15.754715999999998,7.894993052743072,0.13994638467499124
15.757095999999995,7.900861481213331,0.13976231804317416
15.7595,7.8991408155785034,0.1396727936405366
15.761888,7.898351315503454,0.13957208845500174
15.764267999999998,7.896910189122348,0.13946898334041716
15.766668,7.888252055688492,0.13947694202392916
15.769052,7.88196811005339,0.13947234147919046
15.771435999999998,7.87447345960479,0.1394923432902626
15.773832,7.869912075462384,0.13947275065035197
15.776215999999998,7.867864648745594,0.13943439745802072
15.778596,7.863256042774946,0.1394508583042097
15.781,7.865445134976468,0.13937945838031973
15.783383999999998,7.869636327924404,0.13927982828018817
15.785764,7.866890053073313,0.13927516064298284
15.788159999999998,7.867356583782137,0.13921837142610094
15.790547999999998,7.87490035191685,0.13906129210723261
15.792944,7.887099947850455,0.13885197185348386
15.795347999999995,7.903024206023172,0.13860125857716935
15.797732,7.916946363449473,0.13838041744962537
15.800116,7.936874823115025,0.13808097107428646
15.802512,7.957826996138971,0.13780270658614627
15.804896,7.979850104349556,0.13750903009756477
15.807275999999998,8.013466508158062,0.13707543511639883
15.809683999999995,8.048014077526346,0.13663338739277595
15.812068,8.083492812454406,0.13618557495222022
15.814448,8.1253971585023,0.13564114009511716
15.816851999999995,8.165439173430638,0.13512006538018503
15.819239999999995,8.210416555411587,0.1345403072703828
15.82162,8.255393937392535,0.13396850110539837
15.824023999999998,8.301162715306404,0.13340200663626428
15.826411999999998,8.351355003593685,0.13277235083482808
15.828792,8.400755895948048,0.1321518826175691
15.831195999999998,8.45201911942197,0.13151725540231263
15.833583999999998,8.50900910588142,0.13081756824338853
15.835963999999995,8.56520769640795,0.13013043221673143
15.838359999999998,8.614748358389175,0.12951852874257816
15.840747999999998,8.659772962198367,0.12894719556367598
15.843128,8.701492212649027,0.12839589890015665
15.845523999999996,8.743863089405744,0.12785100176107062
15.847911999999996,8.781670686162187,0.12738426320638452
15.850296,8.818686886985713,0.1269224990775692
15.852691999999998,8.856494483742154,0.12646168329454469
15.855076,8.88643344713979,0.12609121287205763
15.85746,8.917443345724065,0.1257092257726405
15.859855999999995,8.946451143561923,0.12535206529911622
15.86224,8.968381703973892,0.12507783114755358
15.86462,8.99073157326644,0.12478717516579431
15.867016,9.008285845133239,0.12454513075906534
15.869404,9.020904749947423,0.12435608599951824
15.871783999999998,9.027005495843158,0.12422448478222997
15.874184,9.0294741272984,0.12415283193259691
15.876568,9.034177176925533,0.1240807993801446
15.878947999999998,9.041533953605143,0.12399190319728531
15.881344,9.05145190953861,0.12386064613635041
15.883731999999998,9.058017290285301,0.1237752755696192
15.886111999999995,9.067376167711329,0.12366686341829367
15.888507999999998,9.081670412189967,0.12350956255647393
15.890895999999998,9.100620484467496,0.12331574741959425
15.893292,9.117987764879189,0.1231265402525394
15.895688,9.136705519731242,0.12291402933738338
15.898076,9.153700713090599,0.12271107534332747
15.900455999999998,9.164829373837565,0.12256363959477105
15.902848,9.179962236077365,0.12237526453574268
15.905236,9.192953227943889,0.12221376010632251
15.907632,9.206875385370187,0.1220453030506094
15.910024,9.228014549849238,0.1217980522742934
15.912412,9.24836231839537,0.12155386912175589
15.914796,9.269781022128141,0.12129655873301715
15.917199999999998,9.294412531420827,0.12100029856203144
15.919584,9.32090637183307,0.12068718241507788
15.921968,9.345026024446561,0.12037900771807618
15.924371999999998,9.363698453328238,0.12011066552339218
15.926755999999996,9.373710852918192,0.1199204556970879
15.929136,9.379439511761591,0.11978305588494924
15.931531999999995,9.386798184299069,0.1196108311133308
15.933919999999995,9.39322569127677,0.1194462409896485
15.9363,9.40030482456053,0.119287134858118
15.938692,9.400726029298978,0.11918358639032406
15.94108,9.40142677329115,0.11906926541283192
15.943459999999998,9.399334020603984,0.1189762527876203
15.945856,9.401245469409652,0.11884463023523802
15.948244,9.408371824521653,0.11865586377510326
15.950627999999998,9.413356309260378,0.11849247587340721
15.953024,9.417549398066182,0.11833053720099278
15.955412,9.42095109093907,0.11817050718438676
15.957808,9.418346481572708,0.1180685557681577
15.960203999999996,9.415322563325766,0.1179826889052415
15.962591999999995,9.414440515452101,0.11787258825875366
15.964972,9.415700337951712,0.11773886855457072
15.967368,9.41938157007832,0.1175706191958773
15.969756,9.42878956519046,0.11735756952803332
15.97214,9.440479200302736,0.11711497606688606
15.974535999999995,9.457383741721346,0.11681681844699415
15.976924,9.472286182393537,0.11653676581005122
15.979304,9.48462744381187,0.11629644918884478
15.981707999999998,9.497108474857063,0.1160511234291925
15.984095999999996,9.50335088623753,0.11584268759142634
15.986476,9.51331795985711,0.1156071147896506
15.988871999999995,9.52286572459611,0.11538775922525664
15.991259999999995,9.530551158215552,0.11518086924946182
15.99364,9.533161455155522,0.11502383590291737
15.996036,9.536283608774689,0.1148767162168479
15.998424,9.541687402393993,0.11470103588877306
16.000808,9.552306102319632,0.11447275948679986
16.003204,9.564787133364826,0.11423252133486467
16.005588,9.581132596275994,0.11396158750306506
16.007967999999998,9.599759699187299,0.11366331646317268
16.010375999999997,9.616524470979046,0.113379418751795
16.01276,9.628074336464461,0.11314869114507746
16.015144,9.640275828255934,0.11292351375995294
16.01754,9.649963362621794,0.11270854112011963
16.019928,9.660442292920573,0.11249325773164474
16.022308,9.670781453592488,0.11228403083723185
16.024704,9.684473189451182,0.11203642537705058
16.027092,9.704310997175986,0.1117333589347327
16.029484,9.725219740087425,0.11142039982538902
16.031892,9.747571505237843,0.11110945602091717
16.034276,9.771413514455483,0.11077460193526634
16.036655999999997,9.7956748325537,0.11042509630121958
16.039064,9.823940352144753,0.11004154356779056
16.041448,9.85527890766886,0.10962995854437725
16.043827999999998,9.889178642446826,0.10918612540234808
16.046232,9.919074175731955,0.10877651224236932
16.04862,9.943754802710753,0.10841848150412076
16.051004,9.966712868196854,0.10806866911290343
16.0534,9.988088141817123,0.10772210047685164
16.055788,10.009603185064249,0.10737345611373958
16.058172,10.027905422751457,0.10705541963549103
16.060575999999998,10.046487199692388,0.10672614996499062
16.062963999999997,10.061064775140489,0.10642935903708459
16.065344,10.070287674655393,0.10618455996457894
16.067739999999997,10.079650343797157,0.10593578307543638
16.070124,10.088081847379145,0.10569312042099928
16.072508,10.094231710960994,0.10547655701743883
16.074904,10.09651714267687,0.1052877596579653
16.077288,10.095589768832829,0.10512977259338557
16.079672,10.096012869429149,0.10495161408694026
16.082068,10.094805956331388,0.10480379648319964
16.084452,10.093459273606769,0.10466091888168572
16.086831999999998,10.093043756441928,0.10451324513426916
16.089228,10.093838944090582,0.10435125367711443
16.09162,10.085554793566931,0.10425989601582358
16.093999999999998,10.080203909349477,0.1041480933884591
16.096396,10.073921859572243,0.10404122956263864
16.098784,10.063495838675315,0.10396943572003935
16.101163999999997,10.05171934333803,0.10391716263258509
16.103564,10.034727941694412,0.10391000793468409
16.105947999999998,10.023603072663184,0.10386196728840506
16.108331999999997,10.012338434005096,0.103818697974672
16.110727999999998,10.004007061653203,0.10375493672160112
16.113115999999998,10.001821761167422,0.10364034505074303
16.115496,9.998285986241278,0.10354563637443523
16.1179,9.993679276128496,0.1034608862584744
16.120288,9.988793026761993,0.103385775655956
16.122667999999997,9.985629338888188,0.10330525405734423
16.125064,9.987820326947578,0.10317490391321547
16.127451999999998,9.989731775753247,0.10305435470680531
16.129835999999997,9.990851828625997,0.10293420659390062
16.132232,9.99490514780494,0.10279459578952463
16.134619999999998,9.99667682698375,0.10267980338047003
16.136999999999997,9.998168966908834,0.10257515556804521
16.139395999999998,10.005387869819453,0.10243552162819973
16.141788,10.016750743849762,0.10226346343723579
16.144167999999997,10.03197804974605,0.10206742106796901
16.146563999999998,10.054003053814503,0.10182773476859268
16.148951999999998,10.077750619375653,0.10158320144569649
16.151332,10.106433551989419,0.10130476097774582
16.153731999999998,10.134464858297124,0.10102464509304009
16.156119999999998,10.169433632403855,0.10069915291433973
16.1585,10.20496148501803,0.10035704514135682
16.160895999999997,10.238347467258928,0.10003539912801299
16.163283999999997,10.277088125433018,0.0996706595565189
16.165668,10.318901819540164,0.09928427835324914
16.168063999999998,10.368863686259838,0.09884248645362556
16.170451999999997,10.417242761113675,0.09840284768240853
16.172836,10.464131591900292,0.09799047831083471
16.175231999999998,10.510880653060049,0.09758292718743423
16.177619999999997,10.55590715272711,0.09717931817680192
16.180004,10.598652012394034,0.09680101272852833
16.182408,10.645680612807512,0.096390276451639
16.184791999999998,10.689915716541655,0.0959940277794023
16.187172,10.736292690649076,0.09558334480504103
16.189576,10.775173118450025,0.09523583790293647
16.191964,10.812982611064337,0.09489894227592319
16.194343999999997,10.850931873305509,0.09456124653657982
16.19674,10.885296242934428,0.0942349232188751
16.199127999999998,10.91858967737671,0.09391887464770898
16.201511999999997,10.950392867751772,0.09362631960856328
16.203908,10.977120921447362,0.09336942345685462
16.206296,11.00315012700865,0.09313558844274498
16.208675999999997,11.030250267756578,0.09289418491744326
16.211071999999998,11.04841083995906,0.09270622676809824
16.213459999999998,11.06522093772118,0.09253600877684551
16.215856,11.074581711005077,0.09239793935823068
16.218256,11.083662945035252,0.09226862562830783
16.22064,11.091952783132509,0.09213936067131746
16.223019999999998,11.104526361976317,0.09197913095396726
16.225416,11.124689034925217,0.09178653772947445
16.227804,11.145271016754695,0.09158208535306823
16.230183999999998,11.161848797091338,0.09140186599546882
16.232584,11.180149138920678,0.09121894590926512
16.234968,11.195236675190104,0.09106002157628974
16.237347999999997,11.213816556273166,0.09086954967565654
16.239752,11.233467372542865,0.09067233801429009
16.24214,11.249113987319733,0.09049816786714956
16.244519999999998,11.274351796948103,0.0902823748931708
16.24692,11.299729376203333,0.0900633304507436
16.249308,11.323384393965867,0.08984713798441671
16.251687999999998,11.348761973221096,0.08962884058664687
16.254084,11.375350257289828,0.0893999783325714
16.256472,11.403940642104974,0.08916202692240463
16.258851999999997,11.43811802027879,0.0889036830866309
16.261252,11.472714707333186,0.08863421817791901
16.26364,11.508754416626559,0.08837108849537548
16.266019999999997,11.544654356293071,0.08811217866838744
16.268416,11.583347792638918,0.08784565069243809
16.270804,11.618968193051709,0.08759942269823968
16.273187999999998,11.644066233053216,0.08739726177080709
16.275584,11.668093337868088,0.08720304902487681
