Time,Force,Position
17.035816,0.1244057619330717,0.0
17.038196,0.11797202215981809,0.0
17.040599999999998,0.11060711682678614,0.0
17.042987999999998,0.10124011074733735,0.0
17.045368,0.09587730616072226,0.0
17.047772,0.09237683269366381,0.0
17.050159999999998,0.08780542403996684,0.0
17.05254,0.081231914639853,0.0
17.054935999999998,0.07079397337376568,0.0
17.05732,0.06142696729431689,0.0
17.0597,0.05192019158800788,0.0
17.062096,0.0393403799486435,0.0
17.06448,0.0266207986824189,0.0
17.06686,0.013621678162473883,0.0
17.069264,0.004766528762222779,0.0
17.071652,0.001917681601222229,0.0
17.074032,0.0,0.0
17.076428,0.0,0.0
17.078816,0.0,0.0
17.081196,0.0,0.0
17.0836,0.0,0.0
17.085984,0.0,0.0
17.088368,0.0,0.0
17.090764,0.0,0.0
17.093148,0.0,0.0
17.095532,0.0,0.0
17.097936,0.0,0.0
17.100324,0.0,0.0
17.102704,0.0,0.0
17.1051,0.0,0.0
17.107488,0.0009865160414439082,0.0
17.109868,0.001041866523109496,0.0
17.112264,0.0021681521914136146,0.0
17.114652,0.0021681521914136146,0.0
17.117032,0.003853516367158573,0.0
17.119436,0.005818419796623953,0.0
17.121824,0.007643553599229122,0.0
17.124204,0.011331018521390934,0.0
17.1266,0.016089418630191275,0.0
17.128988,0.018985487619434974,0.0
17.131368,0.021741786981818462,0.0
17.133764,0.02757112227725733,0.0
17.136152,0.035542327945973264,0.0
17.138531999999998,0.037647001002298855,0.0
17.140928,0.04268494036481962,0.0
17.143316,0.04371867823450668,0.0
17.145712,0.04647497759689017,0.0
17.148108,0.05137314733255072,0.0
17.150496,0.057342252254849804,0.0
17.152876,0.06559299717728616,0.0
17.155272,0.07471955717783524,0.0
17.15766,0.08263541236488559,0.0
17.16004,0.08840939717865887,0.0
17.162436,0.09596129396679419,0.0
17.164824,0.0976838554594906,0.0
17.167203999999998,0.0979161728849679,0.0
17.1696,0.09614638956402831,0.0
17.171984,0.0924589246418665,0.0
17.17438,0.08770052453306615,0.0
17.176776,0.08480445554382245,0.0
17.179164,0.08396583778266119,0.0
17.181544,0.08298745039463971,0.0
17.18394,0.08093812781997971,0.0
17.186328,0.08754883453704501,0.0
17.188708,0.09136604457477535,0.0
17.191104,0.10011862166511772,0.0
17.193492,0.1083593420762624,0.0
17.195888,0.11217655211399273,0.0
17.198283999999997,0.1169249277115014,0.0
17.200671999999997,0.11818095849537404,0.0
17.203052,0.11571232704013341,0.0
17.205455999999998,0.11738766670458668,0.0
17.207843999999998,0.1210651071154568,0.0
17.210224,0.12423069084712926,0.0
17.212619999999998,0.1375465479377462,0.0
17.215007999999997,0.15221287946872203,0.0
17.217392,0.17223388693289057,0.0
17.219787999999998,0.19552305043864024,0.0
17.222175999999997,0.21974337950416828,0.0
17.224556,0.24289277338305776,0.0
17.22696,0.2639847160338648,0.0
17.229343999999998,0.2820036227516165,0.0
17.231724,0.2986720550290092,0.0
17.234128,0.31054488988065004,0.0
17.236515999999998,0.3219984158517103,0.0
17.238896,0.3306584451434356,0.0
17.2413,0.3390389351814405,0.0
17.243688,0.35077200040622114,0.0
17.246067999999998,0.35850086413816806,0.0
17.248472,0.3674404326836138,0.0
17.250856,0.38010466346817284,0.0
17.253235999999998,0.38983562794653676,0.0
17.255644,0.39570216055892704,0.0
17.258028,0.4015686931713173,0.0
17.260412,0.3994268227980403,0.0
17.262815999999997,0.3990075139174597,0.0
17.2652,0.39337329873054666,0.0
17.26758,0.3843865083568577,0.0
17.26998,0.3744685524233906,0.0
17.272364,0.364969905370504,0.0
17.274748,0.3556110279444777,0.0
17.277144,0.3434586538391164,0.0
17.279532,0.3307944230545575,0.0
17.281912,0.32013229301641527,0.0
17.284308,0.3060250399928802,0.0
17.286696,0.2947112836486802,0.0
17.289075999999998,0.2815351961849235,0.0
17.291472,0.26635700797474987,0.0
17.29386,0.2550432516305498,0.0
17.296243999999998,0.24279832972657142,0.0
17.298648,0.22375570965042438,0.0
17.301032,0.2045733199474171,0.0
17.303411999999998,0.1923283980434387,0.0
17.305812,0.18073510244551824,0.0
17.3082,0.1732857779672917,0.0
17.310579999999998,0.1609010864364531,0.0
17.312976,0.15065826527889156,0.0
17.315364,0.1384133433749132,0.0
17.317743999999998,0.1243060903513782,0.0
17.320148,0.11364396031323604,0.0
17.322536,0.10205066471531556,0.0
17.324915999999998,0.09432180098336859,0.0
17.32732,0.08538223243792288,0.0
17.329708,0.07545614785103325,0.0
17.332088,0.06931007598492249,0.0
17.334491999999997,0.062232838559033395,0.0
17.33688,0.05603141621125703,0.0
17.33926,0.050761159423259004,0.0
17.341656,0.04362857151570433,0.0
17.344044,0.037427149167927984,0.0
17.346424,0.03756691879478819,0.0
17.34882,0.03956901954120504,0.0
17.351204,0.037287379541067776,0.0
17.353583999999998,0.03724015771282462,0.0
17.35598,0.03458453480248063,0.0
17.358368,0.03718914416884298,0.0
17.360747999999997,0.04235303693119379,0.0
17.363152,0.05356855790316906,0.0
17.365536,0.07078848525652562,0.0
17.367919999999998,0.08949676081923212,0.0
17.370316,0.11341804683040184,0.0
17.3727,0.138548141797201,0.0
17.37508,0.17354707501135502,0.0
17.377484,0.21940136251430775,0.009105901219390563
17.379872,0.27227564110361474,0.01793297445595768
17.382251999999998,0.3310145564474427,0.026744501116861098
17.384656,0.3955336894005973,0.03558884617539865
17.387044,0.4669883942949115,0.04429376323567814
17.389423999999998,0.5423056351973299,0.05319084367021596
17.391828,0.6222768080407707,0.062220866393468674
17.394216,0.7040058438359902,0.0715885528039238
17.396596,0.7899695026916513,0.08111530739018506
17.398992,0.883612907593147,0.09066749980569909
17.40138,0.9814909355550845,0.10027110590227803
17.40376,1.0825326513908253,0.1103491056860893
17.406156,1.1949315536832705,0.12029160292437521
17.408544,1.3239025487387532,0.1298036412682375
17.410923999999998,1.4619037642804291,0.13916652699084023
17.413328,1.6079587087781466,0.14833487610397064
17.415712,1.758947124470607,0.1575443489646823
17.418096,1.9225506532615138,0.16656719564823816
17.420492,2.1026809488450837,0.1753200994729687
17.42288,2.2870477633469646,0.18390946139139402
17.425259999999998,2.461636391542239,0.18363144016794772
17.427656,2.632638231267391,0.1838515327206177
17.430039999999998,2.8125777436801194,0.18396598934886138
17.43242,3.0025730857953055,0.1838596988518394
17.434824,3.2002500698141962,0.18371557054329907
17.437212,3.398391688684041,0.1834985117527751
17.439591999999998,3.6054709802414626,0.18310739455144617
17.441988,3.8307542741138696,0.18212516583099458
17.444371999999998,4.064465279852524,0.18084155450152314
17.446752,4.293894440702495,0.1795455997717592
17.449151999999998,4.5179708214771415,0.17824532564928766
17.451535999999997,4.752339141095463,0.1762870758967289
17.453936,4.97563170936867,0.17435740056261478
17.456332,5.172158481407392,0.17290450279300273
17.45872,5.3487152595259255,0.17170345055389766
17.4611,5.5130290115983485,0.1707414134418394
17.4635,5.6710134920652955,0.16972464497785011
17.465888,5.812427775627077,0.16883320783522854
17.468268,5.926190423364967,0.168314562973002
17.470664,6.024729556922308,0.16807424954998545
17.473052,6.134584342681721,0.16742084977507457
17.475436,6.250029913515541,0.16636351540890776
17.477828,6.344761316324501,0.16545907642849111
17.480216,6.416821776332555,0.164836179421868
17.482595999999997,6.471424303988167,0.16448490912449826
17.485,6.533525273808117,0.16382178330326472
17.487388,6.581010925641075,0.163180310260767
17.489767999999998,6.601449346127956,0.1628516989281712
17.492172,6.604522382061013,0.16278384145520688
17.49456,6.611971706539239,0.1626525708586135
17.49694,6.623612223965402,0.16238914629583948
17.499336,6.622171097584297,0.16227461234641027
17.501724,6.612394807135557,0.16237820519962415
17.504103999999998,6.612207815680454,0.1624302248202508
17.5065,6.627663647286477,0.1622659831701452
17.508888,6.648241837400219,0.16195808431452163
17.511264,6.66840261449125,0.16156100541914684
17.513659999999998,6.6811593930744255,0.16136013045173744
17.516047999999998,6.706950593636629,0.16105663242553594
17.518444,6.744754398677333,0.1605176055230459
17.52084,6.773805626627696,0.1601188681908316
17.523224,6.793777516405751,0.15990477965658054
17.525608,6.823478474804304,0.15963622142221115
17.528,6.864818054771148,0.1592382699753525
17.530388,6.915004655484823,0.15864411762200567
17.532784,6.947546332390952,0.15829730591817756
17.53518,6.98073963560314,0.15795305963425496
17.537568,7.017842696651674,0.15760832326908017
17.539948,7.067517440686149,0.1570113913524792
17.542351999999998,7.110116843152607,0.15644263700016917
17.544739999999997,7.1448948340885,0.15597726826171202
17.54712,7.181860021368044,0.15554492993886881
17.549516,7.232513152790541,0.15491711266524227
17.551904,7.280931866041146,0.15430174242660605
17.554284,7.32171615921629,0.15374970317523762
17.55668,7.358775790152319,0.15326324780599776
17.559064,7.392528171871947,0.1529224005726434
17.561443999999998,7.439364093256714,0.15235318578669638
17.56384,7.484060040126075,0.15172314627454353
17.566228,7.513485250986646,0.1512895408012837
17.56862,7.538114864421463,0.15092862965398918
17.571019999999997,7.564978896028175,0.15055986255834708
17.573404,7.591750379836269,0.15016600729979293
17.575784,7.614984192860353,0.14978212552110812
17.57818,7.628998898085272,0.14955676253995637
17.580568,7.651067332266231,0.14926904745316358
17.582948,7.674299249432446,0.1489933687093288
17.585344,7.701862129173458,0.1486003891224381
17.587732,7.71345542477138,0.1484290110483906
17.590128,7.728633612981553,0.1482178995639121
17.592523999999997,7.752332060856591,0.14789346237236603
17.594908,7.777008896119651,0.1475232008088091
17.597292,7.794283628732726,0.14721687971990913
17.599695999999998,7.817424893958193,0.1468308906574108
17.602079999999997,7.8438242907139495,0.14646144645574985
17.60446,7.868593673775628,0.1461387505938379
17.606856,7.8970423931060445,0.145706329996799
17.609244,7.918693414264292,0.14537128738681857
17.611624,7.940436983221157,0.14506954014648868
17.614027999999998,7.972702912589304,0.1446318722094921
17.616415999999997,8.009532121957724,0.1441102324330771
17.6188,8.044406452407973,0.14358375687019356
17.621195999999998,8.076347516552026,0.14310156243297836
17.623583999999997,8.110662768494834,0.14261223994318073
17.625964,8.150192926743973,0.14204063397974193
17.62836,8.189630537194496,0.1414451087242247
17.630748,8.230139082831656,0.1408355019257873
17.633128,8.269948780334516,0.14026549187392412
17.635524,8.32293456530113,0.1395402103406732
17.637912,8.367400090602883,0.13891660550126758
17.640292,8.404276521799547,0.13839117560172565
17.642692,8.43714875150338,0.13792253623529993
17.645076,8.473745643446323,0.13741910198845736
17.64746,8.502473902030458,0.137018620973115
17.649856,8.524963540949868,0.13667648942174984
17.652244,8.548524115055915,0.1363180053734889
17.65464,8.57175792808,0.13601082833683525
17.657035999999998,8.599927108156697,0.13564518776857207
17.659423999999998,8.627165122673615,0.1352918804830879
17.661804,8.6491882308842,0.13501376890975988
17.664203999999998,8.670652260587344,0.13476326452803042
17.666591999999998,8.689322793611154,0.1345404216626599
17.668972,8.706550304395986,0.13431815456228158
17.671367999999998,8.716980117008653,0.13417426276657515
17.673755999999997,8.728480864807956,0.13401654634098753
17.676136,8.739841842980399,0.13386639497115138
17.678532,8.751342590779702,0.13371141524143612
17.68092,8.762051942646089,0.1335604475242309
17.683304,8.767174301153805,0.13346506344450196
17.6857,8.781887854513021,0.13326893404006357
17.688084,8.795390703058741,0.13309266773068334
17.690464,8.812897753097296,0.1328697084322594
17.692871999999998,8.827983393508852,0.13269073592873387
17.695256,8.849634414667099,0.13241916782838922
17.69764,8.871564975079067,0.13213374703232536
17.700035999999997,8.890702038811702,0.13187394440180372
17.702424,8.90839608030536,0.1316156282322278
17.704808,8.919012884373128,0.13144278436145107
17.707203999999997,8.92655665250784,0.1313076972983123
17.709592,8.937173456575609,0.13113485342753556
17.711972,8.943274202471345,0.13099960559628512
17.714368,8.955101711352613,0.13080657368412046
17.716756,8.967860385793658,0.13060496771389352
17.71914,8.985042570608117,0.130338062958344
17.721536,8.99808078430288,0.13012466982599838
17.723924,9.007254566131675,0.12995201754462246
17.726319999999998,9.016707887214187,0.12976907850297337
17.728716,9.023088172363645,0.1296233671688304
17.731104,9.032401723819298,0.12944726692665304
17.733484,9.03677990822234,0.12932636987223967
17.735879999999998,9.043579502252378,0.1291652357986874
17.738267999999998,9.044372794043165,0.12907194932087773
17.740648,9.039718862102145,0.12902326493333463
17.743052,9.029850023854788,0.12903930338036612
17.74544,9.025707948592965,0.12899943979483552
17.747819999999997,9.02771194519725,0.128887141625609
17.75022,9.026922445122201,0.1287994989314667
17.752608,9.031999477659543,0.12865090760509312
17.754987999999997,9.040149546129939,0.12846582631517006
17.757384,9.047647988294278,0.1282785922258208
17.759767999999998,9.05807969676481,0.12806042381656405
17.762148,9.06636953486207,0.12787156359448962
17.764543999999997,9.074379833705605,0.12769426551718716
17.766932,9.083600837362642,0.12749883024844172
17.769327999999998,9.09109927952698,0.1273126558101334
17.771724,9.101670757624372,0.12709070447667375
17.774112,9.106887559788577,0.1269375561703847
17.776491999999998,9.120392304192164,0.12668736591687846
17.778888,9.1296133078492,0.12649262482537957
17.781276,9.13683221075982,0.12631904541149988
17.783656,9.144702739976495,0.12614935793803045
17.786051999999998,9.15485490919331,0.12594574548892534
17.788439999999998,9.169151049529816,0.12569193735439302
17.790824,9.18423858579924,0.12543552425172175
17.793219999999998,9.192388654269637,0.1252529479896576
17.795607999999998,9.195743125314284,0.1251169101829607
17.797988,9.201891093038263,0.12495696053380845
17.800392,9.206316499269548,0.1248081355158275
17.80278,9.212744006247249,0.12463905810988432
17.805159999999997,9.219962909157866,0.12446885968708346
17.807555999999998,9.228112977628266,0.12429151746188537
17.809939999999997,9.2385446860988,0.12408382364857193
17.812324,9.25111826494261,0.12385083932545676
17.814728,9.261829512666864,0.12363425816085309
17.817116,9.277615897070591,0.12336404002649395
17.819495999999997,9.293402281474318,0.12309513874451061
17.821896,9.314543341811238,0.1227616485709086
17.824284,9.324602963229434,0.12254292285163351
17.826667999999998,9.33508189352821,0.12230727926774318
17.829064,9.347562924573406,0.1220508398803426
17.831452,9.360043955618599,0.12179532919824644
17.833831999999997,9.375458252969988,0.12151337035926518
17.836236,9.391663946254294,0.12123065119284275
17.838624,9.406147078045905,0.12095635857815318
17.841003999999998,9.428918152076903,0.12059292282446753
17.8434,9.451689226107902,0.12022915932645169
17.845788,9.471666803459565,0.11988693663992601
17.848167999999998,9.489502510437951,0.11957036230017143
17.850564,9.505475886296782,0.11927044484167386
17.852952,9.515722499170083,0.11901834148548841
17.855332,9.524898176856746,0.11877935491818023
17.857727999999998,9.527648243423574,0.11861544053684732
17.860115999999998,9.527604813311068,0.1184729998411743
17.8625,9.527142074317984,0.118346790030154
17.864895999999998,9.52560840013826,0.11823330907378828
17.867283999999998,9.527007992264734,0.11809453493499844
17.86968,9.527336649204567,0.11796838928947452
17.872076,9.533392069129931,0.11779542939055565
17.87446,9.541961446480908,0.11761298179873164
17.876839999999998,9.551601759018524,0.11741892820317483
17.879236,9.56152161080986,0.11721516771597135
17.881624,9.570230757787698,0.11702969932530125
17.884003999999997,9.580802235885091,0.11683230583669835
17.886408,9.59537791547532,0.11659856738132615
17.888796,9.604738688759214,0.11642013372023911
17.891175999999998,9.615961793162668,0.11622911769512953
17.893576,9.630909559805234,0.11601254714853855
17.895964,9.645997096074659,0.11579029820899188
17.898343999999998,9.65708043085125,0.11560387101778129
17.90074,9.672679823799875,0.11538949278771116
17.903128,9.691212483054695,0.1151518765527817
17.905511999999998,9.71202678230965,0.1148840948657311
17.907908,9.734563643057301,0.11460899351743496
17.910296,9.753887698245038,0.11436772641188855
17.912675999999998,9.772932214179052,0.1141378725795836
17.915076,9.788903694180016,0.11393983455737323
17.917464,9.80287307343456,0.1137600645508675
17.919843999999998,9.816051056756185,0.11358186493382454
17.92224,9.829648348958392,0.113389585368229
17.924623999999998,9.845247741907015,0.11318133063668383
17.92702,9.861358991534834,0.11298335209573969
17.92942,9.879751881162793,0.11275973290989874
17.931808,9.894280338924778,0.11256639377714482
17.934188,9.908669027059902,0.11237963243402155
17.936588,9.92105561444861,0.11220945522576824
17.938972,9.935164763330015,0.11203357758922572
17.941356,9.949693221092,0.11184428664817753
17.943752,9.969157045906595,0.11161721916798581
17.94614,9.994627172960444,0.11134090924489748
17.94852,10.023310105574206,0.11103515084944314
17.95092,10.049990937441553,0.11074794384180077
17.953308,10.083469467481068,0.11041446042326822
17.955688,10.123094069386694,0.11003377903179525
17.958092,10.16900451278529,0.1095962171756503
17.96048,10.216405200251106,0.10913704088564094
17.96286,10.260732851783867,0.10870322715960584
17.965256,10.306922834436184,0.10825900146959114
17.967644,10.35446329152886,0.1077970161756323
17.970028,10.399582338994538,0.1073667959558848
17.972424,10.439346710527023,0.10698816753717003
17.974812,10.477388520566814,0.10661682784265555
17.977192,10.51100682023319,0.1062921125010794
17.979588,10.548489551765536,0.10594306505190657
17.981976,10.581036916245274,0.10562978119726159
17.98436,10.614794985538511,0.10530078871451347
17.98676,10.645247701473211,0.10498058551729032
17.989144,10.67262738147486,0.10468692333715832
17.991528,10.694280298490975,0.10443051670833502
17.993924,10.713279488454619,0.10418665744426579
17.996312,10.726412145805872,0.10398349950269783
17.998692,10.736891076104648,0.10379086120269562
18.001088,10.73978091229834,0.10364397208141582
18.003476,10.728795812893972,0.1035943915330741
18.005855999999998,10.718090252743325,0.10353529726452734
18.008256,10.703100951846123,0.10351375220027945
18.01064,10.69160399576256,0.1034546733845106
18.01304,10.679595182999796,0.10338653738687141
18.015436,10.666235895796676,0.10333662484442634
18.01782,10.653854995981575,0.10325467752261598
18.020204,10.645106210606972,0.10313107901704115
18.0226,10.634774633366531,0.10300769218387529
18.024988,10.62593330019331,0.10286122977664883
18.027368,10.613507074407835,0.10272920940344281
18.029768,10.605224819742055,0.10256444204238212
18.032156,10.597733961009192,0.10239934672183397
18.034536,10.586471218208974,0.1022798912409104
18.036936,10.578933137647871,0.10214152558293207
18.039324,10.574188553766103,0.10198887900308358
18.041704,10.571026761750169,0.10183618143175657
18.0441,10.572008940853928,0.10165135271558293
18.046488,10.579649048502997,0.10143044153497295
18.048868,10.5900826528314,0.1011957681405551
18.051264,10.610247221638165,0.10090034229674492
18.053652,10.624637805631158,0.10066470263799242
18.056048,10.642241195184067,0.10040170600476502
18.058444,10.660496211043034,0.10014471574345853
18.060832,10.682056580260534,0.09988489615917846
18.063212,10.706689985411092,0.09960420837186232
18.065608,10.730484772800486,0.09935105799787687
18.067996,10.755862352055718,0.09910004112372181
18.07038,10.782822723176784,0.0988490422469023
18.072776,10.810434720603908,0.09860343050028947
18.075164,10.840700445083506,0.09835029964260267
18.077544,10.87254896142894,0.09809935561777458
18.079944,10.906259808893932,0.09784089373673586
18.082332,10.948398368225172,0.09751785363984039
18.084712,10.988534826809998,0.09720999359260658
18.087108,11.029742220581458,0.0968958405117498
18.089496,11.067876578419865,0.09660367207392051
18.091876,11.103589526631275,0.09633857978027321
18.094276,11.130782215177819,0.09611586334152136
18.096664,11.154901867791306,0.09591401678130909
18.099044,11.17622802372546,0.09572556610586633
18.10144,11.20146583335383,0.09549056420217877
