Time,Force,Position
16.292044,0.12357374537159538,0.0
16.294439999999998,0.12729840761070865,0.0
16.296836,0.13516704096951584,0.0
16.29922,0.14303567432832304,0.0
16.3016,0.15560970264748486,0.0
16.303995999999998,0.16632139984709005,0.0
16.306383999999998,0.17740283876581284,0.0
16.30878,0.1818263491392272,0.0
16.311184,0.1859703202589211,0.0
16.313568,0.18317682357958612,0.0
16.315948,0.177450060594056,0.0
16.318344,0.16608673708839297,0.0
16.320732,0.1525815432094528,0.0
16.323112,0.14000751489029098,0.0
16.325508,0.12743348657112913,0.0
16.327896,0.11798206134648573,0.0
16.330275999999998,0.1091822624279002,0.0
16.332672,0.1042468953752882,0.0
16.33506,0.09945129794953637,0.0
16.33744,0.09395450705626364,0.0
16.339836,0.08738678097635239,0.0
16.342223999999998,0.0798878893366628,0.0
16.34462,0.07038689695055637,0.0
16.347023999999998,0.060885904564449936,0.0
16.349412,0.04831187624528812,0.0
16.351792,0.03760017904568294,0.0
16.354195999999998,0.025957316286299444,0.0
16.356583999999998,0.02046287072624658,0.0
16.358964,0.013615605392614898,0.0
16.361359999999998,0.009841375992038595,0.0
16.363747999999998,0.0069983121512406125,0.0
16.366128,0.0069983121512406125,0.0
16.368524,0.0069983121512406125,0.0
16.370912,0.0069983121512406125,0.0
16.373292,0.0069983121512406125,0.0
16.375692,0.004946644243360742,0.0
16.37808,0.004105681148979612,0.0
16.38046,0.002333552494820161,0.0
16.382863999999998,0.0004216542138004998,0.0
16.385248,0.0004216542138004998,0.0
16.387628,0.0004216542138004998,0.0
16.390024,0.0004216542138004998,0.0
16.392412,0.00042165421380049986,0.0
16.394792,0.00042165421380049986,0.0
16.397188,0.00042165421380049986,0.0
16.399572,0.00042165421380049986,0.0
16.401956,0.00042165421380049986,0.0
16.40436,0.0,0.0
16.406744,0.003774229400576302,0.0
16.409124,0.012204286600044205,0.0
16.41152,0.018632243053095257,0.0
16.413908,0.02599136506592463,0.0
16.416292,0.03134838633233716,0.0
16.418696,0.0377763427853882,0.0
16.42108,0.04248173774574283,0.0
16.42346,0.04932900307937451,0.0
16.425864,0.05203229729331228,0.0
16.428252,0.05408396520119216,0.0
16.430632,0.05692702904199014,0.0
16.433032,0.05977009288278812,0.0
16.435416,0.06354432228336442,0.0
16.4378,0.06424551575088533,0.0
16.440196,0.0668090403379629,0.0
16.442584,0.06909302567132003,0.0
16.444964,0.07123724137781696,0.0
16.44736,0.07245029152453558,0.0
16.449748,0.07245029152453558,0.0
16.452128,0.07245029152453558,0.0
16.454524,0.0686760621239593,0.0
16.456912,0.06024600492449138,0.0
16.459308,0.05381804847144032,0.0
16.461712,0.04645892645861095,0.0
16.464095999999998,0.041101905192198425,0.0
16.466476,0.03467394873914738,0.0
16.468875999999998,0.029968553778792754,0.0
16.47126,0.02312128844516107,0.0
16.473644,0.0204179942312233,0.0
16.476048,0.01836632632334343,0.0
16.478436,0.015523262482545448,0.0
16.480816,0.012680198641747468,0.0
16.483211999999998,0.008905969241171164,0.0
16.485599999999998,0.008204775773650244,0.0
16.48798,0.005641251186572682,0.0
16.490375999999998,0.0033572658532155407,0.0
16.492763999999998,0.00121305014671861,0.0
16.495144,0.0,0.0
16.497548,0.0,0.0
16.499935999999998,0.0,0.0
16.502316,0.0,0.0
16.504716,0.0,0.0
16.507099999999998,0.0,0.0
16.50948,0.0,0.0
16.511876,0.0,0.0
16.514264,0.0,0.0
16.516644,0.0,0.0
16.519044,0.0,0.0
16.521432,0.0,0.0
16.523812,0.0,0.0
16.526208,0.0014887976847005448,0.0
16.528596,0.006328274698307642,0.0
16.530976,0.017684014772493754,0.0
16.533376,0.039512997571849416,0.0
16.53576,0.07637660723877994,0.0
16.538144,0.13190506235591226,0.009414633545618233
16.54054,0.20716929810988494,0.018401494144876556
16.542928,0.3008660618885822,0.027139229753030798
16.545324,0.41183187070674837,0.03568236952149186
16.547719999999998,0.5332218045639718,0.04457335168781909
16.550107999999998,0.6752786846178137,0.05326788205303101
16.552488,0.8416346253087706,0.06160787090334703
16.554883999999998,1.0236768191733603,0.0698961811565373
16.557271999999998,1.220054791771224,0.07821244385072201
16.559652,1.4350050620206725,0.08646426160640151
16.562048,1.6662459899215682,0.0947456254453291
16.564436,1.9166182939814898,0.10292845978177173
16.56682,2.182956390468764,0.11106380803276444
16.569216,2.4652602793833918,0.1191570413817252
16.5716,2.762831112591072,0.12726029810698036
16.573984,3.0766015020341007,0.13530277778154925
16.57638,3.400799808231925,0.14328282182363652
16.578768,3.727372302228504,0.15125512100163935
16.581163999999998,4.047054550254297,0.1592946184357854
16.58356,4.358312878129583,0.1672622138352553
16.585948,4.6498826471962715,0.16579627135500383
16.588328,4.920181065588526,0.1647295353079042
16.590723999999998,5.172606034463497,0.16387938427723836
16.593111999999998,5.41078777240381,0.16320552475563457
16.595492,5.6450635442235155,0.1620835535449194
16.597887999999998,5.85550678611493,0.1611830744313655
16.600276,6.033410246958083,0.1607603667507877
16.602656,6.19772210317264,0.1603854646058814
16.605052,6.3507239947587335,0.15996409421525976
16.60744,6.483291257573686,0.15963662609840623
16.609824,6.600686019752073,0.15921498767944747
16.61222,6.695644052412902,0.15892639970282138
16.614608,6.773797674885216,0.15873427572832582
16.617003999999998,6.841292959035126,0.15851181651783863
16.6194,6.892357815906729,0.15826828521255235
16.621788,6.920846173633915,0.15813346748535248
16.624168,6.933134525650399,0.15812412347768492
16.626564,6.939278701658642,0.15811962706600258
16.628951999999998,6.948218270204089,0.15795239210647857
16.631332,6.950966440913051,0.1578330416745314
16.633732,6.952084597927931,0.1577682614749432
16.63612,6.956181347219383,0.15772694402243928
16.6385,6.957018069122674,0.1577961773935142
16.640895999999998,6.954317120241959,0.15787422922660832
16.64328,6.944865695017315,0.15802675648686798
16.645664,6.939371249457263,0.15814753639565218
16.64806,6.945934734346084,0.15812001552028734
16.650448,6.949564952928712,0.15814456622878093
16.652828,6.955244494085997,0.15809117723811955
16.655227999999997,6.9646486974823985,0.15797992829204943
16.657612,6.9753089316626715,0.15791458721594626
16.660007999999998,6.991229398119651,0.15781947009900424
16.662404,7.013203388644124,0.1575762071474047
16.664792,7.028566672451531,0.1574019279604171
16.667172,7.048026705550391,0.15719092288128872
16.669567999999998,7.075680237232151,0.15690176143388304
16.671955999999998,7.112273337459356,0.1564595222221827
16.674336,7.148541572462467,0.15596602265530968
16.676731999999998,7.177500252614211,0.1555805217724714
16.679116,7.20841381168413,0.15520345387054457
16.681516,7.247009012657753,0.15474591341901198
16.683912,7.287094457698594,0.15425038884490597
16.6863,7.33323342680693,0.15361353861853252
16.688679999999998,7.379744482967603,0.1529931261915429
16.691076,7.42821041804645,0.1523821744023669
16.693464,7.4798891586852125,0.15171833730863266
16.695844,7.529380702980325,0.1510342822706906
16.698244,7.582132274663595,0.1502528232015447
16.700632,7.626456134480615,0.1496282342351605
16.703011999999998,7.671571390230556,0.14900532380361894
16.705408,7.714312458181741,0.14840112972096758
16.707796,7.753515855348917,0.14780092382542553
16.710176,7.785362475836482,0.14733596459038117
16.712571999999998,7.818372579309303,0.14688130278408304
16.714959999999998,7.84979989091629,0.14644269515271105
16.717356,7.880762567672321,0.14596477606374472
16.719756,7.899620092151233,0.14564367599540154
16.722144,7.916847602936068,0.14537230113002342
16.724524,7.937008380027095,0.1450592771852902
16.72692,7.952001472640036,0.14479546087407053
16.729308,7.9633171248421055,0.14454473650199207
16.731688,7.971280201857399,0.14435755454651417
16.734088,7.976030473312777,0.14422686442778052
16.736476,7.981479592902455,0.14406197838467188
16.738856,7.987627560626436,0.14386424969693498
16.741256,7.9877692261111655,0.14375490637044802
16.743644,7.9842787771553985,0.1437199353948423
16.746024,7.976784126706797,0.1437429402848185
16.74842,7.9733408995792745,0.14367128066842624
16.750808,7.967383715026136,0.1436195096592716
16.753187999999998,7.964220027152333,0.14353453962270532
16.755588,7.9654326278237,0.14340809925522402
16.757976,7.9670645373756495,0.14326060253548004
16.76036,7.968696446927598,0.14311302636883552
16.762764,7.965904846106133,0.1430438505095216
16.765148,7.957059721217174,0.14309850989037565
16.767528,7.956222999313883,0.14303640386612465
16.769928,7.953803485544754,0.14298306543768155
16.772316,7.947379770282792,0.14298831371066859
16.774696,7.946962357260079,0.14290571571473668
16.777092,7.942540742744534,0.1428815008989831
16.77948,7.938678206736429,0.14282995510533755
16.781859999999998,7.93732962815394,0.14275861923457953
16.784268,7.9379359284896225,0.14269503464460476
16.786652,7.937191754384948,0.14266293538467936
16.789032,7.937937824347491,0.14259269621636542
16.791428,7.939615059869815,0.14251106165203786
16.793816,7.948601850243503,0.14234914161793621
16.7962,7.958891893229308,0.1421936728274339
16.798596,7.9674593747224165,0.142052898217559
16.800984,7.971510798043494,0.14195991395800392
16.803364,7.975562221364571,0.1418678968318774
16.80576,7.98426947248454,0.14172296359386702
16.808148,7.993256262858229,0.14156472511913662
16.810527999999998,8.012253556964001,0.1412693303461262
16.812928,8.03446365662969,0.14091963163141927
16.815316,8.053041641854882,0.14064277048100682
16.817695999999998,8.072550792639854,0.140355138250346
16.820092,8.094341583424962,0.14002525120319861
16.82248,8.109846532717098,0.13979272286713823
16.824876,8.129727770554407,0.1395197499260832
16.827272,8.149748778018575,0.1392407502139889
16.82966,8.168186993616906,0.13897190735418097
16.83204,8.185042417349402,0.13871259092352786
16.834443999999998,8.20040759701468,0.13849020643554555
16.836831999999998,8.21921789966535,0.13824101246788076
16.839212,8.243243108622353,0.13791622803124418
16.841611999999998,8.259679223474269,0.13768228869511479
16.843996,8.275184172766405,0.13746016507716713
16.84638,8.295205180230575,0.13719518811138628
16.848776,8.319090619560718,0.13688428985489842
16.851164,8.341533036651883,0.13657726769450626
16.853544,8.365046388929688,0.13625906701452445
16.85594,8.391353237886827,0.13591423019295346
16.858328,8.407789352738742,0.13569305956792646
16.860712,8.42916083464327,0.1354148168878267
16.863108,8.455747222854129,0.1350666085214712
16.865492,8.485406646998046,0.1346812292456304
16.867876,8.516928402261517,0.13427998623241158
16.870272,8.551662963084905,0.13382976367879648
16.87266,8.587887767975511,0.13335080146242215
16.87504,8.626906069545454,0.13284856472202244
16.87744,8.666203910369116,0.13233749631863148
16.879828,8.706852225633137,0.1318032710892613
16.882208,8.750061720151015,0.1312226475719283
16.884608,8.78926701317606,0.13069172710557875
16.886996,8.82539927026805,0.13020516229943543
16.889376,8.863533628106454,0.12969363072981419
16.891772,8.900597050758225,0.12919808210589454
16.89416,8.935798142290436,0.12872406180160567
16.896544,8.968857363449368,0.12828137146511567
16.89894,8.998564009421527,0.12788792016013528
16.901328,9.02519761946063,0.1275356624057738
16.903724,9.04917750244726,0.1272053311663067
16.906119999999998,9.0780927524865,0.12682060430660852
16.908507999999998,9.102212405099987,0.126487353866895
16.910888,9.123398791407281,0.12618790999996077
16.913287999999998,9.143374472901074,0.12591118679321173
16.915675999999998,9.16321038476801,0.12564247932693176
16.918056,9.187841894060696,0.12533134038022067
16.920455999999998,9.208329432233691,0.12507010800950644
16.922843999999998,9.222810668167432,0.12487290077635602
16.925224,9.235941429660814,0.12470098139763768
16.92762,9.247861486340696,0.12454920743742677
16.930008,9.25964177339372,0.12440426480428392
16.932388,9.273563930820021,0.12423295803840986
16.934787999999998,9.28362165638035,0.12409738027953585
16.937176,9.294750317127315,0.12394909435173994
16.93956,9.305087581941363,0.12380273683300806
16.941955999999998,9.312631350076074,0.12367921063800788
16.944344,9.320314887837648,0.12355019584758786
16.946724,9.33642613746547,0.1233233748205959
16.949123999999998,9.34816109854812,0.12312250682866832
16.951511999999997,9.360687455563689,0.12292022698738403
16.953896,9.37228264701948,0.12272653532780686
16.956291999999998,9.380013406609296,0.1225674129428938
16.958679999999998,9.382669029519638,0.12246205597957548
16.961064,9.37945811981759,0.12241317377634052
16.963459999999998,9.37238277824957,0.12240021807175797
16.965847999999998,9.358789277763103,0.12243963808945006
16.968232,9.345475316530356,0.12246810120508118
16.970627999999998,9.339378362350356,0.12241599377818915
16.973015999999998,9.33342117779722,0.12235833106596436
16.9754,9.326672597311163,0.12230254556491706
16.9778,9.315128419399356,0.122289604894382
16.980188,9.304515407047324,0.12226887983355487
16.982568,9.299768927307685,0.12219264758214166
16.984968,9.29781594424738,0.12209464110908816
16.987356,9.301869263426328,0.12193744791261196
16.989739999999998,9.308716079284608,0.12175851745781655
16.992136,9.31570266476975,0.12157436542681666
16.994524,9.312259437642226,0.12150555030928091
16.996907999999998,9.317336470179567,0.12136749999926003
16.999304,9.32148233715713,0.12123679009131033
17.001692,9.323905642641996,0.12111493517592058
17.004075999999998,9.337130847791867,0.12089539683433395
17.006472,9.3625084270471,0.1205571047232496
17.00886,9.396034178914856,0.12013742921074602
17.011243999999998,9.434774837088947,0.11966367451242725
17.013644,9.478311092688786,0.11915246608360404
17.016032,9.52650317608752,0.1186108840171321
17.018411999999998,9.568409417993285,0.11813892746039034
17.020816,9.612317760645468,0.11765068647474083
17.0232,9.654875628857287,0.11718444263420581
17.025579999999998,9.70143769856194,0.1166798482331176
17.027984,9.746277206773897,0.1161859946256171
17.030372,9.790045779799215,0.11570879322626407
17.032752,9.830089690585421,0.11526190881705385
17.035156,9.862916594318879,0.11488890736806706
17.037544,9.897885368425614,0.11449606353635086
17.039924,9.933785308092128,0.11409841383459611
17.04232,9.973968988505195,0.11365216049324929
17.044708,10.006144265932592,0.11327923185890618
17.047088,10.03831954335999,0.11290674378055854
17.049484,10.071425986347167,0.11252823816186479
17.051872,10.094661695229124,0.11223583933917747
17.054256,10.105093403699657,0.11205116282557662
17.056652,10.11044997549072,0.11191324943300499
17.05904,10.114456072841422,0.11179737914138778
17.06142,10.114457968699293,0.11171580329039477
17.063816,10.108733101571632,0.11167504059637547
17.066204,10.106500579257608,0.11159157632117656
17.068583999999998,10.100683164331327,0.11152680677270771
17.07098,10.097147389405187,0.11143534215636187
17.073363999999998,10.092820218546128,0.1113448445417127
17.075748,10.089703752500567,0.11123867159409942
17.078143999999998,10.084213098656253,0.11113519092350548
17.080527999999997,10.0776515096253,0.11104230875838836
17.082924,10.07495435246032,0.11092137601322627
17.08532,10.070115324922064,0.11082207344412111
17.087708,10.068069794063142,0.11070609806076152
17.090087999999998,10.068957529510419,0.11056881376355956
17.092484,10.075991336823805,0.11037871612707514
17.094872,10.084235848950685,0.1101738574647092
17.097255999999998,10.09327175701049,0.10996871450739501
17.09966,10.105380701003345,0.10973668646063033
17.102044,10.122564781675674,0.10946101914667167
17.104428,10.14081979753464,0.10917492100707103
17.106824,10.153348050408079,0.10892670054247024
17.109208,10.166807468841291,0.10867277175927406
17.111591999999998,10.180406656901368,0.10841302745911585
17.113988,10.188790938655112,0.10820048425247308
17.116376,10.200620343394247,0.10797554603707021
17.118755999999998,10.211937891454182,0.10774244515656473
17.12116,10.221113569140844,0.10753002110391195
17.123548,10.230009707573787,0.10732824414615824
17.125928,10.238486537126148,0.1071409384278099
17.128328,10.245892431491871,0.10696344942538719
17.130716,10.25027251175278,0.10678392746647698
17.133096,10.251998864961214,0.10661597330300558
17.135492,10.244134023318146,0.10651255642795945
17.137884,10.22826077868941,0.10647264717502408
17.140264,10.206800540702003,0.10646521719483998
17.14266,10.18333820196818,0.10647306678984546
17.145048,10.158432840995381,0.10647661259712986
17.147432,10.136600515955639,0.1064532283817481
17.149828,10.115699356475673,0.10642381543433398
17.152216,10.092004700316375,0.10641028687302465
17.154595999999998,10.073385180836546,0.10635544551648908
17.156992,10.054905430983581,0.1062955125712021
17.15938,10.040150343369724,0.10621400084342907
17.161759999999997,10.034334824301315,0.10606538356884314
17.164156,10.024934412620654,0.10593298978242366
17.166544,10.012833052059275,0.10583985905847382
17.168927999999998,10.00459612336387,0.10572076337991784
17.171324,9.994496863548905,0.10561203715182363
17.173712,9.984537373360801,0.10549828843103576
17.176108,9.977930458359475,0.10534938224452821
17.178504,9.971695630410485,0.10521421741510557
17.180888,9.967183363954192,0.1050732249788686
17.183272,9.970539730856705,0.10487523122545048
17.185668,9.981113104811968,0.1046155516873024
17.188056,9.996062767312402,0.10433937427335761
17.190436,10.012083364999471,0.10405330362808578
17.19284,10.0287555889926,0.10377210179009329
17.195228,10.042354777052676,0.10351782899122937
17.197608,10.053951864366333,0.10327916284234306
17.200004,10.072206880225302,0.10300069647774868
17.202392,10.090322126457412,0.1027283637167454
17.204772,10.110579243062796,0.10243785269118114
17.207168,10.130324502988984,0.10214003311099565
17.209556,10.142992525489282,0.10189710748740943
17.21194,10.157662648735995,0.10163955412677773
17.21434,10.178618613475676,0.10133009370332191
17.216728,10.197991786349522,0.10102242023880534
17.219108,10.219227290342927,0.10070568316778816
17.221508,10.244327226202305,0.1003667028719698
17.223896,10.269007853181103,0.10004341460554979
17.226276,10.297832451279595,0.09968901127788315
17.228672,10.327867754191585,0.09932180324221437
17.23106,10.354830021170518,0.09897896068224585
17.233439999999998,10.381652518522596,0.09864360532733528
17.23584,10.406752454381973,0.09831401370571943
17.238224,10.432364246920551,0.09799458014971674
17.240607999999998,10.460769536138464,0.09766357444904855
17.243004,10.485030854236681,0.09736279153503247
17.245392,10.51487916569357,0.09703747294914854
17.247775999999998,10.541514671590539,0.09674151864207292
17.250172,10.56828994711437,0.09644254638977401
17.252556,10.591852417078284,0.09617120321002366
17.254956,10.615507434840817,0.09592413684188447
17.257352,10.643306423723041,0.09564696053121231
17.25974,10.673619370030881,0.095367766864801
17.262124,10.698577640405531,0.09513336332127899
17.26452,10.725910098578936,0.09490145936633268
17.266908,10.75296301749862,0.0946793179809876
17.269292,10.777874066045026,0.09447586208987079
17.271687999999997,10.80478721533785,0.0942614286710606
17.274079999999998,10.828347789443898,0.09407782784707988
17.27646,10.85363092504264,0.09389226492902476
17.278855999999998,10.882918262134217,0.09368339948019817
17.281244,10.910855124785437,0.09349264270337504
17.283624,10.938232908929214,0.093319164825576
17.286023999999998,10.967752563446268,0.09313063744436491
17.288408,10.996341052403546,0.0929477618579964
17.290792,11.033729340279407,0.09271840004878278
17.293188,11.06539086516974,0.09251757385031303
17.295576,11.09947379968707,0.09229408684675706
17.297956,11.132206259764041,0.09208773569025215
17.300352,11.169874086893625,0.091856128232375
17.30274,11.206098891784233,0.09161999792943257
17.30512,11.241112991861343,0.09139743943121031
17.307516,11.273333595259116,0.09118681695028312
17.309904,11.306904673097247,0.09095996407392823
17.3123,11.341406916495155,0.09073192638796156
17.3147,11.375117763960144,0.09050372054276204
17.317088,11.404684640305447,0.09030136312469898
17.319468,11.432389185531191,0.09010755679822723
17.321863999999998,11.464097932249764,0.08989288726774824
17.324251999999998,11.493013182289005,0.08968989246147514
17.326632,11.521928432328247,0.08948916281294722
17.329028,11.550052286434568,0.08928811365313026
