Time,Force,Position
19.043304,0.0,0.0
19.0457,0.0,0.0
19.048088,0.0,0.0
19.050468,0.0,0.0
19.052864,0.0,0.0
19.055252,0.0,0.0
19.057632,0.0,0.0
19.060036,0.0,0.0
19.062424,0.0,0.0
19.064804,0.0,0.0
19.0672,0.003644607814662858,0.0
19.069588,0.008499920442824455,0.0
19.071968,0.012284297884347522,0.0
19.074364,0.019001941632065762,0.0
19.076752,0.026650750939562325,0.0
19.079132,0.03429956024705889,0.0
19.081536,0.04194836955455545,0.0
19.083924,0.048666013302273686,0.0
19.086304,0.05338155630357507,0.0
19.088708,0.06009920005129331,0.0
19.091096,0.06774800935878987,0.0
19.093476,0.07697961053212266,0.0
19.095872,0.08607144207859524,0.0
19.09826,0.09623420881170634,0.0
19.10064,0.10025090367870668,0.0
19.10304,0.10426759854570701,0.0
19.105428,0.10814452378584713,0.0
19.107808,0.11015911790643061,0.0
19.110204,0.11082323758665515,0.0
19.112592,0.11082323758665515,0.0
19.114972,0.10717862977199229,0.0
19.117372,0.10232331714383068,0.0
19.11976,0.09853893970230762,0.0
19.12214,0.09182129595458938,0.0
19.124536,0.08417248664709283,0.0
19.126924,0.07681570996748333,0.0
19.129308,0.06916690065998678,0.0
19.131704,0.06244925691226854,0.0
19.134092,0.06002784728527106,0.0
19.136472,0.05346246653857966,0.0
19.13888,0.0458136572310831,0.0
19.141264,0.036582056057750306,0.0
19.143644,0.027490224511277733,0.0
19.146044,0.017327457778166636,0.0
19.148428,0.013310762911166299,0.0
19.150812,0.00929406804416596,0.0
19.153208,0.005417142804025833,0.0
19.155596,0.0034025486834423453,0.0
19.157992,0.00273842900321781,0.0
19.160388,0.00273842900321781,0.0
19.162776,0.005823958310439828,0.0
19.165156,0.010492279483498065,0.0
19.167552,0.013577808790720083,0.0
19.16994,0.014381698097804827,0.0
19.17232,0.020120954457501596,0.0
19.174716,0.01982892182961454,0.0
19.177104,0.021936063748815085,0.0
19.179488,0.02193606374881509,0.0
19.181892,0.019641930374511177,0.0
19.184276,0.019489667373484332,0.0
19.18666,0.021084952613487185,0.0
19.189056,0.02108495261348719,0.0
19.191444,0.022959777107210463,0.0
19.193828,0.022959777107210463,0.0
19.196224,0.029118342347487863,0.0
19.198612,0.0358359860952061,0.0
19.200992,0.045067587268538885,0.0
19.203388,0.05271639657603544,0.0
19.205772,0.05994589700295137,0.0
19.208156,0.06359050481761425,0.0
19.210552,0.061076547391999685,0.0
19.21294,0.05898189884696578,0.0
19.215336,0.058050733287187455,0.0
19.217732,0.05847004216776809,0.0
19.22012,0.05273078580807132,0.0
19.2225,0.05273078580807132,0.0
19.224896,0.05062364388887077,0.0
19.227284,0.05062364388887077,0.0
19.229668,0.05062364388887077,0.0
19.232064,0.05062364388887077,0.0
19.234452,0.04902835864886792,0.0
19.236832,0.04902835864886792,0.0
19.239236,0.047153534155144644,0.0
19.241624,0.047153534155144644,0.0
19.244004,0.040994968914867244,0.0
19.2464,0.034277325167149014,0.0
19.248788,0.02504572399381623,0.0
19.251168,0.017396914686319667,0.0
19.253564,0.010167414259403734,0.0
19.255952,0.008257861311603942,0.0
19.258332,0.008490178737081213,0.0
19.260728,0.005916506109056886,0.0
19.263116,0.0037621423616131886,0.0
19.2655,0.004041681615333609,0.0
19.267896,0.009548620549553107,0.0
19.270284,0.015335098737493027,0.0
19.27268,0.021261346552293153,0.0
19.275076,0.027187594367093282,0.0
19.277464,0.03790943960764522,0.0
19.279844,0.045558248915141784,0.0
19.282244,0.054138223782416665,0.0
19.284632,0.05885376678371806,0.0
19.287012,0.06342954015815923,0.0
19.289408,0.06707414797282209,0.0
19.291796,0.07043921653376453,0.0
19.29418,0.07043921653376453,0.0
19.296576,0.07043921653376453,0.0
19.298964,0.07043921653376455,0.0
19.301344,0.07043921653376455,0.0
19.30374,0.06870416166690148,0.0
19.306128,0.06790027235981673,0.0
19.308508,0.06790027235981673,0.0
19.310904,0.06790027235981673,0.0
19.313292,0.06639753491843094,0.0
19.315676,0.06089059598421142,0.0
19.318072,0.05510411779627151,0.0
19.320456,0.04917786998147138,0.0
19.322856,0.04325162216667125,0.0
19.325252,0.03252977692611931,0.0
19.32764,0.024880967618622744,0.0
19.33002,0.016300992751347863,0.0
19.332416,0.011585449750046476,0.0
19.334808,0.007009676375605296,0.0
19.337188,0.0033650685609424385,0.0
19.339584,0.0004318022547472661,0.0
19.341972,0.006590367495024665,0.0
19.344356,0.009815666429106891,0.0
19.346752,0.01490329648274576,0.0
19.349136,0.021201631349883367,0.0
19.35152,0.030293462896355938,0.0
19.353916,0.036452028136633334,0.0
19.356304,0.04554385968310591,0.0
19.358688,0.05570662641621701,0.0
19.361084,0.07080476020194013,0.0
19.363472,0.08404056286810661,0.0
19.365852,0.09513449516099604,0.0
19.368248,0.10715959301366378,0.0
19.370636,0.11639119418699656,0.0
19.37302,0.12469162980055103,0.0
19.375416,0.13206089985432717,0.0
19.377804,0.14250320584115866,0.0
19.380184,0.14987247589493483,0.0
19.382584,0.15696220669499053,0.0
19.384968,0.16312077193526792,0.0
19.387364,0.16763683010729932,0.0
19.38976,0.16377239824132586,0.0
19.392148,0.16363262861446565,0.0
19.394532,0.161770297494909,0.0
19.396936,0.15869726156185363,0.0
19.399324,0.14960543001538104,0.0
19.401704,0.14344686477510363,0.0
19.4041,0.13435503322863107,0.0
19.406488,0.12419226649551997,0.0
19.408872,0.10909413270979686,0.0
19.411268,0.09585833004363038,0.0
19.413656,0.08476439775074095,0.0
19.416036,0.07275179327223985,0.0
19.418436,0.06539501659263033,0.0
19.420824,0.05709458097907588,0.0
19.423204,0.04972531092529975,0.0
19.4256,0.039283004938468216,0.0
19.427988,0.03191373488469207,0.0
19.430372,0.02482400408463635,0.0
19.432768,0.01866543884435895,0.0
19.435156,0.013717578417580294,0.0
19.437536,0.011423445043276387,0.0
19.439936,0.008337915736054368,0.0
19.442324,0.005916506109056886,0.0
19.444704,0.002703700549141293,0.0
19.447104,0.002703700549141293,0.0
19.449492,0.00392689873680667,0.0
19.451872,0.004218931364693726,0.0
19.454272,0.004371194365720572,0.0
19.45666,0.004383687739887207,0.0
19.45904,0.004383687739887208,0.0
19.46144,0.004383687739887208,0.0
19.463828,0.004371194365720572,0.0
19.466208,0.0024963698719972956,0.0
19.468608,0.003951885485139941,0.0
19.470996,0.006198797031200696,0.0
19.47338,0.010447809323678305,0.0
19.475776,0.013905425683237799,0.0
19.478168,0.019365142789214147,0.0
19.480552,0.020680888775496585,0.0
19.482948,0.02586106662775251,0.0
19.485336,0.034114280413063816,0.0
19.48772,0.0414363286385968,0.0
19.490124,0.0420879549446547,0.0
19.492512,0.04325143792991029,0.0
19.494892,0.045638119102831255,0.0
19.497288,0.04680160208808684,0.0
19.499676,0.049967185819759286,0.0
19.50206,0.05648534473820752,0.0
19.504456,0.06142071179081955,0.0
19.506844,0.06529763703095967,0.0
19.509224,0.07210782857729497,0.0
19.511624,0.07798685456385196,0.0
19.514012,0.08400565017726916,0.0
19.516392,0.08656682943112685,0.0
19.518788,0.08540334644587126,0.0
19.521176,0.08302915864711692,0.0
19.52356,0.08251730196791925,0.0
19.525956,0.07986357491544448,0.0
19.528344,0.08428708528885881,0.0
19.530728,0.08098173193032616,0.0
19.533124,0.07272851814501485,0.0
19.535512,0.06555873292050872,0.0
19.537892,0.06919084736100493,0.0
19.540296,0.07310250105522158,0.0
19.542684,0.07459274512244074,0.0
19.545064,0.07501205400302138,0.0
19.54746,0.07328949251032496,0.0
19.549848,0.06661907059084986,0.0
19.552228,0.061671210164071205,0.0
19.554624,0.06018096609685204,0.0
19.557012,0.05337077455051673,0.0
19.559392,0.04749174856395975,0.0
19.561788,0.04147295295054256,0.0
19.564176,0.03745625808354223,0.0
19.566556,0.036372829522737064,0.0
19.568952,0.03449800502901378,0.0
19.57134,0.03155224534865198,0.0
19.573724,0.02874625529515039,0.0
19.57612,0.023006998935453618,0.0
19.578508,0.021132174441730343,0.0
19.580904,0.021132174441730343,0.0
19.5833,0.0209799114407035,0.0
19.585684,0.015892281387064625,0.0
19.588068,0.010804651333425756,0.0
19.590464,0.00692772609328563,0.0
19.592852,0.004121736039784033,0.0
19.595232,0.002386681172920966,0.0
19.597628,0.002386681172920966,0.0
19.600016,0.002386681172920966,0.0
19.6024,0.0,0.0
19.604796,0.0,0.0
19.607184,0.0,0.0
19.609564,0.0,0.0
19.61196,0.0,0.0
19.614348,0.0,0.0
19.616744,0.0,0.0
19.619148,0.00015226300102684574,0.0
19.621532,0.0008163826812513815,0.0
19.623912,0.0034353812796496163,0.0
19.626308,0.004796453236305958,0.0
19.628696,0.004796453236305958,0.0
19.631076,0.004796453236305958,0.0
19.633472,0.009408073291774836,0.0
19.63586,0.02947173323752994,0.0
19.63824,0.07024766535027765,0.0
19.64064,0.13732286298868787,0.011293457899290567
19.643024,0.2306047783541435,0.021380566904216216
19.645408,0.34702037551358916,0.031010696109290622
19.647804,0.4810752089069722,0.04071073397076924
19.650192,0.6397067463333213,0.05010408321360114
19.652572,0.8214719655536603,0.05929304594689569
19.654968,1.0230655132094568,0.06840210820904413
19.657356,1.2438357629946528,0.07744667892785898
19.65974,1.4855052764019447,0.08639853526352534
19.662136,1.7475149749238916,0.09531745783339578
19.664524,2.0312153330008527,0.10415567201623664
19.666908,2.330867094273131,0.11304336777091567
19.669304,2.6490439313687513,0.12190897790818364
19.671692,2.9850942179816546,0.13074595870589636
19.674088,3.346514500418313,0.13945921088605673
19.676488,3.734293763583043,0.1479814580717351
19.678876,4.144092343242622,0.15631927777144267
19.681256,4.561522328892841,0.16457680434740843
19.683652,4.972252851743116,0.17273425993136218
19.68604,5.362458093881503,0.18085127755862201
19.688424,5.72110383821752,0.17770229231338613
19.69082,6.044370978855569,0.17588127826075317
19.693208,6.342781876206931,0.17453668391495727
19.695592,6.622762141391438,0.17312849789355908
19.697996,6.8760710539979435,0.172032161538795
19.70038,7.102521622571346,0.17119403529612381
19.702764,7.307234309761491,0.17049899910283997
19.705156,7.49565633930019,0.1698559930846076
19.707544,7.6627597963362115,0.16932685981141438
19.709924,7.80901121157838,0.16882319481156305
19.71232,7.930079622451899,0.16847740216262416
19.714708,8.039280886047385,0.1680339934030736
19.717088,8.133309649006307,0.16755112747999773
19.719492,8.206346600544514,0.16708898159407243
19.72188,8.253968230288592,0.1667496231564552
19.72426,8.274170541634257,0.16665677585917862
19.72666,8.274587954656969,0.1667354334932395
19.729044,8.26248280237985,0.16690845996020295
19.731428,8.241625073012388,0.1671815574191784
19.733824,8.217088007376187,0.16757207015859432
19.736212,8.200836988121505,0.16791493895772164
19.738592,8.201067409689113,0.16803429433305273
19.740988,8.205162263122695,0.16809383946681117
19.743376,8.211818295810133,0.16809289905851355
19.74576,8.220289437788887,0.16810043910451658
19.748156,8.234999199432368,0.16802871150156526
19.75054,8.256833420329981,0.16780306547245621
19.752924,8.276852531936282,0.16757067128420355
19.755328,8.299804909848776,0.16729298164853035
19.757712,8.329228224851475,0.16696319126207132
19.760096,8.370803913959538,0.16643673064689682
19.762492,8.408934480082205,0.16595312084692246
19.76488,8.444271549525538,0.1655132024851777
19.76726,8.483425829006602,0.16505309062814352
19.76966,8.528399419271814,0.16454369834813046
19.772048,8.580729786216635,0.16391130937671247
19.774428,8.630453647937225,0.1632784354769657
19.776824,8.685392415964149,0.16256551667639046
19.779208,8.744567702909379,0.16181762778562714
19.781604,8.814544889519611,0.1609159717685276
19.784,8.88321882351773,0.16002001756489048
19.786388,8.947516468970676,0.15919004065897066
19.788768,9.0120464318491,0.15838778947956061
19.791164,9.076109864018703,0.1576427405054342
19.793552,9.1425947058153,0.1568530091226829
19.795932,9.206053733507085,0.15608149995841522
19.798328,9.264158085265679,0.15540639176363605
19.800716,9.323193602584052,0.15472533150473936
19.803112,9.382788198409864,0.15402825181442018
19.805508,9.439356980130865,0.15335663319224885
19.807896,9.484984092560003,0.15284024624486414
19.810276,9.531402600922055,0.1523212254505832
19.812672,9.580195297082865,0.1517933193823213
19.81506,9.629127762870535,0.15126547528367656
19.81744,9.672613004926395,0.15079716482631209
19.81984,9.712094045489419,0.15038703286543684
19.822228,9.753529964970621,0.14998271225208448
19.824608,9.788819812585713,0.1496645912758792
19.827004,9.820152680536212,0.1493704784076065
19.829392,9.846457633635485,0.14911830900792056
19.831772,9.873973291548252,0.14884783757839964
19.834172,9.8999987053938,0.14861136287834992
19.83656,9.92658319774679,0.14835522459785244
19.838944,9.955589099726778,0.1480606109918024
19.84134,9.982033822452907,0.14781294706676062
19.843728,10.01178389853757,0.14754615169941537
19.846112,10.041953283502812,0.14726314712684424
19.848508,10.070260337348497,0.14700003988068952
19.850896,10.09442342007449,0.14679108230595975
19.85328,10.115793006121148,0.1466109537682988
19.85568,10.142517268101,0.14635856984268003
19.858064,10.166867342282098,0.14611749048325098
19.860444,10.185630423104524,0.14593101744439554
19.862844,10.19945813687434,0.1458006873786547
19.865232,10.213006311390433,0.14568050227635837
19.867612,10.225763089973611,0.14556431135919717
19.870008,10.240149882250869,0.1454134752838579
19.8724,10.257097853781982,0.1452179364218703
19.87478,10.269110458260483,0.1450770228097853
19.877176,10.277258630873009,0.1449779790352594
19.879564,10.281821910873282,0.14490991525150027
19.881948,10.282288441582104,0.1448651241616085
19.884344,10.277959374865176,0.14487059834771304
19.886732,10.270185185162855,0.14490073159722322
19.889112,10.263901239527753,0.14490061131604154
19.891512,10.252821696466901,0.14495019241653115
19.8939,10.243464714898744,0.1449869624892219
19.896284,10.237040999636783,0.14499165277070333
19.898688,10.23331823325554,0.14494699145912338
19.901072,10.22680197019496,0.14492859236677366
19.903452,10.21670081452213,0.1449395153769296
19.905852,10.20580826291638,0.1449540050135119
19.90824,10.197616660191345,0.14491921196065094
19.91062,10.194128107093446,0.14481220701584094
19.91302,10.194271668436045,0.1446473474465955
19.915408,10.195486164965281,0.1444687426634321
19.917788,10.189763193695487,0.14436665825455375
19.920188,10.182038121679282,0.14428706995857069
19.922576,10.186325654141573,0.14407279883738572
19.924956,10.192475517723423,0.1438410917181102
19.927356,10.19969631649191,0.14359559609046765
19.929744,10.21199225193987,0.14329154956082696
19.932128,10.22456772664155,0.14297562166961653
19.934524,10.236351805410314,0.14266315990211284
19.936912,10.250557293806073,0.14231481398616888
19.939292,10.272119558881442,0.14187774807683068
19.941696,10.292890428023895,0.14144606652094865
19.944084,10.309005469367454,0.14105730735524813
19.946464,10.322699101084018,0.1407067083975086
19.94886,10.339465768733634,0.1403199186381674
19.951248,10.358094767502807,0.13991735809924125
19.953628,10.381519363697732,0.13946958848492386
19.956032,10.40373325507916,0.13904089006916923
19.958416,10.42259457127381,0.13865897075520728
19.9608,10.438243081908546,0.13831812640695637
19.963196,10.450027160677308,0.13801453353695906
19.96558,10.469679872804877,0.13763073775985718
19.967964,10.492265851238642,0.13721875834650146
19.97036,10.50563272187324,0.13691295522466504
19.972744,10.518720053254118,0.13661756459736304
19.975144,10.52845480944822,0.13636573842549293
19.97754,10.537258400082544,0.13612336006677572
19.979928,10.549926422582843,0.13584475149721015
19.982308,10.564317006575836,0.13555599613411157
19.984712,10.577636655382193,0.13528278040132527
19.9871,10.582156505269962,0.13509479044847375
19.98948,10.584953793665038,0.13491732509958745
19.991876,10.589613413179668,0.13472433886000884
19.994264,10.595064428627218,0.13452855085105814
19.996648,10.60344871038096,0.13430599599986795
19.999044,10.608759956201647,0.13411619293192897
20.001432,10.614210971649195,0.13392300285706232
20.003812,10.62245548377608,0.13370793222530064
20.006216,10.633912801462875,0.13345646333607472
20.008604,10.64858292470959,0.13316888907711188
20.010984,10.669259350195556,0.1328230884883839
20.01338,10.686350883069272,0.13250412412760473
20.015768,10.702511250383203,0.13219421523328637
20.018148,10.721744653630191,0.1318528830265813
20.020556,10.742188761690679,0.1314953557838026
20.02294,10.76719614975144,0.13107962953081925
20.02532,10.790992832998702,0.13068225717706758
20.027728,10.81185624993977,0.13031227509586782
20.030112,10.829786400574644,0.12996834595502857
20.032492,10.840639313783628,0.12969272238776636
20.034888,10.855077119604864,0.12939248111009669
20.037276,10.869235386172381,0.12910169009346564
20.03966,10.883253883113037,0.1288160728306929
20.042056,10.90076472486733,0.1284865763870097
20.044444,10.914922991434848,0.1281990515059605
20.046824,10.930943589121922,0.1278970286644155
20.04922,10.942959985316161,0.12763384450350362
20.051608,10.954324755204345,0.12736938795730013
20.053992,10.962476719532612,0.127140542505175
20.056388,10.9672761086741,0.12695173769124232
20.058776,10.973006663375369,0.12675792290508514
20.061156,10.975244873263,0.12660749232820714
20.063552,10.974410047217576,0.12648662816257208
20.06594,10.972783825239235,0.12636786261078015
20.06832,10.971297372887756,0.1262446076624042
20.07072,10.97111417314839,0.12612743061887058
20.073108,10.969580498968666,0.12603079148172786
20.075488,10.972982191841552,0.12589259725830457
20.077884,10.980527855834136,0.12571468907742334
20.080272,10.994731448372029,0.12548606011191712
20.082652,11.01307901202961,0.12521926299821712
20.085052,11.035570546806888,0.12491417457849278
20.08744,11.058201851211026,0.12460484793485613
20.08982,11.072405443748918,0.12437872777105763
20.09222,11.086888575540527,0.12414351102453527
20.094608,11.103513577705419,0.12388729298626383
20.096988,11.119859040616586,0.12363991783374009
20.099388,11.134714259460534,0.12341803741039778
20.101776,11.150360874237398,0.12319427479555989
20.104156,11.17043099938768,0.12292335192777151
20.10656,11.185425987858489,0.12269893192315283
20.108948,11.206427278568547,0.12242349388878078
20.111328,11.230222065957943,0.12212926471017752
20.113724,11.253737314093616,0.1218447472447139
20.116112,11.2731085911096,0.12159853153575148
20.118492,11.290757306632882,0.12136163764124547
20.120888,11.312829532529578,0.12107834051408264
20.123276,11.331688952866362,0.12082917534386536
20.12566,11.349197898762785,0.12060098507511219
20.128056,11.367777779845847,0.12036405787525015
20.130444,11.380211589062796,0.12018139206849293
20.13284,11.387430491973415,0.12004640934624297
20.135236,11.39651172600359,0.11990023655118669
20.137624,11.416953938206209,0.1196550354840335
20.140004,11.4412605822748,0.11938414841104548
20.1424,11.467429557462948,0.11910469236208569
20.144788,11.49974460451721,0.11877594635997624
20.147168,11.534201521944746,0.11842843548155911
20.149564,11.57201101455906,0.1180488690665857
20.151952,11.60432606161332,0.1177242199986414
20.154336,11.638363670160274,0.11739300251084664
20.156732,11.670678717214532,0.11707093873231837
20.15912,11.70313353389565,0.11674585638904235
20.1615,11.73558835057677,0.11642108888255287
20.163896,11.776191339870419,0.1160332617468921
20.166284,11.816934098790925,0.11564310933425362
20.168668,11.85474359140524,0.11527598232949537
20.171064,11.89269285364641,0.11490606243395063
20.173452,11.930642115887585,0.11453741692925837
20.175848,11.965937651076283,0.1141824564835611
20.178248,12.005377157384673,0.11379453323904878
20.180632,12.044816663693066,0.11340470072333093
20.183016,12.083325004441678,0.1130222417491665
20.185412,12.113685172577762,0.11270493090193795
20.1878,12.137387412168536,0.11242859895546457
20.19018,12.155362888773784,0.11218800466756822
20.19258,12.165609501647085,0.1119969310189082
20.194968,12.172410991534992,0.11181789086116092
20.197348,12.175348049556929,0.111663426935464
20.199744,12.181637682765636,0.11147750635051965
20.202136,12.186624063362231,0.11128512002209376
20.204516,12.191750213585685,0.11108923111944702
20.206912,12.196224737503078,0.11089041020164236
20.2093,12.202049735860834,0.11067482257727981
20.21168,12.201868431979339,0.11050122187025595
20.21408,12.198614092164787,0.11035004061314449
20.216468,12.194009277909878,0.11021577220838094
20.218848,12.185679801415853,0.11010041815743915
