Time,Force,Position
21.061156,0.00014211496008007928,0.0
21.06356,0.00014211496008007928,0.0
21.065944,0.00014211496008007928,0.0
21.068328,0.00014211496008007928,0.0
21.070724,0.00014211496008007928,0.0
21.073112,0.00014211496008007928,0.0
21.075496,0.00014211496008007928,0.0
21.077892,0.00014211496008007928,0.0
21.08028,0.00014211496008007928,0.0
21.08266,0.00014211496008007928,0.0
21.085056,0.00014211496008007928,0.0
21.08744,0.00014211496008007928,0.0
21.089824,0.00014211496008007928,0.0
21.09222,0.00014211496008007928,0.0
21.094608,0.00014211496008007928,0.0
21.097004,0.0001421149600800793,0.0
21.0994,0.0001421149600800793,0.0
21.101788,0.0001421149600800793,0.0
21.104168,0.0001421149600800793,0.0
21.106564,0.0001421149600800793,0.0
21.108952,0.0,0.0
21.111336,0.0,0.0
21.113732,0.0,0.0
21.11612,0.0,0.0
21.1185,0.0,0.0
21.120904,0.0,0.0
21.123292,0.0029356116394150403,0.0
21.125672,0.006662619211748191,0.0
21.128068,0.00945846122430302,0.0
21.130456,0.01225430323685785,0.0
21.132836,0.015189914876272892,0.0
21.135232,0.015189914876272893,0.0
21.13762,0.0170545913290494,0.0
21.14,0.017054591329049403,0.0
21.142396,0.017054591329049403,0.0
21.144784,0.017054591329049403,0.0
21.147168,0.01971066371474402,0.0
21.149564,0.019710663714744024,0.0
21.151952,0.019710663714744024,0.0
21.154348,0.019710663714744024,0.0
21.156744,0.019710663714744024,0.0
21.159132,0.019713009047963893,0.0
21.161512,0.02129814624701998,0.0
21.163912,0.02316282269979649,0.0
21.1663,0.02488772952571279,0.0
21.16868,0.02782334116512783,0.0
21.171076,0.026892175605349507,0.0
21.173464,0.02316516803301636,0.0
21.175848,0.02144260654031993,0.0
21.178244,0.02079098023426203,0.0
21.180632,0.02093074986112224,0.0
21.183012,0.02321473519447938,0.0
21.185408,0.022702878515281688,0.0
21.187796,0.02405569828886051,0.0
21.190176,0.028341784368634503,0.0
21.192572,0.03369880563504703,0.0
21.19496,0.039612560075680515,0.0
21.197344,0.04939309171550737,0.0
21.19974,0.05917362335533422,0.0
21.202124,0.06974555092807919,0.0
21.204524,0.07831537775440729,0.0
21.20692,0.08702262887437576,0.0
21.209308,0.08814078588925743,0.0
21.211688,0.08991056921019702,0.0
21.214084,0.09503292771791241,0.0
21.216476,0.09987574697190736,0.0
21.218856,0.10471856622590234,0.0
21.221252,0.1114260619326738,0.0
21.22364,0.11319584525361338,0.0
21.226024,0.1128237582012759,0.0
21.22842,0.10974837693500064,0.0
21.230804,0.11016768581558127,0.0
21.233188,0.1104472250693017,0.0
21.235584,0.1096558291363836,0.0
21.237972,0.1053697430566096,0.0
21.240356,0.10001272179019709,0.0
21.242752,0.09144289496386897,0.0
21.24514,0.08166236332404211,0.0
21.24752,0.07188183168421526,0.0
21.249916,0.061309904111470304,0.0
21.252304,0.05274007728514219,0.0
21.254688,0.044030480831953864,0.0
21.257084,0.04132718661801609,0.0
21.259472,0.0376927268443,0.0
21.261852,0.030845461510668314,0.0
21.264252,0.023067030617258313,0.0
21.266636,0.01621976528362663,0.0
21.269032,0.009512269576855156,0.0
21.271428,0.0066692057360571745,0.0
21.273816,0.0048970770818977235,0.0
21.2762,0.005690818348035702,0.0
21.278604,0.00392103502709612,0.0
21.280992,0.0022886759997968794,0.0
21.283372,0.0028005326789945686,0.0
21.285768,0.002802878012214438,0.0
21.288156,0.0028028780122144378,0.0
21.29054,0.0028028780122144378,0.0
21.292936,0.0028028780122144378,0.0
21.295324,0.0028028780122144378,0.0
21.297704,0.0028028780122144378,0.0
21.300104,0.0028028780122144378,0.0
21.302492,0.0028028780122144378,0.0
21.304872,0.0028028780122144378,0.0
21.307268,0.0028028780122144378,0.0
21.309656,0.0028028780122144378,0.0
21.31204,0.002802878012214438,0.0
21.314436,0.0028028780122144386,0.0
21.316824,0.0028028780122144386,0.0
21.319204,0.0028028780122144386,0.0
21.321604,0.0028028780122144386,0.0
21.323992,0.002009136746076459,0.0
21.326372,0.0010756258530782695,0.0
21.328772,0.0010756258530782695,0.0
21.33116,2.345333219869339e-06,0.0
21.33354,0.0,0.0
21.33594,0.0,0.0
21.338328,0.0,0.0
21.340708,0.0,0.0
21.343108,0.0,0.0
21.345496,0.0,0.0
21.347876,0.0,0.0
21.350276,0.0,0.0
21.352664,0.0,0.0
21.355048,0.0,0.0
21.357444,0.0,0.0
21.359836,0.0,0.0
21.36222,0.0,0.0
21.364616,0.0,0.0
21.367004,0.0,0.0
21.369388,0.0,0.0
21.371792,0.0,0.0
21.37418,0.0,0.0
21.37656,0.0,0.0
21.378956,0.0,0.0
21.381344,0.0,0.0
21.383728,0.0,0.0
21.386124,0.0,0.0
21.388512,0.0,0.0
21.390892,0.0,0.0
21.393292,0.0032151508931354614,0.0
21.39568,0.008432402532687773,0.0
21.39806,0.011927092679543654,0.0
21.400456,0.011927092679543654,0.0
21.402844,0.015421782826399534,0.0
21.405228,0.016774602599978358,0.0
21.407624,0.018918818306475287,0.0
21.410012,0.01891881830647529,0.0
21.412396,0.01891881830647529,0.0
21.414792,0.01891881830647529,0.0
21.41718,0.01891881830647529,0.0
21.41956,0.01891881830647529,0.0
21.421964,0.01891881830647529,0.0
21.424352,0.019852329199473478,0.0
21.426732,0.02479004158530537,0.0
21.429128,0.028796588411358938,0.0
21.431516,0.029730099304357133,0.0
21.433896,0.03080337982421553,0.0
21.436292,0.032807825903852256,0.0
21.43868,0.032807825903852256,0.0
21.44106,0.029592675010716787,0.0
21.443456,0.02437542337116448,0.0
21.445844,0.020880733224308598,0.0
21.448224,0.020880733224308598,0.0
21.45062,0.01738604307745271,0.0
21.453008,0.016033223303873894,0.0
21.455392,0.013889007597376962,0.0
21.457788,0.013889007597376962,0.0
21.460176,0.013889007597376962,0.0
21.462572,0.013889007597376964,0.0
21.464968,0.013889007597376966,0.0
21.467352,0.013889007597376966,0.0
21.469736,0.013889007597376966,0.0
21.472132,0.013237381291319064,0.0
21.47452,0.008299668905487173,0.0
21.4769,0.0042931220794336,0.0
21.479296,0.0033596111864354103,0.0
21.481684,0.00228633066657701,0.0
21.484068,0.0002818845869402895,0.0
21.486464,0.0002818845869402895,0.0
21.488852,0.0002818845869402895,0.0
21.491232,0.0002818845869402895,0.0
21.493628,0.0002818845869402895,0.0
21.496016,0.0002818845869402895,0.0
21.498412,0.0002818845869402895,0.0
21.500816,0.0002818845869402895,0.0
21.5032,0.0002818845869402895,0.0
21.50558,0.0002818845869402895,0.0
21.507976,0.00028188458694028954,0.0
21.510364,0.00028188458694028954,0.0
21.512744,0.00028188458694028954,0.0
21.51514,0.00028188458694028954,0.0
21.517528,0.00028188458694028954,0.0
21.519908,0.0,0.0
21.522308,0.0,0.0
21.524692,0.0,0.0
21.527076,0.0,0.0
21.529472,0.0,0.0
21.53186,0.0,0.0
21.53424,0.0,0.0
21.536636,0.0,0.0
21.539024,0.0,0.0
21.541408,0.003538120259360548,0.0
21.543804,0.012755781676008078,0.0
21.546192,0.024812265742364472,0.0
21.548576,0.04608596175001778,0.0
21.550972,0.07094265451205489,0.0
21.55336,0.09840395664045438,0.0
21.555756,0.12758402854581183,0.0
21.558156,0.16625705993044804,0.0
21.560544,0.21940374381734912,0.012690296841541151
21.562924,0.2928433909906621,0.02442911361301055
21.56532,0.3868083188758643,0.03571543565761155
21.567708,0.5102380960184014,0.04602254594071432
21.570092,0.6570338723804059,0.055989680302204387
21.572488,0.8287784398277139,0.06566652497051056
21.57488,1.022166445001793,0.07521571977828512
21.57726,1.245578377940648,0.08439853635895755
21.579664,1.4969195900992447,0.09331533666845752
21.582052,1.7740954329325496,0.1020301131762773
21.584432,2.0709598345744515,0.1107321622136161
21.586836,2.388024651704148,0.11943224681994308
21.58922,2.7229624688757776,0.12809598960247492
21.591604,3.074051174071995,0.13670344247277397
21.594,3.440686362814984,0.14530627843705207
21.596388,3.8170487243206,0.15387564665595682
21.598768,4.210262717842975,0.1623731460568752
21.601164,4.6216334918520925,0.17075906379131156
21.603552,5.0506983073548675,0.17898498002354024
21.605936,5.477764813826964,0.18717416460334702
21.608332,5.897247913767581,0.18260592406579168
21.61072,6.299511086354843,0.1789435934739361
21.6131,6.679294099312041,0.17573130351142943
21.615496,7.025375744093593,0.17353638149837114
21.617884,7.348091389655679,0.1716814354069256
21.620264,7.646230331184797,0.17012965318329162
21.622664,7.923517230920063,0.1687002338279855
21.625048,8.170128576584496,0.16763642819980268
21.627428,8.382944110416796,0.16691975360399014
21.629832,8.565082194320393,0.166501876366725
21.63222,8.733910108706983,0.16602032148009746
21.6346,8.88495901723277,0.1654931484813662
21.637004,9.009149581725458,0.16506589027588173
21.639392,9.111369947409413,0.16470110522659476
21.641772,9.197858733949358,0.16431198887549098
21.644172,9.267917093210997,0.16393382003897783
21.646556,9.320194550753968,0.1635991802521192
21.64894,9.351570848816973,0.1633821824770038
21.651336,9.368422480833729,0.16328732136889304
21.653724,9.388673909865505,0.16310908646371464
21.656108,9.40617906404619,0.16293801403457173
21.658512,9.42210142636104,0.16277904976207158
21.660896,9.441980768340478,0.16259601265253032
21.66328,9.471963161850617,0.16230212115677314
21.665672,9.49994345461434,0.16203415121817066
21.66806,9.531183774766225,0.16168936206061887
21.67044,9.562703634171827,0.16133431235742493
21.672836,9.596038602868745,0.1609879248356686
21.675224,9.641618493469638,0.1604971796160692
21.677604,9.697767966310058,0.159846687191604
21.68,9.746747653925972,0.15927669890236254
21.682388,9.793166162288024,0.15875969226131872
21.684772,9.85075865736742,0.15811730810886498
21.687168,9.906768360580982,0.15748206019416244
21.689556,9.962685515995924,0.15683054529444188
21.691936,10.01385429581336,0.15620803280026904
21.69434,10.057713520779426,0.1556606769744243
21.696728,10.10357484649191,0.15508843267495448
21.699108,10.145898501420385,0.15452863431296865
21.701504,10.176024456273124,0.1540861638825715
21.703892,10.20200644000617,0.15370365925195986
21.706272,10.228360510791553,0.15333602694242687
21.708672,10.253783416017157,0.15298035425531636
21.71106,10.271756996764534,0.1527051937335126
21.71344,10.29243152639263,0.15237745026335314
21.71584,10.306680444900895,0.1521413954520525
21.718228,10.321069133036021,0.15190091415406562
21.720612,10.33485341669333,0.15163118426322414
21.723008,10.341887224006715,0.1514125525103007
21.725396,10.34440497314807,0.15123709925547058
21.72778,10.352509715648093,0.15100710196565742
21.730176,10.363827263708032,0.15073458098511872
21.732564,10.36983735766302,0.15050824129530546
21.734948,10.3787807179242,0.15024942572689304
21.737344,10.386233834118165,0.15002192772106687
21.739732,10.39899440441708,0.14975172214150287
21.742116,10.42097408251516,0.14937012272147668
21.744512,10.440439803187626,0.14900560254514147
21.7469,10.45562178311354,0.14869696227463203
21.74928,10.472758641957626,0.14839282080398575
21.75168,10.491757831921268,0.14807174349650104
21.754068,10.51182795707155,0.14773902009688247
21.756452,10.530827147035192,0.1474208640094021
21.758848,10.553411229611088,0.14707324373003985
21.761236,10.580231831105293,0.14670133863038626
21.763616,10.61319850446561,0.14625775985632966
21.766012,10.645234012266148,0.14582430798445875
21.7684,10.67992324711916,0.14537377409899546
21.770784,10.716055504211148,0.14492267329323635
21.773184,10.749114725370084,0.1445070546773022
21.775572,10.77472462205079,0.14416069131907797
21.777956,10.799263583544862,0.14383072920566944
21.780352,10.826316502464543,0.1434880174883024
21.782736,10.856302687690423,0.1431190678467789
21.78512,10.8874995777298,0.14273438603214741
21.787516,10.916973906276484,0.1423640458046258
21.789904,10.944026825196167,0.14203379805567212
21.792284,10.976946276728244,0.14164958353630447
21.794684,11.017222504939925,0.1411827092546567
21.797072,11.05819758128591,0.14069309313418754
21.799468,11.101594067258892,0.14017387273022477
21.801864,11.1411261213659,0.13969186901894903
21.804256,11.183731211405963,0.1391798718036482
21.806636,11.226336301446025,0.13867121700288434
21.809036,11.264006024433478,0.13821350841361285
21.811424,11.297252237047514,0.13781114164923963
21.813808,11.331569384848189,0.13739814123683172
21.816204,11.359880230409615,0.13704418151946302
21.818592,11.387259910411261,0.1366983755021314
21.820972,11.418783561532601,0.13630953250648836
21.823376,11.456313514893193,0.13586350215212314
21.82576,11.49212090676109,0.13542920458327043
21.82814,11.524063866763008,0.13502999566368384
21.830544,11.553864956391653,0.1346582874320016
21.832932,11.581524175647017,0.13431172779019826
21.835312,11.607972690088886,0.1339825728788031
21.837708,11.632139564530618,0.13368238151076073
21.840096,11.652442007106375,0.13341784499359233
21.842476,11.667389773748937,0.13321213718049377
21.844872,11.681126835578008,0.1330229772298093
21.84726,11.688857595167823,0.1328891751822787
21.84964,11.698450685877194,0.1327417374685883
21.852044,11.703248179160816,0.13263312932570362
21.854432,11.70660265020546,0.13252487230686058
21.856812,11.711167826063605,0.13240103484208313
21.859212,11.719876973041439,0.13223717808595525
21.8616,11.728446350392417,0.13207842493418404
21.86398,11.74036830293017,0.1318813641258268
21.866384,11.752709564348502,0.13167119484590878
21.868772,11.766121760953473,0.1314516745830238
21.871152,11.770175080132418,0.13132214540646994
21.873548,11.770363967445393,0.1312231900450006
21.875936,11.771903329198725,0.1311041241681384
21.878316,11.769578259086082,0.1310160332298601
21.880716,11.766322023413663,0.13093450875555623
21.8831,11.762134622181463,0.13085955427096208
21.885484,11.75743536427007,0.13077771956676862
21.88788,11.749663070425617,0.13072465370757566
21.890268,11.743101481394666,0.13065593808748252
21.892648,11.736959201244293,0.13057368154142981
21.895048,11.732958791467198,0.13046911969950067
21.897432,11.724582093144932,0.13038850510744326
21.899816,11.720349365942358,0.13026786959437053
21.902212,11.710622193179733,0.13020720751056228
21.9046,11.701034790043966,0.13014187872409008
21.90698,11.68679155910931,0.13010932571073247
21.909376,11.668404357054959,0.1301167197595363
21.91176,11.648666680560249,0.13014395111981467
21.914144,11.626507594438541,0.13020233341373383
21.91654,11.59634010533117,0.1303315160912325
21.918928,11.577673364023097,0.1303474368942333
21.921324,11.567015025700695,0.13029239582126964
21.92372,11.55714808331121,0.13023512942050133
21.926108,11.54970255054872,0.13014670263884612
21.928488,11.541465621853316,0.13006017773110154
21.930884,11.536721037971546,0.12993152145180253
21.933272,11.534258094089912,0.12977642486505683
21.935652,11.535659582074253,0.12959100617600622
21.938052,11.538271774872092,0.12939053146586718
21.940436,11.54074419804307,0.12919476119555004
21.94282,11.543076851587188,0.12900361625846732
21.945216,11.552207203303475,0.12875903040549475
21.947604,11.558124749459846,0.12854735719744617
21.949984,11.57032813710919,0.1282743756704735
21.95238,11.580529424012113,0.1280189517451846
21.954768,11.596876782781154,0.12770904628726204
21.957164,11.618718587110244,0.12734106233800552
21.959564,11.64363342737239,0.12694630853146904
21.961952,11.669758972448033,0.12653529880480585
21.964332,11.704963855695985,0.12604571085286045
21.966728,11.7349538326376,0.12560925774958187
21.969116,11.758797737713106,0.12522934697664792
21.9715,11.781990016482556,0.12484799838078432
21.973896,11.804111360065363,0.1244776358931209
21.976288,11.830097135514148,0.12407921361612284
21.978668,11.853381962082212,0.1237208318024243
21.981064,11.876247479769699,0.12337720868998925
21.983452,11.895388335218069,0.12305794205904308
21.985832,11.913318485852944,0.12275427376169647
21.988228,11.932040032420733,0.12244986952837252
21.990616,11.951972283802023,0.12213191590616004
21.993,11.96804010331734,0.12184299500857375
21.995396,11.98932282913899,0.12150955364773092
21.99778,12.013678590893695,0.12115322894658784
22.000164,12.041247158208314,0.12076846073348113
22.00256,12.061319179216465,0.12045391103844906
22.004948,12.082042826530675,0.12014475462680264
22.007328,12.099833207538687,0.11985724082135997
22.009728,12.12148802041267,0.11954466129602391
22.012112,12.135925826233908,0.11929208559319604
22.014496,12.151294797614923,0.11903464825257247
22.0169,12.169597035302136,0.11875672491459466
22.019284,12.188550899295404,0.11848258927265674
22.021668,12.208016619967864,0.11821554659795705
22.024064,12.22841350620011,0.11794519053241638
22.026452,12.249369470939795,0.1176586849338673
22.028836,12.266461003813507,0.11739731102664647
22.031232,12.288487903739835,0.11710199956025048
22.03362,12.310514803666157,0.11680711975394788
22.036,12.331610538032704,0.11651824643323913
22.038396,12.352286963518669,0.11624283480338786
22.040784,12.375756885683968,0.1159527406546968
22.04318,12.395082836729573,0.11569746433082845
22.045576,12.409333651095709,0.11548125004846303
22.047964,12.422233991021484,0.1152833532927645
22.050344,12.440349237253589,0.11504402635450613
22.052744,12.453808655686805,0.11483050014749903
22.055128,12.471272275612854,0.11458987627932916
22.057512,12.489015434792623,0.11434340730106306
22.059912,12.514906766584922,0.11403897908121734
22.0623,12.539075536884523,0.11374085855632753
22.06468,12.5653861775574,0.11342710822466061
22.067076,12.592907523043777,0.11310239228399409
22.069464,12.624060982970649,0.11274166110835367
22.071844,12.651489780658409,0.11240126988536762
22.074244,12.679290665398508,0.11207269449094014
22.076632,12.712958082750994,0.11170883483723372
22.079012,12.740479428237373,0.11138904048518258
22.081408,12.76679006891025,0.11108160660330085
22.083796,12.794171644769767,0.11076654620024504
22.08618,12.822763925442782,0.11044058305701634
22.088576,12.84935410536938,0.11012889403992855
22.090964,12.873942184549561,0.10982989926974344
22.093344,12.898250724476021,0.10953827506064683
22.09574,12.921488329215846,0.10925568953321693
22.098128,12.941652898022612,0.10899511096144941
22.100512,12.964331424254993,0.10872881612301569
22.102908,12.985007849740956,0.10847707769275056
22.105296,13.002331700040145,0.10825526069596825
22.107692,13.011507377726808,0.10808855510026474
22.110088,13.020543285786612,0.10792559919168905
22.112476,13.026366388286498,0.10778781417116111
22.11486,13.027765980412969,0.10768655730457918
22.117256,13.024602292539164,0.10762558962835919
22.119644,13.023021396531197,0.10756360019791944
22.122028,13.021999579030672,0.10748655527426035
22.124424,13.020046595970367,0.10741402653639548
22.126812,13.022377353656616,0.1073094395609581
22.129192,13.028060686529644,0.10717733557934049
22.131592,13.034814954589306,0.1070378650781408
22.13398,13.040498287462333,0.10690679478499897
22.136364,13.047252555521995,0.1067681446678488
22.138756,13.058942190634271,0.10660182364948578
22.141144,13.072913465746684,0.10641632189910821
22.143524,13.08595357529932,0.10623485257183583
22.14592,13.103277425598506,0.10602298057185282
22.148308,13.11873894477814,0.10581935877446455
22.150688,13.132989759144273,0.10562762608661329
22.153084,13.149522213510545,0.10541745706019028
22.155472,13.171269574183151,0.10517257350536807
22.157856,13.196741597094865,0.10491257772934602
22.160252,13.225286655939637,0.10463453576117734
22.162636,13.25611335478455,0.10433707618912902
22.165036,13.292015190308927,0.10401014910489144
22.167432,13.330058896206587,0.1036699589106666
22.16982,13.368893998037167,0.10333154890948908
22.1722,13.405726999121324,0.10300586432435535
22.174596,13.44428256169818,0.1026784281122711
22.176984,13.48162741946154,0.10236379000897042
22.179368,13.518552968344318,0.10206184168995834
22.181764,13.554547351667319,0.10176443906645712
22.184152,13.591333130923232,0.10146844245648387
22.186532,13.623974939059455,0.10119879115255921
22.188932,13.661412344621429,0.10091019602000792
22.19132,13.703924886862875,0.10059458521476693
22.1937,13.74122252279799,0.10031205841233062
22.196104,13.782664129852797,0.10000602134039616
22.198492,13.824105736907606,0.09970025752765233
22.200872,13.866338739895331,0.09939698803805544
22.203268,13.908292203629339,0.09910271907684533
22.205656,13.947591940310872,0.09881687636114864
22.20804,13.982887475499568,0.09855267592520948
22.210436,14.023118377740879,0.09826671316506336
22.212824,14.060416013675992,0.09799625707384314
22.215204,14.093569678491413,0.09775020876287911
22.2176,14.126443804053114,0.09751233038311241
22.219988,14.16118026073437,0.09726877769895326
