Time,Force,Position
22.051008,0.065543765608351,0.0
22.053396,0.056548846581239695,0.0
22.055792,0.050347424233463334,0.0
22.058184,0.0402815700197135,0.0
22.060572,0.028213615059546802,0.0
22.062952,0.018007991218936748,0.0
22.065348,0.011527029617439972,0.0
22.067732,0.0042546720830250895,0.0
22.070116,0.0020574512280824393,0.0
22.072512,0.0,0.0
22.074896,0.0,0.0
22.077292,0.0,0.0
22.079688,0.0,0.0
22.082076,0.0,0.0
22.084456,0.0,0.0
22.086848,0.0,0.0
22.089236,0.0,0.0
22.091632,0.0,0.0
22.094028,0.0,0.0
22.096412,0.0,0.0
22.098792,0.0,0.0
22.101188,0.0,0.0
22.103572,0.0,0.0
22.105968,0.0,0.0
22.108364,0.0,0.0
22.110752,0.0,0.0
22.113132,0.0,0.0
22.115528,0.0009865160414439082,0.0
22.117916,0.0030439672695263473,0.0
22.120292,0.0049616488707485765,0.0
22.122696,0.008741661591527446,0.0
22.125084,0.013592609498944846,0.0
22.127464,0.020864967033359726,0.0
22.129868,0.030139425314191462,0.0
22.132256,0.043557854714717105,0.0
22.134636,0.05976978079457771,0.0
22.137032,0.07505054131465999,0.0
22.139416,0.08739803552854711,0.0
22.141796,0.09974552974243422,0.0
22.1442,0.11395535507587799,0.0
22.146588,0.130446820409459,0.0
22.148968,0.1450759546234834,0.0
22.15136,0.16077602402414634,0.0
22.153748,0.17433422305153218,0.0
22.156144,0.18882358763869636,0.0
22.158548,0.20145062110630393,0.0
22.160932,0.21500882013368977,0.0
22.163312,0.22529886311949449,0.0
22.165716,0.23638030203821728,0.0
22.168104,0.24466824427760508,0.0
22.170484,0.24760151058380023,0.0
22.172888,0.24867244577043876,0.0
22.175276,0.24504033132994257,0.0
22.177656,0.23968565539674988,0.0
22.180052,0.22697420278394773,0.0
22.18244,0.2107622767040871,0.0
22.18482,0.19548151618400483,0.0
22.187212,0.18705380431775678,0.0
22.1896,0.1775551572648702,0.0
22.19198,0.16447161759973056,0.0
22.194376,0.14989783386737174,0.0
22.196764,0.13718638125456958,0.0
22.199144,0.1223330582684904,0.0
22.20154,0.10877485924110455,0.0
22.203924,0.09428549465394037,0.0
22.206304,0.08165846118633284,0.0
22.208712,0.06810026215894698,0.0
22.211096,0.05682370313169839,0.0
22.213476,0.04368481298489316,0.0
22.215872,0.033479189144283106,0.0
22.21826,0.028963130972251717,0.0
22.220656,0.02696103022583486,0.0
22.223052,0.02537823835999864,0.0
22.225436,0.025238468733138435,0.0
22.227816,0.03059314466633109,0.0
22.230212,0.03465269664083038,0.0
22.2326,0.03684991749577302,0.0
22.23498,0.03293013514813395,0.0
22.237376,0.030276408095659194,0.0
22.239764,0.029150122427355075,0.0
22.24216,0.027232440826132846,0.0
22.244552,0.025370109706576202,0.0
22.24694,0.02452336329199251,0.0
22.24932,0.02452336329199251,0.0
22.251716,0.02452336329199251,0.0
22.254104,0.02452336329199251,0.0
22.256484,0.02452336329199251,0.0
22.258888,0.02452336329199251,0.0
22.261276,0.02452336329199251,0.0
22.263652,0.02452336329199251,0.0
22.266056,0.022326142437049865,0.0
22.268444,0.018406360089410784,0.0
22.270824,0.016348908861328344,0.0
22.27322,0.01256889614054947,0.0
22.275608,0.006507243419633327,0.0
22.277988,0.0024476914451340356,0.0
22.280384,0.00025047059019138587,0.0
22.282768,0.00025047059019138587,0.0
22.285164,5.535048166558783e-05,0.0
22.28756,5.535048166558783e-05,0.0
22.289948,5.535048166558783e-05,0.0
22.292328,0.0,0.0
22.294724,0.0,0.0
22.297112,0.0,0.0
22.299492,0.0,0.0
22.301888,0.0,0.0
22.304276,0.0,0.0
22.306672,0.0,0.0
22.309076,0.0,0.0
22.311464,0.0017779119743620184,0.0
22.313844,0.002624658388945716,0.0
22.31624,0.003191865549808994,0.0
22.318628,0.003898842337532482,0.0
22.321008,0.004326279871535549,0.0
22.323404,0.008897688525232528,0.0
22.325792,0.01467980199242825,0.0
22.328172,0.022603785832901027,0.0
22.330568,0.03252987041979066,0.0
22.332956,0.04152478944690197,0.0
22.33534,0.05051970847401328,0.0
22.337736,0.060585562687763134,0.0
22.340124,0.06958048171487444,0.0
22.3425,0.07950656630176407,0.0
22.344896,0.0851489101420996,0.0
22.347284,0.08972031879579657,0.0
22.349676,0.09322079226285503,0.0
22.35208,0.09565033054327494,0.0
22.354468,0.09621753770413821,0.0
22.356844,0.09621753770413821,0.0
22.359248,0.0944396257297762,0.0
22.361636,0.0935928793151925,0.0
22.364016,0.09302567215432923,0.0
22.366408,0.09231869536660574,0.0
22.368796,0.09189125783260269,0.0
22.371176,0.0873198491789057,0.0
22.37358,0.08153773571170997,0.0
22.375968,0.0736137518712372,0.0
22.378348,0.06368766728434756,0.0
22.380752,0.054692748257236246,0.0
22.383136,0.04700352292205544,0.0
22.385516,0.04555102139373321,0.0
22.387912,0.05219757479182621,0.0
22.3903,0.06182082460861904,0.0
22.39268,0.0916010598007021,0.0
22.395076,0.13720731779327813,0.011338510463391497
22.397464,0.205063313848309,0.02159884453878355
22.399844,0.29735624430944585,0.03134384094220412
22.402248,0.41897425440105734,0.04060845390431138
22.404632,0.5716027082988886,0.04933371885322708
22.407012,0.7510895062298233,0.05780681011379657
22.409408,0.9520799722606686,0.06630109838021297
22.411796,1.1849566971758465,0.07453115223520218
22.414192,1.4453433924301853,0.0826395646007727
22.416588,1.735009841344625,0.09057295892489267
22.418972,2.0485088201873562,0.09845064655955142
22.421352,2.381416818584964,0.10638337124381288
22.423756,2.7377380380302823,0.11429085001820259
22.426144,3.116356217366299,0.12212759483661506
22.428524,3.5035834124500584,0.13008094505465043
22.430928,3.902490218134803,0.13809407623165498
22.433312,4.309448856917719,0.14614558630709387
22.435696,4.728510752119885,0.15415046311199973
22.438092,5.163821770718863,0.1620371845066875
22.440476,5.590147894802024,0.16994825946207076
22.442856,6.0035793665330175,0.16658687306205824
22.445248,6.3985783102392855,0.16430148764446822
22.447636,6.771189642114109,0.16248914994269653
22.450032,7.11042636689525,0.16117938176656105
22.452436,7.411910300179668,0.1604939049294786
22.45482,7.685045645363762,0.16009723959490368
22.4572,7.935187078380729,0.15971625712328538
22.459604,8.144642453594775,0.15972707100390096
22.461992,8.322863196230546,0.15990914368707185
22.464372,8.466309739646164,0.1603692997623158
22.466768,8.587738862424805,0.16089303663341273
22.469152,8.695206189380382,0.16129211892070378
22.471532,8.779959143422543,0.16168387619245084
22.473928,8.838830244961759,0.16219005132122616
22.476316,8.89318908004468,0.16254298238560247
22.478696,8.941080769753134,0.16275019089223908
22.481092,8.975103211437137,0.16288153749213255
22.48348,8.9874803195365,0.1630829024098993
22.485864,8.978070428566493,0.1634466180698959
22.48826,8.966241023827356,0.16376419332525924
22.490644,8.964516566476789,0.1638690995790032
22.493028,8.96218770464841,0.16394113559578075
22.49542,8.958740685805148,0.16406156958775123
22.497808,8.963300174089683,0.16415632824062165
22.500208,8.974610138718147,0.1641904981806655
22.502604,8.991694088160381,0.16411886016307914
22.504992,9.011246669057858,0.16396829134633847
22.507372,9.041880688874054,0.16365035170816628
22.509776,9.080475889847678,0.1632465950174529
22.51216,9.130012760113162,0.16268206203209098
22.514544,9.181598952953308,0.16206231515278408
22.51694,9.22401325982253,0.1615537198282793
22.519324,9.267031971169569,0.16107997838595686
22.521704,9.319874194793586,0.16050183493095083
22.5241,9.371692705059209,0.15991862014157354
22.526488,9.415177947115069,0.15941190477947367
22.528868,9.457871793238013,0.15891436751004187
22.531264,9.50280005753285,0.15840475751050845
22.533652,9.552012062574242,0.15782665862395437
22.536048,9.598105705712204,0.15724362463587263
22.538444,9.628229764707074,0.15685822604188898
22.540832,9.655373335567504,0.15654188730020402
22.543212,9.685030863853552,0.15620621184925768
22.545608,9.715527009900757,0.15583848124716362
22.547996,9.749143413709266,0.1553988000964855
22.550376,9.775962119345602,0.1550465679183015
22.552772,9.79831009278028,0.15479433406248655
22.55516,9.820238757334382,0.1545619178748597
22.55754,9.83634811110433,0.1543743959366387
22.559944,9.842214643716721,0.15430080842266555
22.562332,9.844728601142336,0.15428149164289995
22.564712,9.854132804538738,0.15420275021633115
22.567108,9.863956316815718,0.15410721799759322
22.569496,9.864607943121777,0.15410842101132347
22.571876,9.865259569427835,0.15410967155492952
22.574272,9.872102593570377,0.15408180032498486
22.57666,9.879969331071313,0.15406810936194265
22.579056,9.89160795263961,0.15398624774083308
22.581452,9.901012156036009,0.15391217579347086
22.58384,9.911859381671386,0.15383616544758558
22.58622,9.932158032531406,0.15365814142598258
22.588616,9.956228567458782,0.15341298500229883
22.591,9.979927015333823,0.1531574137357861
22.593384,10.005208255074697,0.15289747472277626
22.59578,10.032304604106884,0.1526511133761212
22.598164,10.061495601684104,0.1524021165088921
22.60056,10.100604555194794,0.15201168554543923
22.602956,10.13841025609337,0.15162073273630414
22.60534,10.181802950350614,0.15117690024374808
22.60772,10.233995443526442,0.15063331352118275
22.610116,10.285303992970736,0.15007098031564375
22.6125,10.335728598683495,0.14949504595059865
22.614896,10.389086470702448,0.14889303545435506
22.617296,10.452966703132683,0.14818663145335928
22.619684,10.513913669256725,0.14751703333736638
22.622064,10.568622015716038,0.14690167737966253
22.624468,10.622538966242432,0.146292593789782
22.626856,10.67389473751497,0.14573254260839985
22.629236,10.726041904720425,0.14517150992689232
22.631636,10.774883718567349,0.14463237669511875
22.634024,10.81483318569707,0.1441657379875298
22.636404,10.851197760214536,0.14373030461230027
22.638808,10.883697902866029,0.1433342740928565
22.641192,10.912101296226073,0.14296345301674204
22.643572,10.936407940294663,0.1426168608482631
22.645968,10.96513809473667,0.14221371901820165
22.648356,10.985580306939289,0.14190957490471193
22.650736,11.007465541380881,0.14160558750679353
22.653132,11.022832616904028,0.14135931651994402
22.65552,11.029539663135447,0.14119579375373836
22.6579,11.038620897165623,0.14102342067574675
22.660296,11.045839800076243,0.14086785708914235
22.66268,11.046028687389216,0.14076169094393623
22.665064,11.036905919104402,0.14073475027358012
22.66746,11.029226173058568,0.14070673217544702
22.669844,11.027273189998263,0.14062687580235617
22.672228,11.023597645445262,0.14055776162486847
22.674624,11.025137007198595,0.1404310353234065
22.677008,11.026536599325068,0.1403094289286505
22.679404,11.027516882570957,0.14020214000489084
22.681796,11.03343253286946,0.14004662630562986
22.684184,11.038137478354464,0.13990808454760298
22.686564,11.045775690145662,0.13974144449900577
22.68896,11.050992492309863,0.13960941354074996
22.691348,11.056721151153264,0.1394844137132193
22.693744,11.061518644436882,0.13936818293472225
22.69614,11.071903131079173,0.1392067603464282
22.698528,11.083358552908102,0.13903427835003784
22.700908,11.101332133655479,0.13881001112363248
22.703304,11.13010761406786,0.13848554492168694
22.705692,11.159302403360819,0.13814951219694685
22.708072,11.18728648784028,0.13783050511244885
22.710476,11.21578242899894,0.13751657515157983
22.712864,11.245489074971099,0.13718497421193787
22.715244,11.272169906838446,0.13685944258307411
22.71764,11.292332579787344,0.1365864802500931
22.720028,11.3143575838558,0.13629897607174102
22.722412,11.325440918632392,0.13611690587670777
22.724816,11.336664023035842,0.13593076102089052
22.727204,11.35203109855899,0.1357020142036819
22.729584,11.367398174082135,0.13547457789120212
22.73198,11.385186659232279,0.13521368265284264
22.734364,11.402323518076363,0.13495134999965974
22.736748,11.42509459210736,0.13462127034410984
22.739144,11.4479128879666,0.13426669815331746
22.741532,11.464352794534253,0.13395751858291377
22.743912,11.477627117370234,0.13365977962941594
22.746308,11.485314446847545,0.13340455414429403
22.748696,11.486483617406407,0.13319877805302707
22.751076,11.48127439867368,0.13303778667837055
22.753472,11.469919108074846,0.132936374197431
22.75586,11.460705687849288,0.13281187817117837
22.758256,11.456707173930061,0.13263474671650596
22.76066,11.453360286316894,0.1324598549078735
22.763044,11.451875729823282,0.13227109449910077
22.765424,11.452533043702948,0.13205888705466678
22.767828,11.452678500903417,0.13184004226434032
22.770216,11.457107698850438,0.13157414166459747
22.772596,11.459814335304763,0.1313176086726857
22.774992,11.457725374333336,0.13110026513918985
22.777376,11.45428593892155,0.13090375435739196
22.779756,11.4536400001891,0.1306875662679345
22.782152,11.454996162203066,0.13045398585584553
22.78454,11.450718109030118,0.13028578084241274
22.78692,11.448674474029065,0.13011631468472318
22.789316,11.45314899794646,0.1299009049695721
22.7917,11.45548165149058,0.12970750771062567
22.794084,11.46125942802009,0.12949664115688678
22.79648,11.470761866788717,0.12925928624944377
22.798864,11.482498723729238,0.12902107107007652
22.80126,11.501173048468788,0.12872351412150276
22.803656,11.521709704327892,0.12841505108778195
22.80604,11.54117542500036,0.1281200625933809
22.80842,11.561991620113183,0.12780622200116235
22.810816,11.585741081532204,0.12747095762557242
22.813204,11.614425910003833,0.1270978890460679
22.8156,11.640689328848469,0.1267547230740387
22.817996,11.671468805865135,0.1263869549600307
22.82038,11.702899909187858,0.12602200875670497
22.822764,11.738055674749695,0.12563303139126336
22.82516,11.776284476244589,0.12521907114072575
22.827548,11.811300472179566,0.12483898814498832
22.829928,11.845245532927905,0.12447192195544303
22.832328,11.884405499982575,0.12405825187677436
22.834716,11.914625898491801,0.12371469773427532
22.837096,11.94177326106797,0.12339962614858797
22.839492,11.973716221069893,0.12305154964450601
22.84188,12.004076389205977,0.1227070069336068
22.844264,12.035367722901842,0.12235842843907373
22.84666,12.063865559918371,0.12202821791218613
22.849048,12.090501065815342,0.12171206424819085
22.851428,12.114203305406122,0.12141925450730474
22.853832,12.136974379437122,0.12113388197731101
22.85622,12.1606766190279,0.12084473552605644
22.8586,12.182097218618539,0.12058132550935474
22.860996,12.20202757414196,0.12034284795783104
22.863384,12.22810400153149,0.12005571072709677
22.865764,12.252597637055185,0.11977385296804165
22.86816,12.283377114071852,0.11944209514189066
22.870548,12.316298461461795,0.11909472988813342
22.872944,12.348009104038237,0.1187632830598397
22.87534,12.380930451428181,0.11841946674572051
22.877728,12.412641094004625,0.11808989469617105
22.880108,12.442768944715233,0.1177651172017196
22.882504,12.482255672851867,0.1173651947676695
22.884892,12.522953105802003,0.11695324088447144
22.887272,12.559646337259302,0.11657131676755132
22.889668,12.601274935769215,0.11615840855568207
22.892056,12.645045404652405,0.11573144906986264
22.894436,12.69174913984179,0.11528665167517274
22.896832,12.739384040590952,0.11483961334423363
22.89922,12.789952207646307,0.11437646995182155
22.901604,12.839449439515025,0.11392369191408322
22.904,12.882521060263914,0.11352313223760817
22.906388,12.9268033858263,0.11311196105573293
22.908784,12.965638487656877,0.11272633563946542
22.91118,13.00046938799462,0.11237024272323032
22.913568,13.031156317212668,0.11204554835544045
22.915952,13.054626239377969,0.11177563688115341
22.918348,13.07195008967716,0.11155005268921335
22.920732,13.085828816990954,0.11133562000021668
22.923112,13.100498940237669,0.11112135748494187
22.925508,13.11810232979058,0.11089035624915043
22.927892,13.13421547527627,0.11067987690436336
22.930276,13.1489781463216,0.11048680414588578
22.93268,13.16346127811321,0.11030194047988127
22.935064,13.182367920278235,0.1100812408713179
22.937444,13.197270360950426,0.10988696445792763
22.939848,13.207097664943145,0.10972657289069015
22.942236,13.21506263781631,0.109575306847802
22.944616,13.218092243636862,0.10945314333929629
22.947012,13.217117647964578,0.10935589692357686
22.9494,13.218005383411851,0.109250267273163
22.95178,13.22797245703143,0.10908778121260625
22.954176,13.235006264344815,0.10894210221805367
22.956564,13.24683566908395,0.1087715960642993
22.958956,13.261598340129282,0.10858551089784893
22.961352,13.280225443040585,0.10837913632679204
22.963736,13.298852545951892,0.10817250267454004
22.96612,13.323625720729309,0.10792674013704773
22.968512,13.352914953678756,0.10766457732040859
22.9709,13.381412790695283,0.10740422940139949
22.973296,13.406185965472702,0.10716125468776212
22.975692,13.431098909876976,0.10691489986944454
22.978076,13.454940919094614,0.10667727790308153
22.980456,13.477060366819556,0.10644439721975106
22.98286,13.493545599357583,0.10625781131205687
22.985248,13.512172702268888,0.10605669298257943
22.987628,13.530148178874134,0.10585202354983062
22.990024,13.546401093986685,0.10565169643865537
22.992412,13.567729145778706,0.10542059929215718
22.994792,13.588545340891535,0.10518232603770013
22.997188,13.604054081899408,0.10496078280661482
22.999572,13.611461872123002,0.10476838194242359
23.001968,13.618078266413674,0.10457604617618121
23.004364,13.62297209921165,0.10438852323448136
23.006752,13.623349873837594,0.10421729368678029
23.009132,13.619211590291508,0.10406191192069678
23.011528,13.615492615626001,0.10389551356753808
23.013916,13.602322215735851,0.10377141089751107
23.016296,13.579700390621058,0.10368963910883507
23.018692,13.55442483845379,0.10361552801673002
23.02108,13.529428825540245,0.10353384313675602
23.02346,13.502570481507142,0.10345970106469855
23.025856,13.476550755235202,0.10336328256649063
23.028244,13.450670798590119,0.10326295887028807
23.030628,13.428422956385534,0.10312919834721693
23.033024,13.401659056008917,0.103010417511755
23.035408,13.376897256378717,0.10287999312414153
23.037804,13.354789183800989,0.10274153215019063
23.040204,13.32867690973043,0.10262510768140651
23.042592,13.305078593085486,0.1025042676668422
23.044972,13.286647960918629,0.10237143906161573
23.047368,13.273385013229863,0.1022266393997194
23.049756,13.262915562220433,0.10207045202840888
23.052136,13.254168672703699,0.10191053247888236
23.054532,13.248866906172356,0.10174301535518251
23.05692,13.247289801880129,0.10156059606959456
23.059304,13.247435259080596,0.10137455001717913
23.0617,13.258103076692347,0.10114127942302553
23.064088,13.27864162840932,0.100856682638268
23.066468,13.30169413755191,0.10056860742689404
23.068864,13.326469208187193,0.10027752045736028
23.071252,13.358461285875228,0.09994514601852589
23.073636,13.387892184309404,0.09963880446594378
23.076032,13.419464953116858,0.09931914251649739
23.078416,13.449827017110811,0.09901132922951485
23.080812,13.484285830396217,0.09870061948971189
23.083216,13.521258601107236,0.09838822806194138
23.085604,13.559721615885476,0.09806024899596961
23.087984,13.600838357716189,0.09772558625058073
23.09038,13.640232538054208,0.09739493804180727
23.092768,13.676181595406833,0.09707140882553127
23.095152,13.713620896826678,0.09673307080226168
23.097548,13.747987162313466,0.09641198918796029
23.099936,13.775276190374367,0.09612776215775597
23.102316,13.799259865076731,0.09584706921382075
23.104716,13.824454244592596,0.0955575720061543
23.1071,13.848717458548686,0.09527217312576178
23.109484,13.865903435078884,0.09502466994659522
23.11188,13.884020577168862,0.09477610741225573
23.114268,13.90241725851256,0.09452152126454505
23.116648,13.920162313550199,0.09426401152323056
23.119052,13.927477555975168,0.09406548754301666
23.121436,13.936003503213643,0.0938571001009629
23.12382,13.945320846385036,0.09364989408994395
23.126216,13.955289815862482,0.09344675673664479
23.128604,13.962744827914317,0.09324630605115936
23.130984,13.966754716980759,0.09305170133289636
23.13338,13.96927436197998,0.09287420855484549
23.135768,13.972492855113508,0.09268033066514876
23.138152,13.976642513806809,0.09248352864025541
23.140556,13.983585669179444,0.09227794456700378
23.14294,13.987316018992166,0.09209189134086855
23.145324,13.997471979924715,0.09186904935502256
23.14772,14.018057753469934,0.0915911855734832
23.150108,14.039946779627266,0.09132093136680128
23.152488,14.057552065038044,0.09107583730838036
23.154888,14.074086415262183,0.09083703661429487
23.157272,14.09169170067296,0.09059167956731176
23.159652,14.102079979030993,0.09038323184381611
