Time,Force,Position
5.366688,6.901947190619303,0.1647538208759347
5.369083999999999,7.037544059254807,0.1639651316800246
5.371468,7.1482374627753815,0.1633502054647871
5.373848000000001,7.248040210548074,0.1627286803402426
5.376244,7.34314370040937,0.1620099147493919
5.378632,7.426472590791251,0.161220544593129
5.395351999999999,7.413160525416368,0.1610897496541083
5.397748,7.4281989439996785,0.1608635567034126
5.400136,7.457901798256098,0.16051273194872
5.402516,7.492445575908642,0.1601630768329088
5.404920000000001,7.526150735800029,0.1598531143977671
5.407308,7.560227982743751,0.1595496960742663
5.409687999999999,7.589881719314061,0.1593283922245946
5.412084,7.6252622188699,0.1590126918253503
5.414472,7.655475033947651,0.1587674056854192
5.416852,7.687597401973201,0.1584616428525344
5.419256000000001,7.7212572358942095,0.1580748282129805
5.421644000000001,7.746583801605458,0.15777828654371
5.424023999999999,7.765299660599642,0.1575475292710203
5.42642,7.779592009220412,0.1574049156159892
5.428808,7.795187610453296,0.1572606607348836
5.431188000000001,7.8127380906043555,0.1571210795278633
5.433591999999999,7.841974414151954,0.1568365962471328
5.435980000000001,7.872793529565389,0.1565400630967471
5.438364,7.907709394270275,0.1562121320830932
5.440759999999999,7.9470015475203315,0.1558339611737505
5.443144,7.9919279159573,0.1553389086136112
5.450312,8.020185852116876,0.1551188365107857
5.452692000000001,8.024934227714386,0.1550868068384256
5.455088,8.032383552192611,0.1549875527351102
5.457476,8.050262689283501,0.154706013745649
5.459872000000001,8.07000415749395,0.1544033109020489
5.462268,8.088487699062656,0.1541639103918863
5.464656,8.106364940295677,0.1539911189285899
5.471819999999999,8.139926538844463,0.1539189507495152
5.4742,8.157197479741802,0.1538077527029962
5.4766,8.186620794744503,0.1535050330892002
5.4789840000000005,8.215020396388804,0.1531876574591399
5.481363999999999,8.228568570904898,0.1530295574858662
5.48376,8.243746759115071,0.1528274810856808
5.486148,8.249892830981182,0.1527298677645766
5.488531999999999,8.253804484675397,0.1526412207243976
5.490924,8.256645203182977,0.1525715020231877
5.493312,8.259485921690553,0.1525010421527259
5.4957080000000005,8.267773863929941,0.152365135982464
5.498104,8.282532743259535,0.1521822526870694
5.500492,8.300317436693941,0.1519892708762732
5.5028760000000005,8.322757957927237,0.1517398911098856
5.505272,8.339379168376388,0.1515399337893214
5.50766,8.351391772854887,0.1513640590802908
5.51004,8.36275275102733,0.1511857812811687
5.512444,8.369877210281462,0.1510446540236403
5.514832,8.38240356729703,0.1507804100115382
5.517212000000001,8.406710211365622,0.1503178901933972
5.519608,8.42743196282196,0.1498921268669979
5.521996,8.443590434278024,0.1495558733931685
5.524376,8.453974920920318,0.149332816820272
5.526776,8.461426141256414,0.1491488756754604
5.529164,8.468597822338788,0.1489749281862699
5.53154,8.472556697861247,0.1488548201055478
5.533936000000001,8.486478855287547,0.1486253018256065
5.53632,8.50584823644566,0.1483393163638711
5.538715999999999,8.526056235364932,0.1480179039545665
5.541108,8.548406104657479,0.1476597034305832
5.543495999999999,8.57010434764397,0.1472988694863436
5.545876,8.589987481339149,0.1469305843259865
5.548268,8.609266210556509,0.1465337137128938
5.550652,8.61979236268353,0.1462163354628241
5.553048,8.626034774063998,0.1459634752732962
5.555452000000001,8.625944122123249,0.145839472158183
5.557836,8.633302794660727,0.145630485826582
5.5602160000000005,8.650020344624233,0.1452838567582601
5.562607999999999,8.660591822721628,0.1450278000763752
5.564996000000001,8.658871157086802,0.1449474891551087
5.567387999999999,8.662318175930064,0.1448230045420176
5.569784,8.668326374027183,0.144647023381665
5.572172,8.676011807646624,0.1443982824228685
5.574552000000001,8.686537959773647,0.1440852183104886
5.576943999999999,8.699997378206861,0.1437311110889336
5.579328,8.715039588505913,0.1433689387623005
5.581724,8.729197855073432,0.1429902520126685
5.58412,8.73888728529716,0.1426271195487456
5.586504,8.742710182908498,0.1423354726345858
5.588884,8.74727725462451,0.1420725846110656
5.591279999999999,8.761248529736923,0.1417412873799401
5.593664,8.776942366342032,0.1414009038643431
5.59606,8.785186878468917,0.1411385660097844
5.5984560000000005,8.800461406193445,0.140816775455711
5.60084,8.826350842127871,0.1404028919975515
5.60322,8.869747328100855,0.1397566391438572
5.605624000000001,8.908814747356908,0.1391255242500979
5.608012,8.937127488776204,0.1385945252711166
5.610391999999999,8.965160690941778,0.1380724876241536
5.612796,9.00623021094425,0.1374186364734019
5.615183999999999,9.04906951426766,0.1367270858472564
5.617564,9.092095809046176,0.1360088430516038
5.619964,9.125902996025522,0.1354074644267799
5.622351999999999,9.154820141922633,0.1349176704586637
5.624732,9.192350095283222,0.1343711530041537
5.627136,9.230858436031834,0.1337874056781847
5.629519999999999,9.261405595623025,0.1332692970947948
5.6319,9.28697016633336,0.1328374599533602
5.634295999999999,9.315001472641065,0.1324191411552347
5.63668,9.343591857456213,0.1319770465944094
5.639056,9.361894095143422,0.1315790813404825
5.641451999999999,9.368790028687814,0.1312646774877348
5.643839999999999,9.375778510030823,0.1309741858785321
5.646236,9.386863740665286,0.1306664052726032
5.648636,9.394923157194937,0.1303667805744833
5.651024,9.38901509032791,0.1301957011328665
5.667736,9.288702381733888,0.1301399176354105
5.677300000000001,9.22623311657734,0.1301337483499264
5.6796880000000005,9.21645872198647,0.1300874154255832
5.682067999999999,9.2103164418361,0.1299831594223713
5.684464,9.205245096872364,0.1298652415704634
5.686852,9.199427681946087,0.129806129355476
5.689244,9.205947736722404,0.1296613074660248
5.691648000000001,9.22513202228328,0.1293920591105605
5.694032,9.236355126686734,0.1291792194288194
5.6964120000000005,9.247298691836466,0.128978417620939
5.698815999999999,9.26112830146415,0.1287782660474596
5.701204000000001,9.281196530756562,0.1285332002737919
5.703583999999999,9.304664557063994,0.1282123190054841
5.705976,9.321102567773776,0.127937044623262
5.708359999999999,9.33847174404334,0.1276536974073951
5.71074,9.363941871097186,0.1273128650601768
5.713144,9.392624803710952,0.1269301964594772
5.715532,9.41893354852596,0.1265553889431175
5.717912,9.441749948527333,0.1262353930257803
5.720316,9.4668007667006,0.1259139754241843
5.7227,9.494877398978677,0.125589646787329
5.72508,9.522442174577558,0.1252573264554803
5.7274840000000005,9.546142518310466,0.1249629234957918
5.729872,9.568492387603015,0.1246944581474862
5.732251999999999,9.591493883201622,0.1244309522441339
5.734648,9.62120052917378,0.1240798306383352
5.737031999999999,9.643877159548293,0.1237751020806427
5.739412,9.649745588018552,0.1236350589267948
5.741808000000001,9.658919369847345,0.1234813548547458
5.744192,9.669024317235916,0.1233211174809765
5.746587999999999,9.680759278318568,0.1231271802077783
5.748984,9.691563073841438,0.1229415166118254
5.751367999999999,9.703390582722704,0.1227752522898039
5.753748,9.7226674160822,0.1225513824517087
5.756152,9.742084019068551,0.1223226452202439
5.758535999999999,9.7519094272034,0.1221764553851029
5.760916,9.762386461644311,0.1220340531687566
5.76332,9.774446287951056,0.1218881772486804
5.765704,9.78692542313838,0.1217273121821466
5.7680880000000005,9.796238974594033,0.1215733055121408
5.770491999999999,9.801176237504514,0.1214438106506851
5.772876,9.80890699709433,0.1212940325979665
5.775256000000001,9.817429152617065,0.1211423590434916
5.777659999999999,9.826230847393518,0.1209808040798126
5.780044,9.82930577918444,0.1208658554716205
5.782424000000001,9.827165804669033,0.1208068119398028
5.78482,9.828470953139018,0.1207305804253935
5.787208,9.839134979035029,0.1205548094726675
5.789588,9.849007608998122,0.1203810828930901
5.7919920000000005,9.854224411162326,0.1202419578460989
5.794376,9.861163774819223,0.120095224554651
5.796756,9.866240807356569,0.119962289739931
5.7991600000000005,9.862937349855905,0.1198908719662723
5.801544,9.858051100489403,0.1198228356831084
5.803924,9.85502718224246,0.1197413401270955
5.80632,9.857869796607908,0.1196089607654882
5.808707999999999,9.85819845354774,0.1194864261635487
5.811104,9.858155023435234,0.1193502179465684
5.813504,9.857971823695868,0.1192194852438719
5.815892,9.863235847688314,0.119054201554664
5.818272,9.875577109106649,0.1188229152161673
5.820676000000001,9.885404413099367,0.1186024743448606
5.8230640000000005,9.898584292278864,0.1183435710534123
5.825443999999999,9.91097277552544,0.118086877720903
5.82784,9.930718035451624,0.1177551241781639
5.830228,9.951813769818171,0.1174018197887385
5.8326080000000005,9.970255777132245,0.1170635473136457
5.835004,9.986695683699896,0.1167447564672978
5.837388000000001,10.002623733588354,0.1164174534084953
5.839767999999999,10.02348715052942,0.1160487649095302
5.842172,10.03997427892532,0.1157027062879128
5.84456,10.060605378440911,0.1153184025875566
5.84694,10.088313715382393,0.1148697738154506
5.849344,10.115370426017812,0.1144195264196253
5.851732,10.137911078481205,0.1139954322104892
5.854112000000001,10.15686683833234,0.1135916732474875
5.856508,10.18117727411667,0.1131346951086192
5.858896,10.20534794027414,0.1126839353367535
5.861276,10.228727210498691,0.1122356829640128
5.863671999999999,10.248801127364713,0.1117987010145703
5.866056,10.26393967717812,0.1114034877018195
5.868435999999999,10.27693635661825,0.1110295641588875
5.870828,10.282343941953291,0.1107069491131538
5.873215999999999,10.284958030609005,0.1104011886818471
5.875612,10.28370768739874,0.11012430851104
5.878016000000001,10.27966384750914,0.1098640773968962
5.8804,10.279903748366094,0.1095623079211968
5.88278,10.277350152543711,0.1092769712560309
5.885172000000001,10.275587952654249,0.1089907924060238
5.887560000000001,10.269030155339031,0.1087375051232462
5.8899360000000005,10.263123984329876,0.1084877558733851
5.892332,10.249488949588772,0.1082922951299775
5.89472,10.22891644704864,0.1081502882061076
5.897112,10.206853700441291,0.1080328864965805
5.899516,10.187304911259552,0.1079081123125129
5.901904,10.168687287637594,0.1077772468390219
5.9042840000000005,10.143224744015225,0.107723496985997
5.906684,10.12069546669905,0.107647260960159
5.909072,10.096164088636456,0.1075865277351095
5.911452000000001,10.074938063932397,0.1075176015688877
5.913848,10.0514303992282,0.1074741482094841
5.916231999999999,10.030716231203336,0.1074139509531674
5.918612,10.01973302765684,0.1072841973637391
5.921016,10.013405651909231,0.1071271894393861
5.923404,10.007869672094548,0.1069694810197968
5.925784,10.008991620825164,0.1067697478435708
5.928184,10.00168585768954,0.1066461698007706
5.930567999999999,9.99889615272594,0.1065007415934346
5.932948,9.995966678135488,0.1063601695977985
5.935352,10.000114440970918,0.1061639331501637
5.93774,10.005984765299049,0.1059622113347105
5.940123999999999,10.018513018172484,0.1057187730602704
5.942527999999999,10.039980839591363,0.105409522538634
5.944912,10.065732401756804,0.1050620947327732
5.947291999999999,10.09190327280282,0.1047011429912862
5.949695999999999,10.120727870901314,0.1043309742149856
5.9520800000000005,10.15532645381358,0.1038973186793639
5.954459999999999,10.186060604859874,0.1034913015576101
5.956864,10.21879685665258,0.1030703878893638
5.959251999999999,10.247156819900116,0.1026667776363195
5.961627999999999,10.279940293521069,0.1022193370939325
5.964032,10.309930270462685,0.1017871395603377
5.966419999999999,10.330701139605134,0.1014295503535804
5.9688,10.350540843187805,0.1010789729238458
5.971195999999999,10.36916984195698,0.1007428314828797
5.973584000000001,10.3830032433004,0.1004374654114838
5.975963999999999,10.405124586883211,0.1000652706644907
5.97836,10.423940577107487,0.0996991436911964
5.980744,10.443967272145263,0.0993201656642821
5.983124,10.457987664943786,0.0989852809458136
5.985528,10.469773639570416,0.0986460110383627
5.987916,10.479697283077488,0.0983172365355786
5.990296000000001,10.484685559531949,0.0980220448636441
5.992687999999999,10.48259659856052,0.0977768964759052
5.995075999999999,10.48250973833551,0.0975189035600516
5.997468,10.480979855871524,0.0972567098321401
5.999867999999999,10.47609739822076,0.0970262289368114
6.002252,10.472006336502917,0.0967958232048142
6.004631999999999,10.467915274785073,0.0965654952689682
6.007035999999999,10.4682005016124,0.096323116527889
6.009423999999999,10.46941689399951,0.0960775077161482
6.011804,10.472775156759893,0.0958142761118813
6.014200000000001,10.484421361759662,0.095490961840361
6.0165880000000005,10.494345005266736,0.0951720877545015
6.018972,10.508692159147223,0.094815671892118
6.021368000000001,10.522899543400854,0.0944635351899233
6.0237560000000006,10.53710692765448,0.0941146269413245
6.0261320000000005,10.553548730080005,0.0937717838623767
6.028528,10.567848662132247,0.0934464012136307
6.030912000000001,10.584522781983248,0.0931224240396048
6.033308,10.60450225519278,0.0927968053618784
6.035703999999999,10.626344059521871,0.0924648787591623
6.038088,10.646975159037463,0.09214510383241
6.040468000000001,10.671470690419026,0.0918042407695085
6.042871999999999,10.692613646613816,0.091493940734143
6.045256,10.712126589114524,0.0912098810659685
6.047636000000001,10.731639531615231,0.0909256564286496
6.050032,10.749150373369526,0.0906532716463019
6.052415999999999,10.767592380683595,0.090378025041926
6.054812,10.782309725758552,0.0901189717652625
6.057216,10.793394956393016,0.0898981994751045
6.059604,10.804992043706674,0.0896874492385008
6.061984000000001,10.81081514620656,0.0895310284919012
6.064387999999999,10.8190124365052,0.0893770638724221
6.066775999999999,10.822646446803567,0.089264260844566
6.069151999999999,10.82707185303485,0.089152160373018
6.071555999999999,10.825071648146302,0.089087784808791
6.073943999999999,10.82614447919081,0.0890043861327165
6.076324,10.829731267660934,0.0889190916174336
6.078728,10.834808300198274,0.0888135046600817
6.081111999999999,10.838954167175835,0.088711838016153
6.083496,10.838956063033706,0.0886368761165806
6.085896,10.845755657063744,0.0885296980274894
6.088284,10.855208978146257,0.0884170333679587
6.090664,10.866524630348326,0.0882977003514717
6.09306,10.879330526617617,0.0881581604304114
6.0954440000000005,10.89572131549916,0.0880099464989694
6.097828,10.916116305873532,0.087840269065314
6.100223999999999,10.936371526621048,0.0876757034896271
6.102612000000001,10.95541604255506,0.0875224802681526
6.1049880000000005,10.977673364048991,0.0873469834428869
6.107388,11.000210224796644,0.08716394734866
6.109776,11.026518969611653,0.086942319122948
6.112156000000001,11.051105152933966,0.0867239085784524
6.114559999999999,11.076902041069776,0.0864938758646189
6.116944,11.101907533272668,0.0862630063352096
6.119327999999999,11.133198866968533,0.0859922433596317
6.121732,11.157692502492228,0.0857531911592926
6.124115999999999,11.18116242465753,0.0854968026393308
6.126496,11.200488375703136,0.0852660631483208
6.1289,11.22102503156224,0.0850252924855941
6.131288,11.246916363354538,0.0847492496308675
6.133668,11.266009996974669,0.0845042354403903
6.136063999999999,11.280867111676486,0.0842628203911754
6.138451999999999,11.295352139325963,0.084008791346538
6.140832,11.31155972846814,0.083753994288579
6.143228000000001,11.324461964251784,0.0834997059714606
6.145619999999999,11.337364200035427,0.0832468509905388
6.148,11.346262234326238,0.0830133398607177
6.150396000000001,11.358373074176964,0.0827589898072093
6.15278,11.366899021415438,0.0825124493015216
6.155163999999999,11.374493803094133,0.0822693392092465
6.15756,11.377013448093354,0.0820525942354876
6.159943999999999,11.378741697159658,0.0818346210396597
6.1623280000000005,11.383682751785878,0.0815970989082992
6.164724,11.389554971971876,0.0813567996718006
6.167112,11.389281120291765,0.0811491719529882
6.169492,11.391660995664129,0.0809368221212139
6.171887999999999,11.393342022902187,0.0807447547396818
6.174275999999999,11.395954215700026,0.0805495291158852
6.176672,11.393351502191532,0.0803839430989565
6.179067999999999,11.386604817563343,0.080241445786324
6.181456000000001,11.37892696737538,0.0801011302685968
6.18384,11.371760973866612,0.0799698507562491
6.186235999999999,11.364827297783323,0.0798560225208873
6.18862,11.355611981699894,0.0797596417423178
6.191000000000001,11.347048291922524,0.0796684498655905
6.193403999999999,11.334620170279184,0.0795916347372818
6.195791999999999,11.326475789382393,0.0794881560743335
6.198172,11.317540012552683,0.0793832236241067
6.200576,11.312328897962097,0.0792679347230558
6.202959999999999,11.305907078558,0.0791630679672126
6.205344,11.302138986206382,0.0790542896818907
6.207739999999999,11.298231124227904,0.0789493450648749
6.210124,11.288316960010174,0.0788714704141063
6.212503999999999,11.279473730979086,0.0787870354652666
6.2149,11.275845408254328,0.0786741193143506
6.217288,11.270913832917456,0.0785500683263383
6.219668,11.265330631274525,0.0784204233103565
6.222064,11.26137744332567,0.0782683153510502
6.224451999999999,11.263849866496647,0.0780778300197691
6.226848,11.267532994481126,0.0778770223556734
6.229252000000001,11.280714769518491,0.0776241991530688
6.2316400000000005,11.298320054929269,0.077343338441808
6.234016,11.31583279254143,0.0770420518155023
6.236419999999999,11.3323218167952,0.0767218056368152
6.238808000000001,11.347228049183128,0.0763982584580851
6.241187999999999,11.363484756011417,0.0760603861934759
6.243584,11.380952167653206,0.0757143490284616
6.245972,11.40042168004141,0.0753615744583941
6.248352000000001,11.419239566123554,0.0750050287558281
6.250755999999999,11.441689566646197,0.0746200526275202
6.25314,11.4667007464227,0.0742131414075124
6.255523999999999,11.496135436572612,0.0737806866735336
6.257928,11.53078503302886,0.0733234387070376
6.260311999999999,11.566924873552328,0.0728518639378283
6.262692,11.598548655903762,0.0723874984308097
6.265088,11.634316409374891,0.0719056952640454
6.267472,11.674228133965716,0.0714073235514199
6.269852,11.71493125448946,0.0709134025467046
6.272247999999999,11.751630173520365,0.0704371621612527
6.274635999999999,11.788468862178132,0.0699587333481847
6.277016,11.813155176730538,0.0695295972507236
6.279415999999999,11.83369752016325,0.0691204522804762
6.281803999999999,11.850887288409186,0.0687311877259506
6.284184,11.869520078894102,0.068349998670105
6.286584,11.893228006058486,0.067950917718144
6.288968000000001,11.91772732915579,0.0675546819945191
6.291352,11.938222450760255,0.0671734397212908
6.293756,11.956855241245172,0.066797039631385
6.296144,11.97148383023725,0.0664343012908316
6.2985240000000005,11.982480304788831,0.0660991256118742
6.300927999999999,11.9902639737805,0.0657802814361943
6.303316000000001,11.991622031652335,0.0654925117573596
6.305695999999999,11.990418910270314,0.0652265120530776
6.308092,11.980788077022044,0.0649966175735211
6.310476,11.975673301945804,0.0647633179234676
6.312860000000001,11.967857577988848,0.0645549566469765
6.315256,11.95375601253892,0.0643726730983174
6.317639999999999,11.936162102275356,0.0642122157251005
6.32002,11.915075847198157,0.0640732491341201
6.322419999999999,11.89249934805374,0.0639497521894919
6.324804,11.878303338947326,0.0638142218333137
6.327188,11.864758956146968,0.0636844954607181
6.3295840000000005,11.855079005212588,0.0635457448523882
6.331972,11.846190450211123,0.0634094111432148
6.334368,11.833530011142305,0.0633023193121048
6.3367640000000005,11.819379328006264,0.0632107535916303
6.339152,11.810396329348317,0.063122795599325
6.341536,11.799783316996288,0.0630539269663687
6.343932000000001,11.79354659318943,0.0629862666588703
6.34632,11.792524775688902,0.0628985420624009
6.348699999999999,11.793225519681071,0.062812170607541
6.351096,11.79858209147213,0.0627200888938388
6.353479999999999,11.805428907330413,0.0626127911705454
6.35586,11.82093575248042,0.0624880714359417
6.358264,11.835092123190067,0.0623758253640956
6.360647999999999,11.848457097966795,0.0622611538729396
6.363028,11.864475799796002,0.0621465467534915
