Time,Force,Position
5.107292,7.402484310374877,0.1620008297012415
5.109687999999999,7.48948305773615,0.161599317624068
5.133596,7.608407702378528,0.161392188914663
5.135984,7.615670035401652,0.1613330495341176
5.138364,7.632336571821176,0.1611786056040321
5.1407560000000005,7.658966390144539,0.1609034909930101
5.143144,7.699983000745159,0.1604230108371806
5.145523999999999,7.755526173249894,0.159720708185441
5.14792,7.808555388329017,0.159037164427282
5.150308,7.866659740087611,0.1582685416032932
5.152688,7.923041530353506,0.157526075441585
5.155084,7.985848931739235,0.1566575222118796
5.157471999999999,8.053638922005817,0.1556776736358867
5.159864,8.11039469518192,0.1548544101213093
5.162268,8.166731159477443,0.1540586156050657
5.164651999999999,8.219295739705611,0.1533464391674237
5.167032,8.274793586239973,0.1525922580332895
5.169440000000001,8.333876325386589,0.1518115161080368
5.171824,8.390817194159926,0.1510743837135609
5.1742040000000005,8.448549458866182,0.1503430776756128
5.176608000000001,8.500787278012385,0.1497217877241129
5.178996000000001,8.555027197905005,0.1490768827584186
5.181375999999999,8.606101534065955,0.1484507416670025
5.183768,8.652055407577054,0.147847522385043
5.186156,8.68883739511723,0.1473595213946477
5.188536,8.7194733107913,0.1469716528947668
5.190936,8.741029888293061,0.1467186663611332
5.193319999999999,8.75807040762279,0.1465164727647268
5.1957,8.779115128445355,0.1462591669789904
5.198092,8.800159849267919,0.1460050066342047
5.20048,8.822927131583178,0.1457386051544453
5.20286,8.847277205764277,0.1454670284456042
5.205264000000001,8.866691912892762,0.1452602862246116
5.207648,8.884244288901689,0.1450706265937116
5.253048000000001,8.671149215815666,0.1450462615674885
5.255444,8.650482269619049,0.1450288646055904
5.257832,8.637916274206715,0.144932411451021
5.260212,8.622789099540524,0.1448857669069288
5.262616,8.605240515247335,0.1448832038633826
5.265,8.594210089872593,0.1448111171397385
5.26738,8.58997736267002,0.1446566986246016
5.2697840000000005,8.590260693639479,0.1444583778217952
5.272172,8.6014856939008,0.1441212283738053
5.274552000000001,8.617925600468455,0.143712052673301
5.276948,8.636739694834864,0.1432944618796836
5.279336,8.658998912186663,0.1428476648009711
5.281716,8.69126863327055,0.1422737740708014
5.284112,8.727170468794931,0.1416405779580757
5.2864960000000005,8.759627181333922,0.1410325498889245
5.288875999999999,8.795948325738884,0.1403756282069424
5.291272,8.837809241674272,0.1396961757960264
5.29366,8.888330186901387,0.1389219196874832
5.296055999999999,8.940061836942,0.1381300943010177
5.298452,8.986997889556863,0.1373949986506433
5.300835999999999,9.023364359932197,0.13680714016647
5.303216,9.05437615437434,0.1362989475393266
5.305611999999999,9.079009559524897,0.1358549413441678
5.307996,9.101827855384135,0.1353989584351499
5.310379999999999,9.128278265683877,0.1348799629713891
5.312776,9.152447035983476,0.1343971113425691
5.31516,9.176196497402495,0.1339376640087563
5.317559999999999,9.19971364139604,0.1334606409041125
5.319952,9.21405889941866,0.133071679496486
5.322335999999999,9.221326920015391,0.1327686316662011
5.324716,9.224311199865568,0.1325244796197534
5.32712,9.22929758046216,0.1322576056607478
5.329503999999999,9.228696967700088,0.1320447047278877
5.331884,9.219156786392563,0.1319321751295001
5.334288,9.212642419189851,0.1318136422307103
5.346227999999999,9.132067387090544,0.1317344075087383
5.348624,9.1227595232085,0.1316407807910979
5.351012,9.117735400073007,0.1314900063967611
5.353388,9.11205965063146,0.1313358879175547
5.355784000000001,9.101680851562778,0.1312561015614428
5.3677280000000005,9.033486719278567,0.1312291093710129
5.370124,9.02431672916551,0.1312184291306085
5.372508000000001,9.017288609425735,0.131179069359648
5.374892,9.009748633006762,0.1311305886797016
5.377292,9.002488195841508,0.1310703425314192
5.37968,8.999743816848284,0.1309733745125224
5.38206,8.99900153860148,0.1308538522243006
5.384464,9.000680669981671,0.1306947193975312
5.386852,9.001149096548366,0.1305548318060033
5.389232000000001,9.003991710913812,0.1304068181145413
5.391628,9.01013967863779,0.130241878376011
5.394011999999999,9.018149977481327,0.1300600772968353
5.396408,9.018151873339198,0.1299696935652506
5.398803999999999,9.015872129196929,0.1299135723033876
5.401188,9.017968673599832,0.1298273313577294
5.403567999999999,9.029935952107955,0.1296350073757359
5.405964,9.039529042817332,0.1294496500605881
5.408347999999999,9.047259802407147,0.1292822845323275
5.410728,9.062998964982633,0.1290242305945212
5.413136000000001,9.079529523491034,0.1287644524710356
5.41552,9.092614959014044,0.1285256442660879
5.4179,9.102906897857716,0.1283123368267896
5.420296,9.114921398194088,0.128089192723546
5.422683999999999,9.123164014463102,0.1279307322557557
5.42508,9.131918487411312,0.1277818535758424
5.427476,9.142954600359662,0.1276002776036035
5.429860000000001,9.151057447001817,0.127449132413621
5.432239999999999,9.156878653643831,0.1273318028591333
5.434639999999999,9.170708263271518,0.1271283770937867
5.437028000000001,9.183886246593143,0.1269222015838387
5.439407999999999,9.19748353879535,0.126699899718298
5.441804,9.210941061370692,0.1264840075936991
5.444192,9.22998557730471,0.1262206933939948
5.446572000000001,9.251171963612004,0.1259316225315239
5.448975999999999,9.267422982866686,0.1256934290583726
5.451364000000001,9.278598865441896,0.1255128578706809
5.453744,9.295361741375777,0.1252863742018136
5.45614,9.310774142869295,0.1250846874207181
5.458528,9.325115609176176,0.1248974796981117
5.460908000000001,9.33731520510978,0.1247365411172913
5.463304,9.358035060708248,0.1245031074079132
5.465692,9.382619348172694,0.1242353790831019
5.468084,9.40333920377116,0.1240033584215506
5.470484,9.4315556056761,0.1236822683460922
5.472872,9.45963223795418,0.1233678982739486
5.475252,9.488360496538318,0.1230604317632552
5.477647999999999,9.523234826988563,0.1226908251684047
5.480035999999999,9.561182193371868,0.1222912363465243
5.482416,9.594566279754895,0.1219564984463058
5.48482,9.628462222817124,0.1216313600148814
5.487208,9.662358165879349,0.1213082679943857
5.489588,9.695742252262376,0.1209776266010727
5.491984,9.725681215660012,0.1206659213151539
5.494371999999999,9.751755747191677,0.1203878602824171
5.496752,9.782114019469892,0.1200614523513528
5.499156,9.813682996561608,0.1197186072425125
5.501544,9.844320808093542,0.1193861895724969
5.5039240000000005,9.876309094065835,0.1190321253926408
5.50632,9.91043925041141,0.1186573554412883
5.508708,9.950995017876815,0.1182150047830246
5.511088,9.98596379198355,0.1178172704402454
5.513483999999999,10.018139069410951,0.1174417854448401
5.515868,10.054178778704324,0.1170354415959172
5.518248000000001,10.084351955385303,0.116681546193434
5.520651999999999,10.110148843521117,0.1163485533581429
5.523039999999999,10.131709212738611,0.1160337498159401
5.52542,10.146471883783947,0.1157753621544796
5.527824,10.155647561470609,0.1155551359158346
5.530212,10.163799525798874,0.1153176089096517
5.532592,10.170927776768746,0.1150629118023697
5.534992,10.180197898111896,0.1147874704139254
5.537375999999999,10.19039918501482,0.1145067063081507
5.539756,10.19873814079819,0.1142373248534232
5.542155999999999,10.210150132514617,0.1139395876993906
5.5445400000000005,10.218908397178565,0.1136562079245963
5.546919999999999,10.227015035536455,0.1133698053630171
5.549320000000001,10.232467946841872,0.113097218575104
5.551704,10.239411102214511,0.1128004485481514
5.554099999999999,10.240767264228475,0.1125395467455962
5.556500000000001,10.234394562510497,0.1123359116520241
5.558884,10.225368133740044,0.1121444634048403
5.561267999999999,10.210475172357196,0.111997428371895
5.563664,10.189343591309624,0.1118815509398802
5.566052,10.168212010262048,0.1117653600997577
5.5684320000000005,10.15494906257328,0.1115868633508066
5.570828,10.14219797156371,0.1114168004674725
5.573216,10.128236175740646,0.1112620607704368
5.575596,10.12042045178369,0.1110519452393155
5.577991999999999,10.112464958199872,0.1108464055800175
5.580380000000001,10.105161090922117,0.1106446738213164
5.582776,10.091850921405104,0.1104924852396731
5.58518,10.075607485581902,0.1103622925301384
5.587568,10.066581056811447,0.1101669627077233
5.589948000000001,10.055552527294576,0.109987847672158
5.592351999999999,10.04610678964354,0.1098070068853191
5.594740000000001,10.035310577552146,0.1096462701336431
5.597119999999999,10.02358319990097,0.1094907413462445
5.599516,10.007572081503248,0.109376917140155
5.601904,9.995425394971493,0.1092353661093081
5.604284000000001,9.986863601051992,0.1090760326128871
5.606684,9.982166238998463,0.1088891840418976
5.609068,9.98747938067702,0.1086218958976625
5.611452000000001,10.000241846833804,0.1083099379324788
5.613848,10.013144082617448,0.1079928843060481
5.616236,10.018829311348345,0.1077398211649643
5.618616,10.02493384895982,0.1074718566599251
5.621012,10.038674702504624,0.1071274426000356
5.623399999999999,10.04505877936982,0.1068506617506772
5.62578,10.051303086608156,0.1065785261781527
5.628184,10.05861832903313,0.1062969018537848
5.630572,10.069006607391158,0.105988740093291
5.632955999999999,10.080465820935826,0.1056697347177128
5.635352,10.084568257800884,0.1054185149835424
5.63774,10.091743730598996,0.1051422596425502
5.6401200000000005,10.097056872277555,0.1048768602035132
5.642524000000001,10.102649553209831,0.104601455043343
5.644908,10.109964795634808,0.1043201167616319
5.6472880000000005,10.11592956361942,0.1040573189032978
5.649684,10.11747082123062,0.1038398942054637
5.652072,10.116218582162489,0.1036383330776648
5.654452,10.112684703094216,0.1034620882205372
5.656856,10.10486708327939,0.1033267146021518
5.659244,10.096397837158502,0.1031871029477886
5.661624000000001,10.088719986970537,0.1030470115327982
5.664027999999999,10.083463546409565,0.1028769282767565
5.666415999999999,10.07978989771443,0.1027062996125991
5.668796,10.068479933085968,0.1026095804241173
5.6711920000000005,10.063316040323617,0.1024631667483615
5.673576,10.06122518349432,0.1022922484947953
5.675956,10.055921521105104,0.1021505837887537
5.6783600000000005,10.051549024275673,0.1020040490280675
5.680748,10.05290329043177,0.1018239873323683
5.683127999999999,10.060915485133176,0.101605503021512
5.685524,10.066134183155244,0.1014021964406664
5.687912,10.073354981923732,0.1011848746371275
5.690292,10.081506946251997,0.1009629443517693
5.692688,10.088587975393624,0.1007504492625845
5.695075999999999,10.099021579722026,0.1005041585701291
5.697456,10.11467009035676,0.1002149667461037
5.699851999999999,10.129107896177995,0.0999386263500757
5.702243999999999,10.146618737932284,0.0996392038434844
5.704624,10.167342385246492,0.0993130911614347
5.707028,10.182711356627506,0.0990344801937052
5.709412,10.200082428754936,0.0987430225230568
5.711792,10.219687919054262,0.098457278093207
5.714196,10.239433178980452,0.0981681895086171
5.71658,10.261971935585974,0.097864165507387
5.71896,10.284231152937776,0.0975718650460315
5.721355999999999,10.302486168796744,0.0973078715913846
5.723743999999999,10.323534681335046,0.0970302055979429
5.726124,10.344583193873348,0.0967540259894683
5.728528,10.358694238612625,0.0965244581446246
5.730911999999999,10.367078520366366,0.0963267219260983
5.733292,10.375834889172449,0.0961430969064232
5.735688000000001,10.384591257978528,0.0959602577770137
5.738072,10.395070188277304,0.0957741080864911
5.740467999999999,10.410624255255556,0.0955539547394536
5.742864,10.427900883726505,0.0953309059147977
5.745252,10.445317281824307,0.0951051345072926
5.747632,10.47088185253464,0.0948248645939033
5.750028,10.496586192871831,0.0945425184876355
5.7524120000000005,10.518426101343051,0.094282445341962
5.754808,10.548414182426802,0.09396945490937
5.757204000000001,10.575608766831214,0.0936697262293427
5.7595920000000005,10.601360328996652,0.0933657621458067
5.761968,10.624970020788812,0.093079049169783
5.764376,10.65086135258111,0.0927724167921238
5.7667600000000006,10.674890353253849,0.0924747987829773
5.769139999999999,10.701573080979063,0.0921700991822915
5.771544,10.726673016838443,0.091864875455302
5.773931999999999,10.750702017511184,0.0915689016083263
5.776307999999999,10.77873521967676,0.0912495727467013
5.778704,10.810120997029111,0.0909019853039266
5.781092,10.839923982515623,0.0905527083533447
5.783472000000001,10.8686560328155,0.0902127938522962
5.785875999999999,10.895525751995818,0.0898817422968011
5.788264000000001,10.92039337042972,0.0895656190296585
5.790644,10.942607261811148,0.089257087924243
5.79304,10.964681383565711,0.08895508619226
5.795431999999999,10.981820138267668,0.0886817320414228
5.797812,10.992812821103511,0.0884461989419206
5.800216,11.003665734312497,0.0882148241604802
5.802604,11.009583280468869,0.0880107254133734
5.804984,11.01629222255816,0.0878075119915802
5.807388,11.026213970207364,0.0875826550316832
5.809776,11.039348523416487,0.0873357639673216
5.812156000000001,11.05183145031955,0.0870851707803912
5.814552,11.063383211662831,0.0868379119802168
5.81694,11.07521451225984,0.0865830925928492
5.81932,11.08997907916304,0.0863152707278253
5.82172,11.10474364606624,0.0860478043490481
5.824103999999999,11.116435177036385,0.0857987694319127
5.826484,11.124494593566034,0.085584153203537
5.828880000000001,11.137209837894575,0.0853542705705632
5.831268000000001,11.14834229035728,0.0851223620224209
5.833652,11.159614512446844,0.084886670290694
5.836047999999999,11.163949266737385,0.0846847091713566
5.838432,11.172427992147613,0.0844588440127031
5.840815999999999,11.178113220878506,0.084242659014213
5.843212,11.181656579236124,0.0840405755097208
5.845596,11.188272973526797,0.0838202537981898
5.8479920000000005,11.19982473487008,0.0835775501141267
5.850388,11.20816369065345,0.0833557956683146
5.852772000000001,11.21757358162346,0.0831274320910687
5.855156,11.220697631100496,0.0829378516336015
5.85756,11.220888414271338,0.082761576299288
5.859944,11.214933125576067,0.082618840545337
5.862324,11.20925737613452,0.0824676526456137
5.864724,11.202650461133192,0.0823194498265675
5.867112,11.192039344639031,0.0821908497473901
5.869492,11.180636832211952,0.0820608104393713
5.871887999999999,11.169793398292311,0.0819140819830359
5.874275999999999,11.162442309186313,0.081738236622693
5.87666,11.148712830788725,0.0815778385774811
5.879055999999999,11.137497309816748,0.0814169556038008
5.881443999999999,11.127352724031413,0.0812491879944701
5.883824,11.126427246045244,0.0810320158402448
5.886220000000001,11.118284761006324,0.0808542847965722
5.8886080000000005,11.105998304847713,0.0806990028026484
5.890992,11.09799558943565,0.0805163422968572
5.893388000000001,11.092134744396867,0.080320087754175
5.895772,11.078405265999278,0.0801574948084101
5.8981520000000005,11.066957427601825,0.0799767669535472
5.900552,11.053507488457951,0.0798053541833687
5.902936,11.044061750806918,0.0796147994923339
5.905335999999999,11.033265538715524,0.0794387440413865
5.907732,11.028987485542578,0.0792436144976945
5.910116,11.027223389795246,0.07904895619717
5.912496,11.022386258114858,0.0788700105390823
5.9149,11.019411457554028,0.0786855385074149
5.917288,11.016017348112616,0.0785131328036815
5.919668000000001,11.011924390536905,0.0783610549052655
5.922064,11.005829332214777,0.0782182965330974
5.924452,11.00411056243782,0.0780704639034126
5.926832,11.000529461541303,0.0779278342760314
5.9292240000000005,10.99573765583129,0.0777960893664173
5.931612,10.984660008628309,0.0777000335799852
5.934004000000001,10.97930912441085,0.0775846252209825
5.9364,10.98396874392548,0.0774238468542511
5.938788,10.986206953813111,0.0772847850895336
5.941168,10.989236559633666,0.0771478933685402
5.9435720000000005,10.996130597320189,0.0769968150412141
5.94596,11.006749297245827,0.0768366811939015
5.948339999999999,11.018438932358103,0.0766702498781261
5.950743999999999,11.027846927470245,0.076520894481464
5.953131999999999,11.042469828888713,0.0763439601693844
5.955512,11.06165601030746,0.0761358447280377
5.957908000000001,11.078979860606648,0.0759330878407726
5.960292,11.104312113891504,0.0756973403126364
5.962672,11.130575532736136,0.0754600776884358
5.965063999999999,11.162473166767686,0.0751857233846177
5.967452000000001,11.197723375986008,0.0748898855838378
5.969848,11.236698247443446,0.0745869743719642
5.972243999999999,11.275952658154605,0.074277545804652
5.974628,11.318000565545097,0.0739627579713493
5.9770080000000005,11.36018824256245,0.0736449729632509
5.979411999999999,11.40451778995308,0.0733152038766063
5.981800000000001,11.447264545477871,0.072983637531922
5.984179999999999,11.486146869136697,0.0726677897726995
5.986576,11.523446400929677,0.0723482490182447
5.988964,11.559814767162884,0.0720326526396559
5.991344000000001,11.596602442276668,0.071706616219841
5.993747999999999,11.629805224778202,0.0713862507013237
5.996132,11.66622081283965,0.0710510197715851
5.998512000000001,11.706128745714736,0.0706922174001116
6.000915999999999,11.741241081164068,0.0703480386983258
6.003303999999999,11.768345013627732,0.0700362635545953
6.005684,11.795868254971978,0.0697140418847246
6.0080800000000005,11.81366053183786,0.0694215130051412
6.010468,11.83387421833074,0.0691123465004355
6.012847999999999,11.848872998517283,0.0688282767780628
6.015251999999999,11.862940613144051,0.0685472264406313
6.017636,11.875425435904988,0.0682635728147887
6.020015999999999,11.88954027236,0.0679615058157796
6.022419999999999,11.904214187322452,0.0676464695634905
6.024807999999999,11.91716554079221,0.0673308434333829
6.027188,11.930256663888825,0.0670121056949472
6.02958,11.943068247731722,0.066701115829504
6.031968,11.9538777308282,0.0663971867362127
6.0343480000000005,11.967620480230876,0.0660855631075892
6.036751999999999,11.978569732954217,0.0657783926259587
6.039140000000001,11.992032943103167,0.065475605808456
6.041519999999999,12.004145678811764,0.0651846823672141
6.043916,12.00983280340053,0.0649240055100562
6.046304,12.014448992802656,0.0646692989011586
6.048684000000001,12.021858678884117,0.0644107316079945
6.05108,12.027917890525217,0.0641634087005006
6.053468,12.033418023658877,0.0639307801304466
6.055864000000001,12.045715854964708,0.0636816862187795
6.05826,12.051867614404424,0.0634550550017063
6.060643999999999,12.058671000150202,0.0632343757182774
6.063028,12.06347228514956,0.0630200607845642
6.065423999999999,12.065200534215863,0.0628166735210517
6.067808,12.06394829514773,0.0626447998409354
6.070187999999999,12.057481149773263,0.0624929742374519
6.072591999999999,12.053527961824413,0.0623447638390574
6.074979999999999,12.049295234621836,0.0622037189592208
6.07736,12.048135543352322,0.0620526181557154
6.079756000000001,12.0486984135755,0.0619029718239389
6.082144,12.04912151417182,0.0617572265582162
6.084523999999999,12.05434021219389,0.0616030004315115
6.086924000000001,12.055834247976849,0.0614532895817874
6.089308,12.059749693386802,0.0612873913656907
6.091691999999999,12.070090749916591,0.0610946580630356
6.094092000000001,12.07735877051332,0.0609120272182805
6.096480000000001,12.08569772629669,0.0607256776942793
6.098859999999999,12.098460192453471,0.0605179991328228
6.101259999999999,12.1105710323042,0.0603043243770143
6.103644,12.124544203274482,0.060090351677935
6.106027999999999,12.14023993573746,0.059877568348187
6.108424,12.154352876334606,0.0596595163481052
6.110812,12.170467917678168,0.059436698635709
6.1132040000000005,12.190167851633978,0.0592142883920617
6.1156,12.209355928910592,0.0589823517318216
6.117988,12.2331998339861,0.0587463401908496
6.120368,12.257323278315326,0.0585043503098202
6.122772,12.281446722644551,0.0582627447549534
6.125156,12.300774569548029,0.0580294262115809
6.127536,12.316377754212388,0.057799180444444
6.12994,12.331049773316971,0.0575703048522091
6.132324,12.341717590928722,0.0573520579414546
6.134708000000001,12.35238540854047,0.057133795656149
6.137104,12.365567183577834,0.0569212232245431
6.139487999999999,12.373254513055146,0.056733142541478
6.141872,12.382012777719096,0.0565407349421497
6.144267999999999,12.38783777607685,0.0563541869971425
