Time,Force,Position
4.702703999999999,7.631364462971449,0.1596622974155505
4.705052,7.642908640883257,0.1596266525515392
4.707388,7.6652547184600675,0.1594149703647975
4.709731999999999,7.689323357529574,0.1591871488322069
4.712088,7.721912256263946,0.1588450455437684
4.71444,7.767584694663459,0.1582957106829182
4.71678,7.818891348249883,0.1576253738702878
4.719123999999999,7.860933568066768,0.1570451311797815
4.721463999999999,7.892360879673752,0.1565945959283859
4.723796,7.922205399414903,0.1561642812600129
4.726139999999999,7.950140366208252,0.1557879578186813
4.728491999999999,7.97844742005394,0.1554168809480055
4.730832,8.012061928004577,0.1549817365868651
4.733176,8.044977587820911,0.1545858333639586
4.735519999999999,8.072351580248952,0.1543365829866375
4.737864,8.110200711260033,0.1539732920854759
4.7402,8.148701468577169,0.1536120015569181
4.742543999999999,8.188040843655465,0.1532068397495501
4.744883999999999,8.221049051270418,0.152851372114557
4.747228,8.246096077727946,0.1525949919544173
4.749571999999999,8.268257059707523,0.1523495235017345
4.751911999999999,8.295121091314234,0.1520088132307708
4.754256,8.316026042509938,0.1517255348648718
4.756592,8.33283424441419,0.1514764698084747
4.763627999999999,8.343354708967603,0.1514334262525672
4.765976,8.350290280908762,0.1514316290437659
4.768315999999999,8.362300989529395,0.1513532887255725
4.770664,8.37109889259011,0.1513292256995763
4.772995999999999,8.391769630502466,0.1511385244374262
4.775343999999999,8.423102498452966,0.1508049132725776
4.777688,8.452760026739012,0.1504562874493497
4.780032,8.48474641685344,0.1500371528460098
4.782375999999999,8.523205639915941,0.1494851386087486
4.784716,8.555426243313713,0.149002957573189
4.787068,8.588578012271265,0.1485116479260181
4.789403999999999,8.623731881975234,0.1479956681667609
4.791756,8.65981691723898,0.1474700857187735
4.794103999999999,8.696041722129586,0.1469418825422712
4.796448,8.732079535565088,0.1464547945814781
4.798791999999999,8.76564871754535,0.1460484869155719
4.801131999999999,8.80159208732437,0.1456273393387681
4.803476,8.83702360042419,0.145197361970004
4.805819999999999,8.867007889792196,0.1448200787477129
4.808164,8.895688926548091,0.1444397789155949
4.810511999999999,8.926931142557844,0.1440106391614601
4.812844,8.959011976328757,0.1435470175827944
4.815187999999999,8.98513372968866,0.1431314332631012
4.817539999999999,9.008369438570616,0.1427185848854671
4.866759999999999,8.754125568688593,0.1426175328844258
4.869104,8.736576984395404,0.1426149177331973
4.871443999999999,8.725081924169707,0.1425002764491055
4.873792,8.70893103614512,0.1424353440546788
4.87614,8.691337125881558,0.1423728610371466
4.878484,8.673231358938796,0.1423018027687627
4.880835999999999,8.656336296809535,0.142207600177038
4.883175999999999,8.636927277254658,0.1421304173238172
4.88552,8.616819409565482,0.1420848842571276
4.887867999999999,8.598386881540756,0.1420599364440802
4.890212,8.58046621019523,0.1420431764192604
4.892564,8.56347670440948,0.1420140309329728
4.894907999999999,8.550211860862845,0.1419440722084655
4.897252,8.543557724033276,0.141830955094939
4.8996,8.537787530935239,0.1417415194226439
4.901944,8.538442948957035,0.1415552466575042
4.904283999999999,8.544872351792606,0.1412714469866356
4.906635999999999,8.55092966757584,0.1409725278134248
4.908971999999999,8.557219300784547,0.1406932829839036
4.91132,8.575381768844897,0.1402647612577706
4.91366,8.595314020226187,0.1397917546379198
4.916012,8.60928719119647,0.139367627464605
4.918348,8.614832650300507,0.1390638692722773
4.920691999999999,8.625406024255769,0.1387239944685941
4.92304,8.64794478086129,0.1382677769706881
4.925376,8.674627508586505,0.137759540871884
4.927719999999999,8.699727444445886,0.1372600795737555
4.930059999999999,8.725059697730742,0.1367794375953437
4.932404,8.755839174747408,0.1362467238086848
4.934747999999999,8.79025076620457,0.1356491702567913
4.937087999999999,8.826991219490113,0.1349886332702651
4.939435999999999,8.85642211792429,0.134399460524896
4.941775999999999,8.886225103410805,0.1338284720776733
4.94412,8.91509692333754,0.1332699001880336
4.94646,8.9432245691596,0.1326839820078161
4.9488,8.963902890503434,0.132171710711837
4.951136,8.976805126287077,0.13177744944994
4.953479999999999,8.989240831361899,0.1314326931110262
4.955819999999999,9.005401198675832,0.1310522393671008
4.958164,9.015834803004235,0.1307344916292032
4.960504,9.02319537139958,0.130455743303562
4.962847999999999,9.02822707796655,0.1302439967372383
4.965192,9.035632972332271,0.1300223302498577
4.967528,9.049464477817825,0.1297147451956614
4.969871999999999,9.05147037027998,0.1295093005636749
4.972211999999999,9.047749499756604,0.1293615582531435
4.974556,9.045471651472209,0.129214308618243
4.976896,9.04812917024042,0.1290135345563741
4.979239999999999,9.050414601956296,0.1287989174453351
4.981579999999999,9.052048407366112,0.1285820829395567
4.983915999999999,9.044974961655964,0.1284825264370495
4.98626,9.042649891543322,0.1283678453475436
4.9886,9.04018505180382,0.1282590902199301
4.990959999999999,9.035997650571622,0.1281609318486966
4.9933,9.031251170831982,0.128085539590835
4.995643999999999,9.033022850010791,0.1279533878813626
4.997992,9.039357809189871,0.1277544064116446
5.000328,9.050535587622951,0.1274783140875354
5.002675999999999,9.058408012697498,0.12721761117858
5.005027999999999,9.062416005906073,0.1269938331497273
5.007372,9.06628422948778,0.1267754249366157
5.009715999999999,9.07178246676357,0.1265194627536301
5.01206,9.07984188329322,0.1262188271666703
5.014412,9.080963832023842,0.1259931594061429
5.016748,9.088324400419191,0.1257221802841943
5.0191,9.099409631053652,0.1254197770078592
5.021452,9.108632530568556,0.1251337603827582
5.023788,9.115201703030989,0.1248674865075828
5.026128,9.121491336239696,0.1246136390990606
5.028476,9.127501430194684,0.124372112619126
5.030816,9.140588761575565,0.124053059275008
5.033156,9.152512609971184,0.1237225757756418
5.035499999999999,9.16257412724725,0.1234077092577852
5.037847999999999,9.174497975642874,0.1230779656551433
5.040184,9.186701363292215,0.1227375137450718
5.042527999999999,9.195971484635365,0.1224272444148517
5.044875999999999,9.206684628217488,0.1221209535025819
5.047208,9.214184966239696,0.121855153025095
5.049552,9.224059492060658,0.1215837553297508
5.051891999999999,9.243525212733124,0.1212295466103177
5.054243999999999,9.265132803778869,0.1208504993685454
5.05658,9.289254352250223,0.1204619514344503
5.058923999999999,9.313096361467862,0.1200866280166446
5.061271999999999,9.340663032924612,0.1196834897346427
5.063604,9.365436207702029,0.1193027661039718
5.065944,9.386996576919527,0.1189607055607051
5.068287999999999,9.410279507629728,0.1186104568317926
5.070639999999999,9.432072194272704,0.1182891268020923
5.072975999999999,9.452933715355904,0.1179759776987875
5.07532,9.470861970132908,0.1176892632758646
5.077667999999999,9.487719289723271,0.1174168135166904
5.080015999999999,9.501875660432924,0.1171900037684323
5.08236,9.52110716782204,0.116914353550248
5.084703999999999,9.53940750965138,0.1166465398531281
5.087047999999999,9.55929064334656,0.1163771707527438
5.089383999999999,9.579825403347796,0.116112382203943
5.091728,9.595285026669558,0.1158977228232602
5.094075999999999,9.61074464999132,0.1156835334935968
5.09642,9.627554747753445,0.1154481717384918
5.098763999999999,9.636635981783616,0.1152777296374661
5.101108,9.64636884211985,0.1151121964934018
5.103448,9.654518910590248,0.1149499266661446
5.105791999999999,9.664531310180202,0.1147759992495219
5.108143999999999,9.674264170516434,0.1146134439158218
5.110496,9.687070066785722,0.1144222750331933
5.11284,9.70588226529426,0.1141797637616894
5.115183999999999,9.7246944638028,0.1139382148090242
5.117528,9.743506662311338,0.1136959687162286
5.119876,9.763110256752796,0.1134533744408825
5.122219999999999,9.786857822313946,0.1131715428324961
5.124568,9.811676323061736,0.1128805963027601
5.126916,9.843851600489137,0.1125185382568192
5.129256,9.870020575677286,0.1122097956595157
5.131599999999999,9.898191651611851,0.1118858934505105
5.133939999999999,9.92356923086708,0.1115806502203502
5.136284,9.948574723069974,0.1112624649178559
5.138627999999999,9.975070459340088,0.1109173359881994
5.140972,10.002357591543117,0.1105723262257273
5.143319999999999,10.029784493373004,0.1102255656384913
5.14566,10.062146762255509,0.109841163710554
5.148004,10.092786469645311,0.1094650568349737
5.150347999999999,10.127150839274233,0.1090695161894644
5.152683999999999,10.155788445917622,0.1087135343581967
5.155032,10.17990999438898,0.1083806587557949
5.157371999999999,10.201098276554143,0.1080707996606652
5.15972,10.214697464614218,0.1078118997399571
5.162059999999999,10.229647127114651,0.1075343718703319
5.164403999999999,10.248089134428724,0.1072170920683699
5.166751999999999,10.265879515436737,0.1068965112680885
5.169087999999999,10.282319422004388,0.1065975440255391
5.171427999999999,10.295686292638988,0.1063250775547307
5.173772,10.30132429954164,0.1061058361389101
5.176124,10.308964407190713,0.1058709082463535
5.178459999999999,10.312740082973804,0.1056622213071326
5.180804,10.317586693943538,0.1054434099662249
5.183147999999999,10.322945161592468,0.1052341438899668
5.18548,10.329886421107236,0.1050241732035722
5.187819999999999,10.33431372319639,0.1048203264879284
5.190163999999999,10.335667989352483,0.1046419809450171
5.192508,10.333157823642612,0.1044893535755939
5.194844,10.330927197186456,0.1043273324592116
5.197187999999999,10.320967706998353,0.1042153893366936
5.199532,10.313150087183526,0.1040834663530279
5.201872,10.311478539234813,0.1039021630172197
5.204215999999999,10.310598387219017,0.1037204259443796
5.20656,10.310369861509278,0.103542334150725
5.208903999999999,10.306928530239622,0.1033939072354989
5.21124,10.298923918969694,0.1032940464909174
5.213583999999999,10.291570934005822,0.1031985819052239
5.215923999999999,10.27742025086978,0.103147741840356
5.218264,10.262338402173963,0.1031019280054545
5.220607999999999,10.25112098534412,0.1030308328509713
5.222947999999999,10.236830532581218,0.1029844288628813
5.225287999999999,10.224262641311013,0.1029325099199927
5.227623999999999,10.211834519667669,0.1028755548162205
5.229968,10.199685937278044,0.1028088570539639
5.232308,10.187956663769,0.102727691148394
5.234651999999999,10.177018786192876,0.1026460295477309
5.236996,10.166872304549669,0.1025640064997358
5.239336,10.153792556600264,0.1025015409764081
5.241688,10.142295600516697,0.1024383464098299
5.244031999999999,10.134663076299104,0.1023503211985143
5.24638,10.130894983947483,0.1022377626282038
5.248719999999999,10.122843150849311,0.1021638153863224
5.251064,10.117072957751276,0.1020659612180649
5.253408,10.114515570213156,0.1019393562274664
5.255751999999999,10.111166786742118,0.1018125657171108
5.258099999999999,10.112381283271354,0.1016381377832342
5.260435999999999,10.113083923121392,0.101454662557577
5.262787999999999,10.125938937076793,0.1011811687375265
5.265136,10.13986488621883,0.1008975333579673
5.267479999999999,10.149646864241172,0.1006468739117361
5.269824,10.166645849316268,0.100340049401793
5.272167999999999,10.182853438458444,0.1000332564287208
5.274519999999999,10.19799009241398,0.0997361399346197
5.276864,10.209262314503546,0.0994624968110945
5.279204,10.21545939991364,0.0992261694146198
5.281552,10.222447881256649,0.0989897976517145
5.283887999999999,10.2287847362936,0.098748681488132
5.286232,10.240988123942945,0.0984696572460199
5.288584,10.250537784539812,0.0982006978176107
5.290927999999999,10.26022721476354,0.0979274296667793
5.293267999999999,10.266564069800491,0.0976879318520007
5.295672,10.272761155210585,0.0974527041561948
5.298055999999999,10.27602497431448,0.0972365180044713
5.300452,10.27621575748532,0.0970433225257374
5.302856,10.280131202895276,0.0968321176534537
5.305244,10.280554303491597,0.0966582071823178
5.307647999999999,10.27762482890114,0.0965161463664852
5.310048,10.268409512817712,0.0964245470988377
5.312436,10.263058628600255,0.096310751028278
5.314831999999999,10.263853816248911,0.0961522755514704
5.317228,10.25743199684482,0.0960474212245916
5.319623999999999,10.254083213373784,0.0959204766257765
5.32202,10.255809566582217,0.09575894035111
5.324423999999999,10.261260582029768,0.0955802829063194
5.326808,10.275371626769042,0.0953549656356228
5.329208,10.291624541881593,0.0951130578273359
5.331628,10.309739788113696,0.0948634655239982
5.334023999999999,10.324921768039612,0.0946316381691506
5.336419999999999,10.34182630945822,0.0943966339714653
5.338804,10.361524347556164,0.0941509286929122
5.341199999999999,10.37870842822849,0.0939077120082675
5.343603999999999,10.397522522594898,0.0936380777674648
5.345991999999999,10.418059178454005,0.09336549641284
5.348388,10.44581284136586,0.0930444187176552
5.350792,10.472914877971654,0.092720449158173
5.35318,10.503229720137364,0.0923721876686787
5.355559999999999,10.539690634169188,0.0919833451596813
5.357956,10.57657085708159,0.0915821423743529
5.360344,10.611728518501296,0.0911875545681555
5.362724,10.645955014361226,0.0908006534067524
5.365127999999999,10.687398517273904,0.0903670703406793
5.367516,10.726700149813302,0.089952045675407
5.369895999999999,10.761718041606152,0.0895722645207515
5.372292,10.798738034145414,0.089183699198671
5.37468,10.830310802952868,0.0888152490534879
5.37706,10.856948204707708,0.088473284910053
5.379455999999999,10.885447937582107,0.0881267897877011
5.381843999999999,10.91781210232248,0.087763819232866
5.384224,10.95031603668971,0.0873982773592331
5.386619999999999,10.978955539190968,0.087052169738315
5.389007999999999,11.01239063911798,0.0866854034614955
5.391387999999999,11.047548300537686,0.0863186327316174
5.393784,11.080843630837837,0.0859591916976999
5.396172,11.1058510188986,0.0856529088829878
5.398551999999999,11.126714435839668,0.0853722342387514
5.400952,11.14464458647454,0.0851062854021523
5.40334,11.156568434870165,0.084872590329055
5.405735999999999,11.167141808825429,0.0846547776117997
5.408132,11.178366809086748,0.084443207092198
5.410515999999999,11.185587607855236,0.0842528377924837
5.412899999999999,11.186802104384473,0.0840940832923623
5.415296,11.18787683128685,0.0839395452625022
5.417684,11.187228996696527,0.0837867896969927
5.420064,11.183787665426877,0.083643583933048
5.422459999999999,11.17885609009,0.0835196374940343
5.424847999999999,11.17885988180574,0.0833722509845203
5.427232,11.174068076095724,0.0832441522219716
5.429627999999999,11.166482773706376,0.0831251774049469
5.432015999999999,11.153822334637557,0.0830330474042505
5.434396,11.141301665195597,0.0829365324076539
5.436795999999999,11.1259874990743,0.0828486090158288
5.439183999999999,11.111324959259065,0.0827658855038539
5.441564,11.098245211309663,0.0826855192783633
5.443959999999999,11.090240600039731,0.0825784744355619
5.446347999999999,11.087171355822417,0.0824489008224736
5.448744,11.08903747865771,0.0822974736634819
5.451139999999999,11.0938368677992,0.0821332155236331
5.453527999999999,11.102780228060386,0.0819461080245334
5.455907999999999,11.108790322015375,0.0817717145317999
5.458311999999999,11.11852507820948,0.081586468233849
5.460695999999999,11.134917762948891,0.0813789197522077
5.46308,11.151729756568882,0.0811596968402693
5.465475999999999,11.17119547724135,0.0809364353382209
5.467863999999999,11.190102119406372,0.0807294931034938
5.470243999999999,11.212221567131314,0.0805024452979964
5.47264,11.233409849296477,0.0802794126792302
5.475028,11.257251858514111,0.0800525201449127
5.477407999999999,11.279883162918251,0.0798365084582535
5.479804,11.310522870308056,0.0795838509502483
5.482192,11.342745369563698,0.0793345406883048
5.484572,11.378552761431592,0.0790801457255272
5.486967999999999,11.405560354380905,0.078860441141673
5.489355999999999,11.434058191397432,0.0786234147166805
5.49174,11.456409956547851,0.0784175290575521
5.494135999999999,11.473826354645658,0.0782326094977033
5.496523999999999,11.485096680877351,0.0780795229866441
5.49892,11.50130237416166,0.0779071736300101
5.501315999999999,11.5124329307665,0.0777595716073732
5.503703999999999,11.524634422557972,0.077605584416444
5.506084,11.534973583229888,0.0774570180688362
5.508479999999999,11.53651294498322,0.0773423470184298
5.510867999999999,11.538564163415748,0.0772372447378149
5.513252,11.53889282035558,0.0771330565526246
5.515647999999999,11.539920325429716,0.077009313532239
5.518035999999999,11.541739226436768,0.0768875246573147
5.52042,11.54248719225718,0.0767721667173685
5.522815999999999,11.54058143102512,0.0766598313475617
5.525203999999999,11.542819640912752,0.0765268624931463
5.527588,11.539051548561131,0.0764194895862379
5.529983999999999,11.536633930649872,0.076298534737365
5.532371999999999,11.527698153820166,0.0761931524175572
5.534751999999999,11.52705031922985,0.0760463426761757
5.537144,11.521606887213776,0.0759144657361741
5.539527999999999,11.525662102250593,0.075732096150079
5.541924,11.533721518780244,0.0755330924170858
5.544316,11.540617452324636,0.0753182968528591
5.546704,11.5400640613908,0.0751215191082725
5.549095999999999,11.540721375270468,0.0749144697731342
5.551492,11.539935666911155,0.0746999455906505
5.553875999999999,11.536496231499372,0.074487535705838
5.556255999999999,11.540693112020918,0.0742293871869588
5.55866,11.546659775863402,0.0739470715169652
5.561043999999999,11.555187618959742,0.0736419444502101
5.563424,11.561061735003612,0.0733388412249082
5.565828,11.56563259843536,0.0730253481391177
5.568211999999999,11.571833475561192,0.0726915423783351
5.570592,11.58059553194088,0.0723347748166782
5.572987999999999,11.584981299775398,0.0719808947965032
5.575375999999999,11.589926146117357,0.0716109424378746
5.577752,11.590215164660425,0.0712504872863743
5.580147999999999,11.59772119025624,0.0708582657374721
5.582535999999999,11.604435819919138,0.0704658198504529
5.584928,11.61436325514195,0.0700563413042888
5.587332,11.619355323312156,0.06966566572503
5.58972,11.624906469989796,0.0692612814709645
5.5921,11.638046710772525,0.0688406842529152
5.594496,11.65304928267481,0.068416134710223
5.596879999999999,11.670473264204093,0.0679744287252436
5.599259999999999,11.688688641666294,0.0675347156954675
5.601664,11.711839386181104,0.067080213078804
5.604047999999999,11.729495685135864,0.0666573521582537
5.606427999999999,11.74272847371721,0.0662599965570421
5.608832,11.7546107878582,0.0658764979956764
5.611219999999999,11.76993822498458,0.0654946400699372
5.613603999999999,11.78498612285724,0.0651210877341961
5.616,11.79654167591626,0.0647706083961602
5.618383999999999,11.807398380840985,0.0644391899344372
5.620763999999999,11.818627172818047,0.0641208927666744
5.623168,11.832509691847582,0.0638027134081229
5.625551999999999,11.84797500274295,0.0634886949561503
5.627932,11.85715447214535,0.063201451052331
5.630331999999999,11.862841596734116,0.062936500512713
5.632716,11.868900808375216,0.0626855520776454
5.635112,11.873749315202817,0.0624432952783259
5.637511999999999,11.880972009829172,0.0622098863153947
5.639899999999999,11.8829797981492,0.0619975514815299
5.64228,11.8876413135217,0.0617858738197351
5.644684,11.892674915946536,0.0615883557545123
5.647067999999999,11.900502015050709,0.0613881470259308
5.649448,11.909260279714658,0.0611881971439664
5.651852,11.922162515498304,0.0609739663189915
5.65424,11.937206621655225,0.0607506982479875
5.65662,11.952902354118203,0.0605341532128957
5.659023999999999,11.966875525088486,0.0603164604278264
5.661408,11.97977776087213,0.0601035094400273
5.663791999999999,11.997615363708382,0.0598795197420462
5.666188,12.014661570611722,0.0596531065104258
5.668571999999999,12.033849647888337,0.0594183534264163
5.670952,12.050895854791674,0.0591928502114335
5.673347999999999,12.06994416244143,0.0589625190007507
5.675735999999999,12.094719233076717,0.0587240774525383
5.67812,12.122707109271914,0.0584729413476776
5.680515999999999,12.146970323228004,0.0582250857174281
5.6829,12.171233537184092,0.0579774104774193
5.685283999999999,12.190701153714423,0.0577384242780741
