Time,Force,Position
8.662692,6.539593256616659,0.1634395272365228
8.696144000000004,7.006771575521286,0.1628983001005871
8.698528000000003,7.0204576238063705,0.1628097684921703
8.700924,7.046061832913473,0.1625862442416215
8.703312000000004,7.084934677282947,0.1621917027200819
8.705692000000006,7.131768702809844,0.1616987162963419
8.708088000000004,7.182374612404098,0.1611180913087901
8.710476,7.228464463826322,0.1606101502829003
8.712860000000006,7.276184328942624,0.1600591692855233
8.715264000000005,7.329630957044457,0.1594180242974691
8.717652000000001,7.381262475854975,0.1587604116763064
8.720036,7.434943317240154,0.1580279664462924
8.722432000000005,7.495841165678082,0.1571730412452207
8.724820000000001,7.556971331541488,0.1563544543485272
8.727204,7.624479886696482,0.1554526120038605
8.729600000000005,7.692080989650093,0.1545857849077147
8.731988000000001,7.760054179656041,0.1537235836390065
8.734368000000003,7.824162937796017,0.1529257484848388
8.736768000000005,7.886921221495632,0.1521808230586303
8.739156000000001,7.946746238889053,0.1514900931777631
8.741536000000004,8.00433683811058,0.1508192971401691
8.743936000000005,8.0578779098689,0.1501482805363607
8.746324000000001,8.108812476402987,0.1494801601025701
8.748708,8.150714926593011,0.1489338346836627
8.751104000000005,8.185307821931668,0.1484875663882003
8.753492000000001,8.210077204993347,0.1481531671028363
8.755876,8.228980055442632,0.1479056632180738
8.758272000000005,8.244949639585723,0.1476997019928362
8.760656000000004,8.260220375594514,0.1475304412910536
8.763036,8.277073903469143,0.1473545422236226
8.765444000000002,8.29788441100836,0.1471552841372473
8.767832000000006,8.319486314480494,0.1469535500632022
8.770212,8.334290519780462,0.146846004899587
8.772616000000006,8.347139846162255,0.1467334631021907
8.775004000000003,8.356544049558655,0.1466528422504661
8.777384000000005,8.361851503663605,0.1466002040626251
8.779788000000003,8.372560855529988,0.1464261950529763
8.782172000000003,8.386390465157673,0.1461728264272909
8.784556000000002,8.397054491053684,0.1459384125409051
8.78696,8.406368042509337,0.1457336653351187
8.789344,8.41419134989777,0.1455660280697926
8.791728000000006,8.424947923592399,0.1453606915738479
8.794124000000004,8.437986137287165,0.1451179902778493
8.796512,8.45130389023565,0.1448625382291693
8.798892000000002,8.463131399116918,0.1446426825570672
8.801288,8.480126592476275,0.1443774480982088
8.803676000000003,8.497029238037014,0.1440834080681878
8.806056000000005,8.518123076545692,0.1436947676960751
8.808452000000003,8.535259935389776,0.1433276585668717
8.810840000000006,8.545878635315413,0.1430346441767039
8.813220000000001,8.556265017815573,0.1427219576733069
8.815616000000006,8.564696521397558,0.1424036686145989
8.818004000000002,8.569730123822396,0.1420782539078354
8.820388000000001,8.571830459941037,0.1417901603268478
8.822784000000006,8.57444265273888,0.141511212011312
8.825172000000002,8.588927680388359,0.141080572457226
8.827552000000004,8.598337571358366,0.1407216564960162
8.829952000000006,8.600949764156205,0.1404451921905689
8.832340000000002,8.60048892102099,0.1402107570108216
8.834716,8.607384854565383,0.1398702819366629
8.837124000000003,8.615398945124658,0.1394804653888172
8.839512000000006,8.617593724899786,0.1391284729735214
8.841892000000001,8.611547784263768,0.1388590198011945
8.844288000000006,8.604430908441115,0.1386054342000386
8.846676000000002,8.600806377432095,0.1382914108610348
8.849060000000001,8.595226967504901,0.1379692225202157
8.851456000000006,8.58871639201793,0.1376555296015586
8.911176000000005,8.193938390589928,0.1376318658687786
8.913556,8.197710274657284,0.1375576598790283
8.915956000000001,8.201110071672304,0.1374681771492436
8.918344000000005,8.203299163873822,0.1374007358030131
8.920724,8.214520372419406,0.1372455599905915
8.923124000000001,8.230629726189356,0.1370616367939494
8.925512000000005,8.24487674883975,0.1368985580393485
8.927908000000002,8.26010215887817,0.1366915838510105
8.930304,8.269041727423614,0.1365755639210956
8.932692000000003,8.277561987088479,0.1364785901807821
8.935076000000002,8.28971436119384,0.1363122244150369
8.937472,8.30433536675444,0.1360659144965864
8.939860000000003,8.316582184516289,0.135832167374532
8.942240000000005,8.325895735971942,0.1356343012178766
8.944636000000003,8.33828232336065,0.1353953724137214
8.947024000000006,8.351088219629938,0.1351382687043149
8.949408000000005,8.364592964033527,0.1348516366940347
8.951804000000003,8.37674723399676,0.1345945116152308
8.954196000000003,8.389645678064664,0.1343690071566833
8.956576000000005,8.400262482132433,0.1341817576431391
8.958976,8.41250929989428,0.133953866960125
8.961364000000003,8.418237958737679,0.1337937227936089
8.963744000000005,8.421033351274883,0.1336682168234047
8.966140000000003,8.431837146797754,0.1334430767379674
8.968528000000006,8.444270956014705,0.1331798225746663
8.970908000000001,8.458102461500259,0.1328571498889713
8.973304000000006,8.472353275866393,0.1325164605821295
8.975692000000002,8.486976177284864,0.132193736570933
8.978072000000004,8.510538647248781,0.1317644695163907
8.980472000000006,8.538245088332392,0.1312824176290712
8.982856000000005,8.566603155722062,0.1308071263327619
8.985240000000005,8.591189339044373,0.1304031234674886
8.987636000000002,8.615076674232384,0.1300301372151698
8.990024000000005,8.64417891572673,0.129590530526429
8.992408000000005,8.66955649498196,0.1291884691282347
8.994804000000002,8.693863139050551,0.1288025035002206
8.997192000000005,8.716819308678785,0.1284461443390564
8.999588000000003,8.742196887934014,0.1280510012658229
9.001984,8.768552854577267,0.1276158758366222
9.004372000000004,8.799192561967073,0.1271252529055572
9.006756000000003,8.830483895662935,0.1266416076241478
9.009152,8.864568726038135,0.1261326301182885
9.011540000000004,8.902797527533028,0.1255741763900004
9.013920000000006,8.939303767535225,0.1250367171811311
9.016316000000003,8.974599302723922,0.1245251356206942
9.018704,9.00784551533796,0.1240716506812776
9.021088000000006,9.042814289444692,0.1236111224115164
9.023484000000003,9.074849797245232,0.1231807852043049
9.025872,9.103300412433518,0.1227797861705511
9.028256000000006,9.131099401315746,0.1223797909186175
9.030652000000003,9.157036059078418,0.1219965918796502
9.033036000000005,9.185254356841227,0.1215817802605156
9.035420000000002,9.216173603484751,0.1211208165404383
9.037816,9.24481121012814,0.1206953628764775
9.040204000000005,9.274240212704449,0.1202681263947268
9.042588000000002,9.305671316027173,0.1198227639640493
9.044984,9.338173354536536,0.1193674793809199
9.047372000000005,9.366391652299344,0.1189641413331639
9.049752000000003,9.391257374875376,0.1186046882330178
9.052156000000004,9.413050061518357,0.1182800271352486
9.054548000000004,9.431118085922218,0.1179842065929385
9.056928000000006,9.448534484020026,0.1176856132351781
9.059328,9.461387602117558,0.1174481883045326
9.061716000000004,9.467535569841536,0.1172967101987546
9.064100000000003,9.469819105699544,0.1171789199331114
9.066496,9.470659619318573,0.1170589137842608
9.068884000000004,9.46735616181791,0.1169832282037146
9.071268000000003,9.46926761062358,0.116851373683382
9.073664,9.468897419429108,0.1167494345600928
9.076056,9.463172552301447,0.116709184512203
9.078436000000004,9.45665628924087,0.116670384101071
9.080836000000003,9.450140026180293,0.1166314378652152
9.083224,9.441853979798772,0.1166313434220026
9.085604000000004,9.43477863823075,0.1166134515986727
9.088004000000003,9.431847267782423,0.1165526506288373
9.090392,9.427053566214546,0.1165051343746916
9.092772000000004,9.420397533527106,0.1164707022537098
9.095176000000002,9.418956407145998,0.1163824506700623
9.097564000000006,9.42352158300414,0.1162397174663087
9.099944,9.430368398862424,0.1160690189475022
9.102340000000003,9.442150581773316,0.1158563587872539
9.104728,9.454584390990266,0.1156483900349676
9.107108000000004,9.471721249834353,0.1153789508928264
9.109512000000002,9.493421388678714,0.1150519939043116
9.111900000000006,9.51712362826949,0.1147066093842264
9.11428,9.542688198979825,0.1143491976884677
9.116684,9.572816049690433,0.1139358969036016
9.119068000000006,9.597077367788652,0.1135732446165268
9.121452000000003,9.624551491446784,0.1131762212333635
9.123856000000004,9.65738029103811,0.1127218696647319
9.126244,9.692211191375852,0.112251017971254
9.128624000000002,9.726250695780678,0.1117831718359915
9.13102,9.758055782013608,0.1113131261729885
9.133408000000005,9.786136206007424,0.110869236426227
9.135788000000003,9.80420612626916,0.1105123783345623
9.138184000000004,9.823486751344392,0.1101404428730241
9.140572000000006,9.840905045300063,0.1097804192980614
9.142952,9.854039598509186,0.109466727861688
9.145348000000006,9.859445287986365,0.1092121057147752
9.147736000000002,9.86270910709026,0.1089806117051737
9.150116000000004,9.86317942951482,0.1087678797046021
9.152516000000006,9.862346499327268,0.1085468057906867
9.154900000000003,9.859231929139575,0.1083531188637052
9.157284000000004,9.852392696712773,0.1081823775928974
9.159680000000002,9.84476206835305,0.1080121907481655
9.162068000000003,9.834617482567715,0.1078489796853731
9.164448,9.822470796035962,0.1077021037795679
9.166848000000002,9.811255275063989,0.1075491555469504
9.169232,9.800319293345732,0.1073860539696576
9.171612000000003,9.78658981494814,0.1072395165124252
9.174020000000006,9.773931271737188,0.1070823438089738
9.176404000000003,9.759270627779816,0.1069407841106545
9.178788000000004,9.74861418531528,0.106767038738371
9.181184000000002,9.738749138783666,0.1065923443239978
9.183568,9.739965531170771,0.1063276496598263
9.185952,9.73890028355774,0.1060889196412279
9.188356000000006,9.740488762997185,0.1058387667400198
9.190740000000003,9.741565385757427,0.1055785024358294
9.19312,9.746646210010503,0.1052855875829376
9.195524000000006,9.744929336091417,0.1050393147680978
9.197912000000002,9.74507479329188,0.1047827332504928
9.200292000000005,9.743590236798266,0.1045561697660945
9.202688000000002,9.739172413998457,0.1043505172700689
9.205080000000002,9.74034158455732,0.1041122447163464
9.207460000000005,9.744164482168657,0.1038631996035082
9.209860000000006,9.750361567578748,0.1036130334023435
9.212248000000002,9.756139344108254,0.1033782184595357
9.214628000000005,9.765921322130598,0.1031130804370263
9.217024000000002,9.775423760899224,0.1028591777705423
9.219412000000004,9.784367121160406,0.1026248991117284
9.221792,9.789166510301897,0.1024267622647731
9.224188000000003,9.794757295376304,0.1022278829774709
9.226576,9.79606433970416,0.1020699803443929
9.228956000000004,9.79923371515157,0.10190184877822
9.231360000000002,9.795465622799949,0.1017850528540212
9.233748000000006,9.788904033768995,0.1016832195435571
9.236128,9.780619883245349,0.1015866288635589
9.238524000000004,9.776060394960812,0.101469499450007
9.240912000000002,9.773503007422692,0.1013375078906539
9.243296,9.783749620295994,0.1011155585278427
9.245692000000004,9.79027157093018,0.1009140693400226
9.248080000000002,9.8020084278707,0.1006686370840739
9.250464,9.81868065186383,0.1003887191111943
9.252868,9.831208904737268,0.1001442018444475
9.255256000000005,9.84108343055823,0.0999102231049422
9.257636000000003,9.850306330073131,0.0996719596443714
9.260040000000004,9.856595963281842,0.0994524501565107
9.262424000000005,9.855808359064662,0.0992864448677783
9.264808000000002,9.850876783727788,0.0991542647497246
9.267212,9.84915801395083,0.0989930548443441
9.269596,9.847439244173874,0.098831296012982
9.271976000000002,9.845068848090856,0.0986642152111639
9.274376000000004,9.84470055275426,0.098482235381228
9.276764,9.843121552604163,0.0983151240007239
9.279144000000002,9.843544653200484,0.098133210013684
9.28154,9.850905221595832,0.0979027983375956
9.283928000000005,9.861478595551096,0.0976441262142287
9.286312000000002,9.870329408013662,0.0973912487990707
9.288708,9.87717811972981,0.097153674231297
9.291096000000003,9.875227032527375,0.0969732225345058
9.293480000000002,9.874858737190776,0.096792974775751
9.295876,9.8735592762944,0.0966182646009143
9.298264000000003,9.872399585024882,0.0964395491639873
9.300644000000004,9.873940842636085,0.0962236018784799
9.303040000000005,9.874271395433784,0.096021124932204
9.305428000000006,9.875672883418126,0.0958099235654802
9.307812000000006,9.88242904733566,0.0955531643323785
9.310208000000005,9.896262448679082,0.0952469544093563
9.312596000000006,9.915031217075116,0.0949093385607657
9.314980000000006,9.931006488791814,0.0945858888264856
9.317376000000005,9.94898386125493,0.094248679327003
9.319764000000006,9.97268799670358,0.0938828247417061
9.322144000000002,9.995600736219306,0.0935168740015216
9.324544000000005,10.014276956816722,0.0931563572345307
9.326932,10.031462933346925,0.0928189698793879
9.329312000000002,10.046786578757564,0.0924925577154974
9.331712000000003,10.055824382675231,0.0922147213384999
9.334096000000002,10.06136984177927,0.0919724625141508
9.336476000000005,10.065704596069804,0.0917438316123806
9.338880000000003,10.072832847039676,0.091502168122852
9.341268,10.079169702076626,0.0912598877727647
9.343652000000006,10.082293751553664,0.0910447901313956
9.346048000000003,10.082344765097648,0.0908519127247721
9.348436,10.080625995320688,0.0906916534026278
9.350820000000006,10.08477375815612,0.0904981817425538
9.353216000000003,10.087571046551192,0.0903231631343211
9.355604,10.088738321252183,0.0901760726479387
9.357984000000002,10.086832560020126,0.0900505214944692
9.360384000000003,10.081062366922092,0.0899451651254451
9.362772,10.077945900876532,0.0898328792463212
9.365152000000002,10.077622931510309,0.0897094291208172
9.367548,10.073155991024388,0.0896152712271233
9.369936000000004,10.069852533523724,0.0895364454178991
9.372320000000002,10.075720961993984,0.0894248086600859
9.374716,10.08601290083766,0.089275940556929
9.377104000000005,10.094674825987251,0.0891538535094315
9.379484000000003,10.110134449309015,0.0889968244590721
9.381880000000002,10.132671310056669,0.0887962780547912
9.384268000000006,10.154928631550598,0.0886043065127515
9.386652000000003,10.176766644163951,0.0884261092895694
9.389048000000004,10.20018744864314,0.0882498955076694
9.391436000000006,10.224399649055242,0.0880744367956588
9.393820000000003,10.249123706146548,0.0879088448523497
9.396216000000004,10.27277682805121,0.0877511324406899
9.398604000000006,10.291494582903264,0.0876219514733119
9.400988000000003,10.309001632941818,0.0875053317336819
9.403392000000004,10.324646351860816,0.0873960236547797
9.40578,10.340802927459013,0.0872969252019076
9.408164,10.36175510048296,0.0871755750104719
9.410560000000004,10.381636338320266,0.087063205705316
9.412948,10.399795014664877,0.0869546220019103
9.415332,10.418745086942408,0.0868472425266854
9.417728000000004,10.439604712167736,0.0867058708602819
9.420116,10.4536666392209,0.086598507567003
9.422496000000002,10.46530715664706,0.0865165695454011
9.424896000000004,10.477227213326945,0.0864257788959443
9.427284,10.48928703963369,0.0863316179737642
9.429664000000002,10.49827383000738,0.0862570137982672
9.432064000000004,10.5124755266874,0.0861488919597749
9.434452,10.531100733740836,0.0860068245269014
9.436832000000004,10.553358055234767,0.0858307486526903
9.439228,10.578967951915477,0.0856290763059715
9.44162,10.6060680926634,0.0854076045415195
9.444000000000004,10.636660578224964,0.0851559647466325
9.446396,10.672328200466,0.0848776253861623
9.448784000000003,10.712419333080453,0.08456683244042
9.451168000000004,10.75521141457562,0.0842255798962966
9.453568000000004,10.79684001308553,0.0838698875225319
9.455956,10.837816985289384,0.0835121339007364
9.45834,10.878282100814038,0.0831461951146774
9.460736000000004,10.917816050778915,0.0827848625827556
9.463124,10.959119784064733,0.0823979539405808
9.465508,10.998281646977272,0.0820276713010862
9.467904000000004,11.042937955449869,0.081619748407445
9.470296000000005,11.088432881683625,0.0811892226942784
9.472676,11.135557821611458,0.080737296899582
9.475084000000004,11.176164602620844,0.080305761360358
9.477468000000002,11.21639929657789,0.0798622197243479
9.479852,11.251326536429987,0.0794293337261251
9.482248000000006,11.281737718110056,0.0790086526054881
9.484636000000002,11.307073763110653,0.0786159110986518
9.48702,11.328685145872132,0.078235329074241
9.489416000000006,11.347782571208,0.0778549369086525
9.491804000000002,11.36422626949139,0.077479427581023
9.494184000000004,11.372009938483057,0.0771345415416911
9.496580000000002,11.376068945235613,0.0768005755378732
9.498968000000003,11.379708643107584,0.0764796281283703
9.501348,11.384139736912475,0.0761603807644092
9.503744000000005,11.383915002918474,0.0758530491391818
9.506132,11.38182793780492,0.0755501635054688
9.508516,11.38095157750486,0.075237544524074
9.510912000000005,11.378073116458388,0.0749342673304873
9.5133,11.374123720225272,0.0746370604624614
9.515680000000003,11.366961518432245,0.0743591100016264
9.518080000000005,11.356446741452435,0.0741031959408622
9.520468,11.343510554845636,0.0738671659767229
9.522848000000003,11.336161361597505,0.0736179641721084
9.525248000000005,11.327741233162731,0.0733746247598965
9.527636,11.321835062153577,0.0731326997869312
9.530016000000003,11.316440747823618,0.0729003034514362
9.532416000000005,11.307973397560604,0.0726810350969869
9.534804,11.299366277670732,0.0724653357320674
9.537184000000003,11.290991475206331,0.0722667037186571
9.539584000000003,11.283128529421134,0.0720776325084388
9.541972,11.279921411434826,0.071877772175736
9.544352000000003,11.27536381900816,0.071691313472461
9.546748,11.267872960275296,0.0715146510161058
9.549136000000004,11.260661640796156,0.0713301016066888
9.551520000000004,11.256895444302405,0.0711453204054654
9.553916,11.252570169301215,0.0709757422610173
9.556304000000004,11.24382138392661,0.070833371290002
9.558684,11.231440484111513,0.0707201120862254
9.561084,11.22134122429655,0.0705910135558737
9.563472000000004,11.211241964481587,0.0704617986666387
9.565856000000004,11.201282474293484,0.0703281806336215
9.568252,11.19253368891888,0.0701846134719404
9.570640000000004,11.179129075745385,0.070050084889753
9.573024000000004,11.16437398813153,0.0699288006298385
9.57542,11.14775656939812,0.0698109235061081
9.577808000000005,11.131418689918426,0.0696849185516172
9.580188,11.12509131417082,0.0695215572876862
9.582592000000004,11.121557435102549,0.0693530901413503
9.584980000000002,11.121515900847916,0.0691601354772105
9.587360000000004,11.119751805100584,0.068966496789433
9.589756,11.120269349353388,0.0687582727989387
9.592144000000005,11.125070634352744,0.0685280397754445
9.594524,11.13294495528516,0.0682851854900597
9.596924,11.141470902523633,0.0680491265265811
9.599312000000005,11.148274288269407,0.0678126900684574
9.601692,11.15843024920196,0.0675560375706837
9.604088000000004,11.173940886067708,0.0672722959624222
9.606480000000005,11.19387503330687,0.0669626707859775
9.60886,11.213529641292308,0.066662174122174
9.611256000000004,11.232253083717968,0.0663635525548833
9.613648000000005,11.24976582133013,0.0660732258449819
9.616028,11.266207623755651,0.0657886709774977
9.618424000000005,11.288376189166708,0.0654920364415694
9.620812,11.314688725697454,0.065178555298333
9.623196,11.34300336297462,0.0648592451882236
9.625592000000005,11.371178230624922,0.0645447266135202
9.62798,11.38934259454314,0.0642647407935412
9.630364,11.402711361035609,0.0639956525269478
9.632760000000005,11.414078026781658,0.0637342155011191
9.635148,11.428377958833904,0.0634653004802053
9.637532,11.440675790139734,0.0632039333848278
9.639936000000006,11.449900585512507,0.0629546825874927
9.642324000000002,11.458054445698645,0.0627110645900118
9.644708,11.464206205138362,0.0624739088629445
9.647104000000006,11.473431000511138,0.0622263002241883
9.649492000000002,11.48372673107055,0.0619749829862796
9.651876,11.492811756816462,0.0617333680881289
9.654272000000006,11.501896782562374,0.0614926278992513
9.656660000000002,11.507908772375234,0.0612625537645673
9.659044000000002,11.515783093307649,0.0610306478066844
