Time,Force,Position
7.079116,5.61304285241978,0.1635701003701596
7.081495999999999,5.617092379882988,0.1635681824682947
7.083899999999999,5.625937504771947,0.1634609588871071
7.086284,5.6425114933928535,0.1631826214186127
7.088663999999999,5.660947813133316,0.1628731640590028
7.09106,5.680455068060418,0.1625311827796711
7.093448,5.70052140149496,0.1621525692136994
7.095828,5.724080079743138,0.1616586748812452
7.098223999999999,5.752062268364732,0.1610426599865231
7.100611999999999,5.77152419732146,0.1606137632886826
7.103008,5.783956110680542,0.1603075476083215
7.105403999999999,5.792291274748172,0.1600553559897882
7.107791999999999,5.800766208442664,0.1597963317011039
7.110172,5.816970005869101,0.1593838177064263
7.112567999999999,5.833406120721017,0.1590052317957904
7.114955999999999,5.854218524118104,0.1585661204333195
7.117335999999999,5.876473949754166,0.1581173792370984
7.119732,5.901942180950144,0.1575878676984653
7.12212,5.931414613638957,0.1569779076050156
7.124499999999999,5.970106154126935,0.1561714943712948
7.126896,6.005771880510101,0.1553890920006496
7.129283999999999,6.037480627228675,0.1546473315207586
7.131679999999999,6.071471013947387,0.1538539877835905
7.134075999999999,6.102156047307568,0.1531106260700823
7.136459999999999,6.127533626562798,0.1524491955558038
7.138844,6.154680989138967,0.1517193419657883
7.141248,6.179686481341861,0.1510411309032044
7.143631999999999,6.208276866157005,0.1503134133250894
7.146012,6.234213523919678,0.1496323736611476
7.148412,6.2652253183618205,0.148851752913635
7.150795999999999,6.295305947244186,0.1480805510892521
7.153175999999999,6.327248907246108,0.1472823916806822
7.15558,6.357981162434532,0.146523011217244
7.157967999999999,6.37977384907751,0.1459419975745208
7.160348,6.3977493256827564,0.1453822648668551
7.162743999999999,6.4059012900110215,0.1449584393033236
7.165131999999999,6.411539296913673,0.1445582597030631
7.167511999999999,6.41969126124194,0.1441352685831624
7.169907999999999,6.427471138517868,0.1436990958830991
7.172292,6.422866324262959,0.1434669043559983
7.174687999999999,6.418493827433526,0.143262671596566
7.177084,6.418497619149265,0.1430050648374176
7.179472,6.4185014108650025,0.1427499287114216
7.181852,6.413569835528129,0.1425802940726738
7.232019999999999,6.20112638874817,0.1424468790462552
7.234419999999999,6.202197323934809,0.142424489809595
7.236807999999999,6.207644547666618,0.1423509473404034
7.239187999999999,6.218818534383958,0.1421892720815391
7.241583999999999,6.231947400019472,0.1420386959122783
7.2439719999999985,6.2497320934538765,0.1418189309135773
7.246356,6.270170513940757,0.141571284791047
7.248751999999999,6.292331495920333,0.1413066815267204
7.251139999999999,6.321290176072077,0.1409365345061107
7.253535999999999,6.360863764433721,0.1404455373231817
7.255931999999999,6.402299683914921,0.1399345492831207
7.2583199999999986,6.438847458171753,0.1394652112164211
7.260704,6.472089879070053,0.1390281829317775
7.263103999999999,6.5145514077675175,0.1384311697349635
7.265491999999999,6.561296677211536,0.137750957297548
7.267872,6.60631938516286,0.1370993417483515
7.270267999999999,6.652692567554541,0.136423667323627
7.272655999999999,6.70106785069264,0.1357110998669806
7.27504,6.753167796069852,0.1349435372875461
7.277435999999999,6.804476345514146,0.134191168083751
7.279823999999999,6.855273038279242,0.1334377523567914
7.282203999999999,6.901413903245447,0.1327463816551004
7.284607999999999,6.94369033634568,0.1321166395446906
7.286995999999999,6.978098136087104,0.1316079854420575
7.289376,7.011482222470132,0.1310797757646037
7.291771999999999,7.047287718480158,0.1305049852111832
7.294159999999999,7.076714825198596,0.130004314838369
7.296535999999999,7.101905412998722,0.1295369927521492
7.298944,7.120438072253541,0.1291602800495457
7.301327999999999,7.133011651097352,0.1288367115811462
7.303707999999999,7.142419646209491,0.128528894433083
7.306103999999999,7.150477166881271,0.1282529925788463
7.308491999999998,7.162119580165304,0.1279436839034175
7.310871999999999,7.168686856769865,0.127713285330293
7.313275999999999,7.172320867068229,0.1275225622145069
7.3156599999999985,7.172090445500622,0.1273813194387626
7.318043999999999,7.168647218373099,0.1272937244454464
7.320439999999999,7.166414696059074,0.1271812996399087
7.322827999999999,7.163949856319571,0.1270430215405697
7.325207999999999,7.158039893594676,0.1269311571050698
7.327611999999999,7.148125729376947,0.1268744622335831
7.329999999999999,7.139422269972718,0.1267930213113948
7.33238,7.1294155579563725,0.1267029371721772
7.334784,7.125554917806137,0.1265220470804488
7.337167999999999,7.121926595081378,0.1263673730512217
7.339548,7.114945697169844,0.1262721615620235
7.341943999999999,7.111689461497424,0.1261363774094151
7.344331999999999,7.112157888064116,0.1259598559749191
7.346711999999999,7.113557480190588,0.1257725311258547
7.349107999999998,7.113327058622979,0.1256315266902206
7.351496,7.113468724107709,0.125509356340341
7.353875999999999,7.117894130338993,0.1253176031074374
7.356272,7.119945348771521,0.1251361047168661
7.358655999999999,7.1192030705247165,0.1249839542525978
7.361055999999999,7.116458691531495,0.1248585408300146
7.363452,7.117998053284826,0.1246638731321507
7.365839999999999,7.115393443918465,0.1245306448087465
7.36822,7.114790935298519,0.124370699899306
7.3706239999999985,7.112418643357634,0.1242641023049679
7.373008,7.114143100708199,0.1241366947976444
7.375388,7.11894059399182,0.1239647947391353
7.377788,7.127602519141414,0.1237472195929911
7.380176,7.139569797649543,0.123512263713263
7.382556,7.147393105037975,0.1233392338541302
7.384951999999999,7.152702455000794,0.1231808456663438
7.387339999999999,7.157220409030694,0.123024868042352
7.38972,7.162809298247234,0.122853091603814
7.392127999999999,7.167047713023414,0.1227127135153233
7.394512,7.174359163732649,0.1225299297887221
7.396895999999999,7.186373664069019,0.1222606332824091
7.399287999999999,7.198388164405389,0.1219913367760962
7.401675999999999,7.208260794368482,0.121756611977759
7.4040599999999985,7.21464107951794,0.1215852730498681
7.406455999999999,7.225537422839428,0.1213737503211416
7.408843999999999,7.242160529146449,0.1210989067127276
7.411219999999999,7.253149420266554,0.1209202001454991
7.413619999999999,7.27028438325277,0.1206556365800454
7.416004,7.283135605492432,0.1204584342181013
7.418383999999999,7.301341503665288,0.1201809813979796
7.42078,7.31624204847961,0.1199209739361903
7.423167999999999,7.330863054040212,0.1196763242722259
7.425563999999999,7.345204520347093,0.1194491322842727
7.42796,7.359825525907695,0.1192104288687627
7.430343999999999,7.378590502587991,0.1189174512262108
7.432728,7.403361781507537,0.1185539537829465
7.435123999999999,7.429995391546641,0.1181735793619676
7.437511999999999,7.45276456971977,0.1178357191872167
7.439891999999999,7.477815387893037,0.117461932987312
7.442287999999999,7.499653400506389,0.1171357751221018
7.4446759999999985,7.518138837932965,0.1168652409532937
7.447071999999999,7.538905915359678,0.1165596556017835
7.449467999999999,7.562606259092585,0.1162250557180458
7.4518559999999985,7.589519408385409,0.1158451701646913
7.454235999999999,7.615129305066118,0.1154580563996832
7.456644,7.643300381000682,0.1150302224657952
7.459027999999999,7.677524981002741,0.1144974786505527
7.461412,7.709887249885242,0.113984181642381
7.463807999999999,7.744810698021602,0.1134236536086359
7.466195999999999,7.775078318359072,0.1129076380545482
7.468576,7.807348039442957,0.1123713741207375
7.470971999999999,7.841247774220921,0.1118001213941971
7.473359999999999,7.870491681199994,0.1112687981879275
7.475739999999999,7.900015127432786,0.1107304367516613
7.478139999999999,7.926465537732525,0.1102309576397108
7.480527999999999,7.949842912099208,0.1097716542505423
7.482907999999999,7.972568660159833,0.1093089184795498
7.485303999999998,7.999158840086433,0.108812018639509
7.487692,8.023095292960557,0.108332582109312
7.490071999999999,8.051315486581235,0.1078028376753797
7.492475999999999,8.078744284268994,0.1072740415833577
7.49486,8.103239815650557,0.1067747479101765
7.497239999999999,8.122148353673452,0.1063182480769613
7.499643999999999,8.140405265390289,0.1058584204874144
7.502031999999999,8.155961228226408,0.1054482031435045
7.504416,8.1621583136365,0.1051436648973217
7.506811999999999,8.168447946845209,0.1048715456151034
7.509195999999998,8.174737580053918,0.1045998016073331
7.511579999999999,8.181678839568685,0.1043351648012276
7.513975999999999,8.188480329456594,0.1040763027575863
7.5163639999999985,8.194350653784722,0.1038248272314592
7.518743999999999,8.195797467739437,0.1036293794586245
7.52114,8.198175447253929,0.1034268599045019
7.523523999999999,8.194407354902312,0.103286769180634
7.525919999999998,8.189708096990916,0.1031529882415388
7.528315999999999,8.184869069452658,0.1030253905090059
7.530699999999999,8.178819337100904,0.1029159790820051
7.533079999999999,8.169976108069813,0.102825536798817
7.535476,8.163646836464338,0.1027279844396402
7.537859999999999,8.156106860045362,0.1026485437878359
7.54024,8.151360380305725,0.1025506050595535
7.54264,8.147265526872141,0.1024582150951324
7.545023999999999,8.148757666797229,0.1023292207168851
7.54742,8.148340253774519,0.1022474170394959
7.549819999999999,8.15341728631186,0.1021001158727578
7.552203999999999,8.163429685901814,0.101909826692423
7.554588,8.167575552879377,0.101768023260934
7.556983999999999,8.173583750976498,0.101614708620923
7.559371999999999,8.174796351647865,0.1014974818149996
7.561756,8.179593844931485,0.1013625055556222
7.5641479999999985,8.183972029334527,0.1012452529718718
7.566539999999999,8.192354415230401,0.1010925792414993
7.568919999999999,8.203670067432473,0.1009167879553493
7.571315999999999,8.220852252246932,0.1006933263261054
7.5737,8.237103271501612,0.1004750207030882
7.576083999999999,8.24855869333054,0.1002916423533841
7.57848,8.263087151092527,0.1000794096304871
7.580868,8.276404904041012,0.0998841757475635
7.583263999999999,8.289350569937161,0.0996731330267342
7.58566,8.293496436914726,0.0995317415987303
7.588043999999999,8.295128346466674,0.0993967746640148
7.590424,8.29825050008584,0.0992328564654076
7.592823999999999,8.298579157025674,0.0990870666833606
7.595211999999999,8.302028071726802,0.0988775100167111
7.597592,8.301472784935102,0.0987031138886456
7.599987999999999,8.299334706277563,0.098528544533434
7.602375999999999,8.3017599076203,0.0982963688237183
7.60476,8.3013916122837,0.0980814916803203
7.607155999999999,8.306889849559491,0.0978217934554586
7.609543999999999,8.306149467170556,0.0975894338002198
7.611923999999999,8.308901429595256,0.0973129025505372
7.614319999999998,8.30885989534062,0.0970532701603347
7.616708,8.308306504406787,0.096783100998446
7.619103999999999,8.306030551980257,0.0965186469073162
7.621499999999998,8.307107174740503,0.0962156876828215
7.623888,8.31554057418036,0.0958421926097416
7.626267999999999,8.321040707314022,0.0954909542145728
7.628664,8.330033185261318,0.0950961049016026
7.631051999999999,8.336604253581616,0.0947347476475926
7.633435999999999,8.353325595260861,0.0942867239001207
7.635832,8.369767397686383,0.0938499259732953
7.63822,8.382065228992213,0.0934502996339808
7.6406,8.392500729178487,0.0930604418496435
7.642995999999999,8.400514819737761,0.0927043355395809
7.645383999999999,8.40680634880434,0.0923514532587856
7.647764,8.414029043430697,0.0919937313623304
7.650171999999999,8.419901263616694,0.091659083855895
7.652556,8.42670464936247,0.091319471474184
7.654935999999998,8.427781272122717,0.0910154096513453
7.657331999999999,8.433513722681854,0.0906862035408977
7.659719999999999,8.431889396561383,0.0904249000661595
7.6621,8.43026507044091,0.0901631622466992
7.664504,8.422075363573747,0.0899693473490238
7.666887999999999,8.414816822266362,0.0897707343363023
7.6692719999999985,8.407138972078396,0.0895892311852317
7.671667999999999,8.397039712263433,0.0894398208726852
7.674051999999999,8.38787161800825,0.0892854894006157
7.676431999999999,8.378144445245624,0.0891533957707575
7.678835999999999,8.36855704210986,0.0890154279150764
7.681223999999999,8.354546128600678,0.0889232479756337
7.683604,8.342257776584196,0.0888273594272733
7.685999999999999,8.333833856433687,0.0887076377015707
7.688387999999999,8.328203432962512,0.0885742247663626
7.690784,8.323224635797395,0.08844726473862
7.693179999999999,8.326766098297144,0.0882753884804894
7.695567999999999,8.328957086356533,0.0881243881624129
7.697947999999999,8.329006204042647,0.0879929564264542
7.7003439999999985,8.32905532172876,0.0878616132686242
7.702732,8.331618396840485,0.087727761817955
7.705111999999999,8.336695429377826,0.0875928961708924
7.707515999999999,8.345916433034864,0.0874234398345993
7.709903999999999,8.356999767811455,0.0872456876640422
7.712283999999999,8.377302210387214,0.0869958736314593
7.714679999999999,8.394391847403057,0.0867757038937923
7.7170679999999985,8.41055031885912,0.0865607376098445
7.719447999999999,8.424427150315045,0.086370947070167
7.721847999999999,8.435091176211056,0.086209849977285
7.7242359999999985,8.448968007666984,0.0860213463526828
7.726615999999999,8.464567400615607,0.0858302926146057
7.729015999999999,8.484170995057065,0.0856125280575068
7.7314,8.50577669024494,0.0853829423128564
7.733783999999999,8.528313550992591,0.0851510567697411
7.73618,8.550850411740244,0.0849206049024751
7.738568,8.575668912488034,0.0846673676849054
7.740951999999999,8.593410175809934,0.0844654583169619
7.743348,8.613433079131969,0.084240268751738
7.745736,8.63839134950662,0.0839857779940942
7.748115999999999,8.661207749507994,0.0837492788060296
7.750515999999998,8.684163919136225,0.0835076473953444
7.752899999999999,8.69939122503251,0.0833075385885704
7.755283999999999,8.720485063541187,0.0830766875717339
7.75768,8.74386054205,0.0828252343868577
7.760067999999999,8.76323181906598,0.0826012285200314
7.762463999999999,8.78874916794807,0.0823361745486247
7.764863999999998,8.814126747203304,0.0820768638845656
7.767247999999999,8.840994570525753,0.0817932870057652
7.769631999999999,8.875079400900955,0.0814599789289378
7.772028,8.902226763477122,0.0811685282973347
7.774415999999999,8.927651564560596,0.0808795456873663
7.776796,8.95349567452465,0.0805790126643007
7.779191999999999,8.972542086316537,0.0803124986976435
7.7815759999999985,8.991868037362142,0.0800381493580081
7.783955999999999,9.009331657288191,0.0797710405266142
7.786352,9.023722241281186,0.0795247718201428
7.788735999999999,9.040114926020598,0.0792670239848957
7.791131999999998,9.058230172252705,0.0790097937382268
7.793527999999999,9.074483087365252,0.0787607828829577
7.795911999999999,9.10102604546361,0.0784489066423896
7.798291999999999,9.126917377255907,0.0781305960631618
7.800695999999999,9.159374089794891,0.0777592839848732
7.803079999999999,9.185033104161713,0.0774227308525453
7.805459999999999,9.20654814740884,0.0771148443261663
7.807868,9.228202960282829,0.0768028827340768
7.810251999999999,9.243991240544425,0.0765196832814346
7.812632,9.25977952080602,0.07623673530063
7.815036,9.274496865880977,0.0759617845132646
7.817424,9.2852100094631,0.0757096427610651
7.819803999999999,9.29750594491106,0.0754604086010121
7.8222,9.312735146665217,0.0751987852615451
7.824587999999999,9.32260967248618,0.0749759091467773
7.826968,9.337419565359752,0.074728992833115
7.829371999999998,9.347945717486771,0.0745127788422822
7.831755999999999,9.361265366293129,0.0742890322607037
7.834139999999999,9.379660151778957,0.0740388587370835
7.836536,9.396751684652669,0.0737756274833451
7.838919999999999,9.409047620100628,0.0735309520230574
7.841299999999999,9.419481224429031,0.0732918648923735
7.843695999999999,9.416831289092295,0.0731203934668265
7.8460839999999985,9.416835080808031,0.0729463511063931
7.848467999999999,9.415208858829695,0.0727989737441039
7.850863999999999,9.411300996851216,0.0726701488233246
7.853248,9.409115696365433,0.0725411266416935
7.855643999999999,9.406511086999071,0.072426266761379
7.85804,9.404558103938768,0.0723180970157506
7.860428,9.40274489050532,0.0722052254582852
7.8628079999999985,9.401862842631656,0.0720898616980327
7.865203999999999,9.400049629198213,0.0719768368930844
7.867591999999999,9.401868530205263,0.0718285698988891
7.869972,9.402616496025678,0.0716879352024742
7.872376,9.405506332219367,0.0715330062345185
7.874764,9.40760477248014,0.0713760490954014
7.877143999999999,9.415849284607024,0.0711871994595241
7.879547999999999,9.420229364867934,0.0710122801366564
7.881932,9.417671977329814,0.0708673718999196
7.884315999999999,9.411482475351198,0.070756538161025
7.886708,9.408366009305638,0.0706295550275344
7.889095999999999,9.408322579193133,0.0704868387630732
7.891476,9.416287552066295,0.0703078636068899
7.8938799999999985,9.421598797886984,0.070131211215221
7.896263999999999,9.425187482214977,0.0699543387218471
7.898647999999999,9.431337345796823,0.0697492913115399
7.901044,9.437766748632397,0.0695356279744665
7.903427999999999,9.445034769229125,0.0692945208162429
7.905812,9.453793033893078,0.069032832316838
7.908207999999999,9.465903873743803,0.0687481223877749
7.9105919999999985,9.480296353594666,0.068446987446398
7.912987999999999,9.4992521134458,0.0681124990177057
7.915383999999999,9.515134837363885,0.067794255596971
7.917775999999999,9.528363834229491,0.0674773170210388
7.920155999999999,9.542012139975682,0.0671475103848088
7.922551999999999,9.55580021534873,0.0668139580155431
7.9249399999999985,9.564001297363111,0.0664925152035209
7.927319999999999,9.574763558631345,0.066144997621968
7.929723999999999,9.590880495832774,0.0657667844684082
7.932111999999999,9.614493979340672,0.0653454557232681
7.934492,9.63838700210229,0.0649174101659139
7.936891999999999,9.66134885930413,0.0644937018106431
7.939275999999999,9.678444183893582,0.0640893355732643
7.94166,9.69675021329653,0.0636752089669989
7.944055999999999,9.71547555158006,0.063247877274879
7.94644,9.736063220983146,0.0628187751191639
7.948819999999999,9.75278645852026,0.0623998444692394
7.951216,9.76988178310971,0.0619987388977653
7.953603999999999,9.786977107699162,0.0615987187743881
7.955999999999999,9.79778659079564,0.0612297805227228
7.958396,9.80524349870534,0.0608833513118425
7.960783999999999,9.806786652174411,0.0605836782959084
7.963164,9.81098353269596,0.0602851575304538
7.965564,9.81611157877728,0.0599849010238926
7.967947999999999,9.81760751041811,0.0597140101456672
7.970327999999999,9.81789273724544,0.0594530939557554
7.972732,9.818829590378824,0.0591992564404138
7.975115999999999,9.819998760937686,0.0589666752145663
7.9775,9.815533716309638,0.0587702936745621
7.979891999999999,9.810509593174146,0.0585924140201513
7.9822799999999985,9.805205930784934,0.0584235225364015
7.984659999999999,9.794687362089393,0.0582766063688523
7.987063999999999,9.788684851565876,0.0581287323725742
7.989451999999999,9.78398559365448,0.0579963623135539
7.991832,9.782591689101618,0.0578732824281853
7.994227999999999,9.778916144548615,0.0577649908441629
7.996615999999999,9.781246902234866,0.0576384249511706
7.998995999999999,9.783857199174836,0.0575037416457535
8.0014,9.786187956861086,0.0573777529025154
8.003788,9.792383146413307,0.0572439676332716
8.006167999999999,9.799789040779032,0.0571008816961253
8.008564,9.80947657514489,0.0569431013416345
8.010947999999999,9.817581317644915,0.0567791171211724
8.013331999999998,9.82955049201091,0.0566085373340362
8.015728,9.84701411193696,0.0564088789307276
8.018116,9.865548667049648,0.0562045572882241
8.020512,9.886876718841672,0.0559986989799626
8.022907999999997,9.90555104358122,0.0557909048118709
8.025292,9.931721914627238,0.0555494784618394
8.027676,9.954447662687864,0.0553036732741481
8.030072,9.972377813322735,0.0550652456653681
8.032456,9.99552287026394,0.0548064958344553
8.034835999999999,10.015502343473472,0.0545341760811688
8.037232,10.030965758510977,0.0542607603644283
8.039615999999999,10.042844280936222,0.0539865100895164
8.042016,10.057144212988469,0.0536949348299737
8.044411999999998,10.06208526761469,0.0534370704491181
8.046796,10.06595538705427,0.0531845414966729
