Time,Force,Position
7.317424,4.4305954379944446,0.173986528244337
7.319819999999999,4.55068356562207,0.1735821254160437
7.322204,4.667143370524938,0.1728991514673959
7.324599999999999,4.772944837105403,0.1722009380283322
7.326996,4.863199820139095,0.1716243460731177
7.32938,4.941725529663746,0.1710820093884172
7.33176,5.012758484597664,0.1704879021287609
7.334164,5.070432152328462,0.170008784234254
7.360432,5.131033398791847,0.1698522512017978
7.362836000000001,5.144719447076932,0.1697130567629056
7.36522,5.160779683160772,0.1695353768254938
7.3676,5.181915055924083,0.1692151983829483
7.370004000000001,5.201979493500757,0.1689331567490343
7.372392,5.223254635890929,0.1686108082161181
7.374771999999999,5.245088856788541,0.1682456349036082
7.377175999999999,5.269344487313151,0.1678010404331746
7.379563999999999,5.289875455598648,0.1674450621012795
7.381944,5.3133396901903405,0.1670160063102233
7.384348,5.337735090341812,0.1665667119586729
7.386731999999999,5.365715383105536,0.1660459026356019
7.389112,5.3957903244142935,0.1655195652785305
7.391507999999999,5.422233151282555,0.1651200689843244
7.393896000000001,5.449187834830013,0.1647407773322907
7.396275999999999,5.478936015056807,0.1643109084198058
7.39868,5.501514410059095,0.1640223194481324
7.401063999999999,5.525210962076263,0.1636498746408858
7.403443999999999,5.551096606294951,0.163168628602214
7.40584,5.579403660140638,0.1626028164971213
7.408228,5.601192555067878,0.1621887975246065
7.410607999999999,5.6268931036893335,0.1616487556883215
7.413011999999999,5.655294601191505,0.1610072315733956
7.415399999999999,5.683044472387623,0.160375379895737
7.41778,5.711865278770377,0.1597231385767776
7.420184,5.742688185899548,0.1590378415192537
7.422572,5.77230038821522,0.1583905582612914
7.424952,5.798187928291778,0.1578200576176597
7.427347999999999,5.8242152379951975,0.1572392874823696
7.429735999999999,5.851965109191314,0.1566419946511404
7.432116,5.881344994081508,0.1559869994142952
7.43452,5.910772100799946,0.1552927066652762
7.436903999999999,5.936661536734375,0.154607430938251
7.439288,5.963389590429964,0.1538604364171348
7.441683999999999,5.992166966700213,0.1530395724086183
7.444071999999999,6.017127132932732,0.1522557921914399
7.446452,6.0451603350983065,0.1514025739579391
7.448847999999999,6.068071178756166,0.1506974183291086
7.451236000000001,6.087861764652725,0.1501116589073943
7.453615999999999,6.115101675027513,0.1494120452437941
7.45602,6.14341252058894,0.1486946430580869
7.458407999999999,6.163435423910977,0.1481607000358804
7.460788,6.185041119098851,0.147618255866838
7.463188,6.202874930219369,0.1471848014310593
7.465571999999999,6.220708741339887,0.1467571827817719
7.467951999999999,6.238170465408066,0.1463188167342346
7.470356,6.256191267983686,0.145845386665451
7.472744,6.270859495372531,0.1454463119963939
7.475124,6.284968644253936,0.1450814078314988
7.477519999999999,6.298565936456143,0.1447108417498613
7.479907999999999,6.309090192725294,0.1444037248074382
7.482288,6.314631860113589,0.1442326420717699
7.484684000000001,6.322220954218677,0.1441071387892216
7.487072,6.336420755040828,0.1439203306922927
7.489451999999999,6.347128211049343,0.1438230847331048
7.49424,6.36356053418552,0.1437623408397522
7.496619999999999,6.380506609858765,0.1435835114812528
7.499016,6.401876195905424,0.1433073187792192
7.501404,6.413422269675102,0.1431630122234446
7.503799999999999,6.422454386019166,0.1430442059172091
7.506196,6.43400045978884,0.1428991714621495
7.508584,6.444196059118159,0.1427941342296284
7.510964,6.457744233634253,0.1426138361147524
7.51336,6.466916119605176,0.1424856526670018
7.515747999999999,6.470593560016046,0.1424763080198926
7.518128,6.477017275278008,0.1424717048690703
7.520523999999999,6.489819379831558,0.1423800315304627
7.522911999999999,6.508115929945161,0.1421732970574379
7.525291999999999,6.52282758744651,0.1420136169683854
7.527696,6.53698016644042,0.1418859496271005
7.530083999999999,6.557139047673578,0.141653002058234
7.532468000000001,6.577345150734981,0.1413747402675606
7.534864,6.594013583012374,0.1411038755443723
7.537252,6.606725035625176,0.1408576819743834
7.539636000000001,6.622090215290453,0.1405818711988297
7.542032,6.641040287567983,0.1402613012160274
7.54442,6.657708719845376,0.1399965414167758
7.5468,6.668278302084902,0.1397979571669594
7.5492,6.681641381003761,0.1395616102322044
7.551588,6.69481746846752,0.1393761096203897
7.553964,6.712649383730168,0.1391286553981776
7.556360000000001,6.72903827675384,0.1388822471347899
7.558748,6.744123917165396,0.1386308855577304
7.561139999999999,6.764284694256425,0.1382953277613593
7.563536,6.784585240974314,0.1379481124001592
7.565916,6.803862074333806,0.1375822735488304
7.568312,6.820672172095929,0.1371973804589274
7.570716,6.831103880566462,0.1368935276294546
7.573099999999999,6.843537689783413,0.1365586287596912
7.57548,6.857601512694444,0.136172069797726
7.577884,6.8699427741127765,0.1358054164123699
7.580272,6.885636610717886,0.1353760842599204
7.582652,6.895463914710606,0.135032500605083
7.585048,6.9052439968750825,0.1347283849602115
7.587432000000001,6.9160950142261965,0.1344083019405857
7.589811999999999,6.930206058965472,0.1339941331809505
7.592208,6.938777332174319,0.1336066166536485
7.594592,6.950653958741698,0.1331953787623837
7.596972,6.96080802381638,0.1328003652295627
7.599367999999999,6.968635122920552,0.1323723789120889
7.601752,6.969851515307658,0.1319906237883535
7.604147999999999,6.975211878814459,0.131542457582556
7.606544,6.981782947134757,0.1310698911382619
7.608928,6.982347713215807,0.1306873649494819
7.611308,6.984262953737214,0.1302696783420927
7.613712,6.982034223138928,0.1299186279239561
7.6161,6.981108745152756,0.1295760643962893
7.618479999999999,6.978972562353088,0.1292578406178922
7.620876,6.973763343620363,0.1289879435451598
7.623264,6.967762728954722,0.1287212168981308
7.625644,6.960039552796381,0.1284688503510914
7.628048000000001,6.944028434398654,0.1283495147504748
7.630432,6.930950582307124,0.1281889625512623
7.632812,6.921924153536668,0.1279260488213539
7.666272,6.617629660852093,0.127905685162008
7.668648,6.603059668835472,0.1279018069776348
7.673431999999999,6.580483169691054,0.1278937082602693
7.675828,6.576528085884332,0.1277877199801275
7.678223999999999,6.574667650622646,0.1276876045458773
7.680608,6.572759993532716,0.1276308583190283
7.682987999999999,6.576951186480653,0.1275199373178543
7.685391999999999,6.586729372787259,0.1273408750880585
7.687779999999999,6.595296854280368,0.1271893135829724
7.690155999999999,6.60009245170612,0.1271255959052673
7.694947999999999,6.605771992863407,0.1270940979084829
7.697328,6.60893757659508,0.1270813003904566
7.699732,6.616479448871924,0.1270285719209413
7.70212,6.632029724134434,0.1268559298755545
7.7045,6.649302560889643,0.1266691770666029
7.706904000000001,6.668717268018127,0.1264476961269808
7.709288,6.6876201184674136,0.1262165483878775
7.711668,6.710387400782674,0.1259377664914008
7.714071999999999,6.735948179777269,0.1256301041150939
7.71646,6.761508958771865,0.1253247733129582
7.718839999999999,6.786418111460402,0.1250187587795821
7.721243999999999,6.813329364895356,0.1246865778918392
7.723628000000001,6.841823410196147,0.1243555491754394
7.726007999999999,6.870736764377518,0.1240054369476735
7.728404,6.897927557066192,0.1236692452940721
7.730787999999999,6.927399989755004,0.1232933200884977
7.733168,6.958222896884175,0.1228888279622116
7.735572,6.992118839946401,0.1224443646651814
7.73796,7.034954351554072,0.1218871537647534
7.740340000000001,7.083935935027856,0.1212457545344949
7.742743999999999,7.1309154177552205,0.1206315142753184
7.745128,7.174310007870333,0.1200518615166066
7.747507999999999,7.217192741306249,0.1194621067419577
7.749908,7.257142208435968,0.1189158101515877
7.752292,7.299513085192686,0.1183297068112078
7.754672,7.338299069337149,0.1177782684520215
7.757076,7.376665744601035,0.1172515845331524
7.75946,7.410376592066026,0.1167739075858162
7.76184,7.440362777291905,0.1163344664435145
7.764244000000001,7.469417796958007,0.1159054671032894
7.766628,7.495027693638714,0.1154991155112515
7.769008,7.516912928080308,0.1151282606147503
7.771403999999999,7.536284205096288,0.1147741619997521
7.773791999999999,7.553932920619571,0.1144323096172707
7.776172,7.57600514651627,0.114027054826193
7.778564,7.60194180427894,0.113589840216907
7.780952,7.628018231668471,0.1131508135660629
7.783347999999999,7.652092558311587,0.1127383005599219
7.785744,7.669369186782532,0.1123975801694484
7.788127999999999,7.683712548947284,0.1120897942914301
7.790512,7.696984975925396,0.1117944688092493
7.792912,7.709326237343731,0.1115057575973835
7.7953,7.722598664321843,0.111210441741015
7.797680000000001,7.734148529807259,0.1109245115656025
7.800083999999999,7.745279086412094,0.1106612115193754
7.802468,7.755850564509489,0.1104229464011354
7.804848000000001,7.764839250741048,0.1101871757559326
7.807244,7.775178411412965,0.109924950778521
7.809627999999999,7.787519672831299,0.1096418115768846
7.812024,7.80079209980941,0.1093520058232571
7.814419999999999,7.814436613839861,0.1090792200286154
7.816804,7.831945559736283,0.1087707661200959
7.819183999999999,7.846241700072791,0.1085038488716607
7.821587999999999,7.859606674849519,0.1082445480507663
7.823975999999999,7.863612772200222,0.108096566118642
7.826356,7.856816969885922,0.1080552882472676
7.82876,7.850952333131402,0.1080064424872099
7.831143999999999,7.841363034137768,0.1079864192597923
7.833524,7.8340553751442705,0.1079327953148262
7.835923999999999,7.825956320217855,0.1078798661277472
7.838308,7.826424746784548,0.1077201844122269
7.840687999999999,7.829686670030576,0.1075392612736292
7.843091999999999,7.831877658089964,0.1073720013550614
7.845479999999999,7.835930977268912,0.1071910080432722
7.84786,7.834397303089188,0.1070517991639467
7.850255999999999,7.83621620409624,0.1068671467283728
7.852644000000001,7.83975766659599,0.1066750842327385
7.855023999999999,7.844742151334713,0.1064887912633364
7.857428,7.851728736819854,0.1062843395105383
7.859811999999999,7.85592182562566,0.1060998833472299
7.862196,7.862396554431604,0.1058836586940023
7.8646,7.865798247304492,0.1057001762286411
7.866983999999999,7.86919994017738,0.1055157165149197
7.869364,7.873393028983186,0.1053306417562088
7.871764,7.8835924200282435,0.10508511705878
7.874147999999999,7.900869048499188,0.1047659659504962
7.876532,7.913070540290661,0.1045005207361638
7.878924,7.930067629507886,0.1041949674314235
7.881308,7.945062617978695,0.1039100424139775
7.883703999999999,7.960197376076364,0.1036197648954921
7.886095999999999,7.965833487121146,0.1034404695686634
7.88848,7.973751238166066,0.1032312765864855
7.890864,7.982879694024484,0.1030041571278844
7.893268,7.992008149882903,0.1027781490934812
7.895651999999999,8.002998936860877,0.1025381697426804
7.898027999999999,8.011987623092436,0.1023183215760657
7.900424,8.022326783764353,0.1020756119771226
7.902812,8.029220821450878,0.1018462520693954
7.905204,8.030248326525012,0.1016664592908266
7.907608000000001,8.036350968278619,0.1014383823446603
7.909992,8.045666415592141,0.1011765442840184
7.912372,8.058474207719298,0.1008680919764454
7.914775999999999,8.077847380593148,0.100484872916312
7.917164,8.098710797534217,0.1000740851787123
7.91954,8.119062357796086,0.0996532084266271
7.921936,8.13862252212504,0.0992355730627053
7.924323999999999,8.15967293052121,0.098787862865524
7.926704,8.181282417424823,0.0983213518341197
7.929099999999999,8.205964940261492,0.0978286860302772
7.931484,8.231438859031076,0.0973382757532771
7.933863999999999,8.25905464817394,0.0968222635339411
7.936267999999999,8.28294577507769,0.0963319021313439
7.938655999999999,8.30590573642166,0.095849146603544
7.941035999999999,8.326072201086298,0.095382824206498
7.943435999999999,8.348520305751071,0.0948896925303799
7.945823999999999,8.370316784109786,0.0943911552882216
7.948204,8.388109060975667,0.0939265447887704
7.9506,8.407623899334245,0.0934568756567272
7.952988,8.429280608066103,0.0929634066809351
7.955367999999999,8.447072884931984,0.0924994747873425
7.957771999999999,8.456856758812199,0.0921007297443629
7.960156,8.463707366386219,0.091724558251952
7.962552,8.463852823586686,0.0914250857716118
7.964956,8.462647806346796,0.0911481071476305
7.967339999999999,8.459300918733629,0.0908918217610475
7.96972,8.450599355187267,0.0906875918996519
7.972124,8.441338713133463,0.0905055099781304
7.974512,8.425372920706113,0.0903976729290665
7.976888,8.407265257905483,0.090310293212209
7.979296000000001,8.386503868052376,0.0902311941432314
7.98168,8.36802411819941,0.0901250374633446
7.98406,8.351778786518336,0.0900266774780968
7.986455999999999,8.335253915583541,0.0899391460148202
7.988843999999999,8.324316038007417,0.0898232664066009
7.991224,8.313098621177572,0.0897183075581068
7.993619999999999,8.303184456959844,0.0896261532530764
7.996008000000001,8.29485308460795,0.0895357507947654
7.998387999999999,8.28531100744256,0.0894609047625168
8.000792,8.279353822889421,0.0893733151196244
8.003176,8.272977329455703,0.0893021487758083
8.005555999999999,8.271256663820875,0.08920809645377
8.007952,8.270699481171306,0.0891327899562689
8.010335999999999,8.273355104081649,0.0890271698076369
8.012716000000001,8.275731187738273,0.0889327308045531
8.01512,8.284765199940205,0.0888021573955174
8.017508,8.299945284008249,0.088622480692354
8.019887999999998,8.319269339195985,0.0884095110749971
8.022283999999999,8.344739466249832,0.0881470462619492
8.024671999999999,8.371280528490319,0.0878761312519589
8.027052000000001,8.401406483343058,0.0875943198451575
8.029447999999999,8.43525710043491,0.0873001322805558
8.031832000000001,8.465662594541367,0.0870125885662311
8.034232,8.497278793461327,0.0867113725393758
8.036628,8.524378934209253,0.0864282298238651
8.039012,8.552550010143818,0.0861380036066565
8.041391999999998,8.581280164585825,0.0858281069316708
8.043796,8.609218923094913,0.0855166560697308
8.04618,8.641441422350555,0.0851695681429293
8.048559999999998,8.671801590486641,0.0848335014609285
8.050956,8.70658526899614,0.0844574833603954
8.053344,8.743790357132639,0.0840565495709062
8.055724000000001,8.77969219265702,0.0836428192409013
8.058128,8.814802632248483,0.0832296449758822
8.060512,8.853405416653583,0.0827822583968134
8.062892000000002,8.885210502886514,0.0823742433376285
8.065287999999999,8.915944653932806,0.081977964971534
8.067671999999998,8.939741337180068,0.0816227028164902
8.070068,8.964097098934772,0.0812503483326882
8.072472000000001,8.98524005512956,0.0809040629542015
8.074860000000001,9.004380910577932,0.0805712822488078
8.07724,9.01337149266736,0.0803041584060879
8.079643999999998,9.024224405876344,0.0800298649529525
8.082028000000001,9.03493754945847,0.0797618399996291
8.084408,9.043648592294176,0.0795049761195761
8.086811999999998,9.049286599196828,0.0792690970444115
8.089196000000001,9.052642966099343,0.0790555101502407
8.091576,9.059351908188631,0.0788122792641829
8.093979999999998,9.062848044718004,0.0785951596518109
8.096367999999998,9.065413015687602,0.0783817183085911
8.098748,9.063694245910645,0.0782017721557692
8.101144000000001,9.053687533894298,0.0780769628973756
8.103528,9.045403383370648,0.0779507020257595
8.105908,9.034977362473722,0.077840412821328
8.108304,9.018265500083826,0.0777735466748634
8.110692,9.004626673626984,0.0776870759536432
8.113071999999999,8.991407156050723,0.0775853115363083
8.115468,8.985544415154072,0.0774322440865072
8.117856,8.977120495003563,0.0773100787042967
8.120235999999998,8.97097821485319,0.077166849811986
8.122632,8.965115473956539,0.0770136628858007
8.12502,8.965818113806577,0.0768074651241958
8.127416,8.969593789589673,0.0765835695368896
8.129812000000001,8.970296429439712,0.0763780863741125
8.132196,8.9775172282082,0.0761529804038876
8.13458,8.982875695857132,0.0759327386953213
8.136983999999998,8.992238364998897,0.0756920155099022
8.139368000000001,8.997317293394106,0.0754827560860837
8.141752,9.002675761043037,0.0752638844126791
8.144144,9.008965394251746,0.075042753338269
8.146532,9.013392696340896,0.0748262968577063
8.148916,9.02461769660222,0.0745797601113694
8.151312,9.034911531303765,0.0743366656377632
8.153696,9.049069797871278,0.0740779578043107
8.156075999999999,9.063367834065655,0.0738125314548494
8.158476,9.077665870260034,0.0735484599061485
8.160864,9.09033389276033,0.0733126581626089
8.163243999999999,9.098438635260353,0.073118102151318
8.165648000000001,9.10361011145418,0.0729358333637012
8.168032,9.10850204839429,0.072763630907488
8.170411999999999,9.11232305014776,0.0725990293572203
8.172820000000002,9.115724743020648,0.0724498002785403
8.175204,9.113259903281149,0.0723257447448852
8.177584,9.115218573915056,0.0721673282709724
8.179984000000001,9.11145048156344,0.0720290440107791
8.182368,9.11075542514488,0.071873226242356
8.184752,9.10619593686034,0.0717323916465372
8.187148,9.105640650068638,0.07157222031381
8.189536,9.105085363276936,0.0714121786410807
8.191915999999999,9.101736579805898,0.0712591357802977
8.194312,9.103323163387472,0.0710845768639877
8.1967,9.10346672473007,0.0709007043230544
8.199079999999999,9.10281889013975,0.0707142530402565
8.201484,9.101659198870232,0.0705163920541719
8.203872,9.105295105026467,0.0703024908783762
8.206252,9.105857975249648,0.0701047827921651
8.208652,9.10576921916677,0.0698995463471019
8.21104,9.109033038270669,0.0696689692757321
8.21342,9.120584799613953,0.0693934597804051
8.215824000000001,9.13241610021096,0.0691088319899328
8.218208,9.14624950155438,0.0688157739535015
8.220588,9.155427075098912,0.0685326425029904
8.222995999999998,9.16753791494964,0.0682380398172898
8.225380000000001,9.176435949240448,0.0679648955907176
8.22776,9.189617724277811,0.0676652604110599
8.230156000000001,9.20293926894204,0.0673616801446384
8.232544,9.2173317487929,0.0670516500227711
8.234924,9.229861897524206,0.0667468539888853
8.23732,9.241181341442012,0.0664534949570544
8.239704,9.256365217225794,0.0661484569450341
8.2421,9.26968676189002,0.0658484987692854
8.244495999999998,9.284870637673803,0.0655465206795542
8.246884000000001,9.30284801013692,0.0652403391039559
8.249264,9.317193268159537,0.0649675201426464
8.251660000000001,9.33116643912982,0.0646796548422515
8.254044,9.34742125010024,0.0643744841596638
8.256428,9.36502653551102,0.0640543338418514
8.258824,9.377556684242323,0.0637564847670019
8.261212,9.379936559614686,0.0635028158923511
8.263604,9.382316434987048,0.0632494452287533
8.266008,9.384696310359413,0.0629968828689387
8.268391999999999,9.396807150210137,0.0627166572548312
8.270772000000001,9.40970938599378,0.0624403345454359
8.273176,9.42540511845676,0.062160409633265
8.275559999999999,9.435885944613409,0.061906128980225
8.277940000000001,9.449951663382308,0.0616525824099124
8.280344,9.464948547710986,0.0613985939461163
8.282727999999999,9.479665892785944,0.0611540445571973
8.285108000000001,9.498387439353737,0.0608962777080333
8.287512,9.516317589988606,0.0606370075166509
8.2899,9.534759597302678,0.0603905091472937
8.292279999999998,9.552130669430108,0.0601512820329339
8.294675999999999,9.566568475251346,0.0599208313442668
8.297063999999999,9.58556956107286,0.0596596332586473
8.299444000000001,9.604942733946706,0.0594167159508516
8.301839999999999,9.625898698686392,0.0591816284809391
8.304227999999998,9.648157916038192,0.0589631439424728
8.306608,9.675212730815744,0.058735213965432
8.309012,9.709344783019189,0.0584823722803974
8.311399999999999,9.745059627088466,0.0582375274968904
8.313780000000001,9.778632600784466,0.0580041881937973
8.316184,9.80312623630816,0.0578029726920628
8.318572,9.828551037391634,0.0576020025356799
8.320951999999998,9.850251176235997,0.0574053150696476
8.323348,9.877957617319607,0.0571908666215868
8.325736,9.899797525790827,0.0569914055662336
8.328116000000001,9.918424628702134,0.0568076123432172
8.33052,9.93747104049402,0.0566114984832779
8.332908,9.954655121166349,0.0564184956615123
8.335287999999998,9.96876616590562,0.05623681774398
8.337684,9.983436289152335,0.0560388693305189
8.340072,9.996244081279494,0.0558429736011445
