Time,Force,Position
7.457883999999999,5.508011303279542,0.1619616732345972
7.460272000000001,5.562846148360631,0.1616141155729558
7.462651999999999,5.604648467320561,0.1612601092847711
7.472228,5.6198738773589785,0.160856001796339
7.491344000000001,5.589526980227976,0.1607587743251684
7.49374,5.599023731422994,0.1606553050564161
7.496128,5.607402325603129,0.1606340136049849
7.498508,5.621787222022516,0.1604765610265943
7.500903999999999,5.64310958624093,0.1601613882904916
7.503291999999999,5.65698262598112,0.1599939973461325
7.505672,5.672206140161666,0.1597774584821081
7.508068000000001,5.693575726208324,0.1594220586702821
7.510456,5.7112206500158695,0.1591366050422575
7.512835999999999,5.725885085688976,0.1589681802691976
7.515239999999999,5.754517004758758,0.1585423885594661
7.517627999999999,5.78724567311999,0.158065257752398
7.520008,5.821417363720198,0.1575858602939749
7.522412,5.859453486186381,0.1570506764819757
7.5248,5.900981953466198,0.1564201340565154
7.52718,5.938645988880044,0.1558603075679684
7.529583999999999,5.971793966121856,0.1553702989436043
7.531972,6.01108801522978,0.1547499075723049
7.534351999999999,6.050429286165946,0.1540862024643866
7.536748,6.0885145263182405,0.153379937142211
7.539136,6.124365348298641,0.1526892896336781
7.541516,6.160635479159621,0.1519770837514875
7.543919999999999,6.195462587781624,0.1512728903594382
7.546308000000001,6.225773638231598,0.1506537502065453
7.548687999999999,6.252407248270701,0.1500562141167206
7.551092,6.278761319056083,0.1494682828754584
7.553479999999999,6.310562613573275,0.148805463543362
7.55586,6.338219936970774,0.1482457824525768
7.558252,6.371651245182046,0.1475465710930845
7.560636,6.402755587422807,0.146819534747128
7.563019999999999,6.4216150077595895,0.1462986178518901
7.565423999999999,6.443687233656288,0.1457161494088751
7.567808,6.467948551754506,0.1450532688634385
7.570187999999999,6.4822465879488815,0.1445336875150849
7.572584,6.493751127463924,0.1440570428445198
7.574972,6.511913595524273,0.1434761205597721
7.577352,6.540877963249626,0.1427192402841718
7.579756000000001,6.56374348093711,0.1420407911835272
7.58214,6.583443414892924,0.141383891822434
7.660996,6.202963449659296,0.1409701070261513
7.663376,6.207759047085048,0.1408955204699042
7.665767999999999,6.214696514884077,0.1407769931743274
7.668156000000001,6.222472600444267,0.1406075093967382
7.670535999999999,6.230388455631317,0.1404294271884228
7.672935999999999,6.243052686415876,0.1402195653085819
7.67532,6.261675997611443,0.1399498057261211
7.677703999999999,6.279228373620373,0.1397019338804087
7.6801,6.299993555189214,0.1393867128761985
7.682488,6.316195456757784,0.1391787860842472
7.684883999999999,6.333281302057888,0.1390036254069558
7.68728,6.352089708850689,0.1388078030547162
7.689664,6.366661596725178,0.1386529777591411
7.692044,6.374994864934941,0.1385779651055362
7.694448,6.3861216298240375,0.1384630562035505
7.696836,6.39925049545955,0.1383106749980094
7.699219999999999,6.417082410722199,0.1380439915966738
7.701616,6.431049894118873,0.1378412127997264
7.704,6.439011075276298,0.1377458150082532
7.706383999999999,6.448275509045837,0.1376583425346825
7.715948,6.467174567779386,0.1376354027391623
7.718331999999999,6.473877822295068,0.1376190543551021
7.727884,6.482675725355785,0.1376055990974739
7.730287999999999,6.486540157221758,0.1375468692150473
7.732672,6.492174372408671,0.137427361106324
7.735052,6.497436500543246,0.1372876140605763
7.737455999999999,6.508425391663351,0.137064445865316
7.739844000000001,6.523138945022571,0.1367927971742659
7.742223999999999,6.535710628008513,0.1365630212121804
7.744628,6.553077908420207,0.1362654966501864
7.747015999999999,6.568023779204903,0.1360264449827713
7.749396,6.588184556295931,0.135697362350961
7.751791999999999,6.612349534879794,0.1353038962734644
7.754176,6.63507149122468,0.1349130630760066
7.756556000000001,6.66193741868926,0.134458966230362
7.758959999999999,6.6889431157807016,0.1339943915387521
7.761347999999999,6.717299287312501,0.1335015223076751
7.763727999999999,6.745143602165102,0.1329985434684895
7.766124,6.773127686644565,0.1324937308726643
7.768512,6.802322475937526,0.1319673730321471
7.770891999999999,6.839106359335573,0.1313481083744658
7.773295999999999,6.880965379413093,0.1306562521906068
7.775683999999999,6.923103938744334,0.129950402977396
7.778064,6.961517835836459,0.1292942297637851
7.780460000000001,7.000723128861504,0.1286448072619923
7.782848,7.0447240193123015,0.1279417417666705
7.785227999999999,7.086350721964344,0.1272558637290057
7.787628000000001,7.127465567937188,0.1265687337127826
7.790016,7.173283463537167,0.1257976135729061
7.792395999999999,7.215656236151754,0.125061296991031
7.794792,7.25965902246042,0.1242823271902945
7.797175999999999,7.296724340970058,0.1235975920563932
7.79956,7.332346637240719,0.122916331957996
7.801963999999999,7.370902199817575,0.1222054384838889
7.804348,7.402240755341682,0.1216021918769391
7.806728,7.437723281985482,0.1209437393455264
7.809131999999999,7.468270441576672,0.1203492780396271
7.811519999999999,7.495604795607946,0.1198010424472054
7.813896000000001,7.519866113706164,0.1192966286763347
7.816304,7.542776957364023,0.1188260598394676
7.818687999999999,7.559961038036352,0.1184219677375509
7.821067999999999,7.572209751656068,0.1180794910090044
7.823464,7.586041257141622,0.1177342932258679
7.825852,7.603737194493148,0.1173491743362946
7.828231999999999,7.615706368859145,0.1170242378423347
7.830635999999999,7.622879945799389,0.1167517878002962
7.83302,7.632567480165249,0.1164689916172116
7.835399999999999,7.638762669717471,0.1162457949440708
7.837803999999999,7.638672017776724,0.1161072178109571
7.840191999999999,7.6372308913956175,0.1159967975199874
7.842572,7.6363016216937085,0.1158982454505587
7.844964,7.642309819790829,0.1157225504875255
7.847352,7.650692205686703,0.1155433089222471
7.849747999999999,7.653999454903105,0.1154245822456481
7.852144,7.660659279306283,0.1152554961075378
7.854532,7.665317002963043,0.1151102971973838
7.856912,7.675561719978473,0.1149182904557438
7.859312,7.695956710352849,0.1146117208440045
7.861695999999999,7.719424736660279,0.1142700629054444
7.86408,7.739168100728596,0.1139583579015311
7.866476,7.759563091102972,0.1136515382464947
7.868868,7.782891347783542,0.1133162639101881
7.871248,7.804357273344556,0.1129977036578232
7.873644,7.822470623718793,0.1127297003057539
7.876031999999999,7.841235600399088,0.1124642546218162
7.878412,7.861303829691501,0.1122088962437052
7.880816,7.879369958237495,0.1119777787465736
7.923827999999999,7.764668561508352,0.1118955078899862
7.926215999999999,7.751913678783046,0.1118821027990212
7.928596,7.739438335311459,0.1118555904504068
7.930991999999999,7.728825322959429,0.111814484949149
7.93338,7.722216512100232,0.1117315556158259
7.935759999999999,7.716678636427676,0.1116351019917689
7.938156,7.718217998181008,0.1114631817156434
7.940544,7.7306990292262014,0.1111832447791968
7.942924,7.745881009152114,0.1108511963349454
7.94532,7.770421866504052,0.1104135638419393
7.947707999999999,7.798594838296487,0.1099178461439061
7.950088,7.827606427850083,0.1093843953886233
7.952483999999999,7.860250131844174,0.1087915897231514
7.954871999999999,7.898388281398319,0.1081241669858686
7.957256,7.93973923651238,0.1074209313325753
7.959651999999999,7.97550319826777,0.1067675023542515
7.962039999999999,8.007822037037768,0.1061314949638057
7.964436,8.035345278382014,0.1055364881893259
7.966831999999999,8.06314805897998,0.1049317338447357
7.969219999999999,8.091090609204807,0.1043211984189415
7.9716,8.118893389802773,0.1037227530727389
7.974004,8.145392917788623,0.103115575866052
7.976392,8.169098949095138,0.1025287710712125
7.978772,8.194574763722594,0.1019024133184083
7.981167999999999,8.218607556111074,0.1012751672438693
7.983555999999999,8.242128491820356,0.1006391071520534
7.985936,8.262855930850304,0.1000263841870261
7.988332000000001,8.272781470215246,0.0995078742593836
7.99072,8.28405748402055,0.098968282235247
7.993099999999999,8.289327195586603,0.0984850514143392
7.995503999999999,8.290452936032962,0.0980418786884125
7.997891999999999,8.2912991372256,0.0976099872959089
8.000271999999999,8.290655094351019,0.097207117315471
8.002668,8.290662677782494,0.0968120924918783
8.005056,8.285595124534499,0.096461922149325
8.007435999999998,8.279596405726727,0.0961163432526777
8.009832,8.273457917292092,0.095775263408174
8.01222,8.269321529603875,0.0954160803688629
8.014600000000002,8.2638346674753,0.0950795946994172
8.017004,8.257928496466143,0.0947599259630083
8.019388,8.247366497658096,0.0944670375674182
8.021767999999998,8.236245420342607,0.0941966248305808
8.024176,8.226846904519816,0.0939206712348711
8.02656,8.21567860537608,0.0936847936254397
8.028944,8.203671688471188,0.0934833098318682
8.03134,8.192456167499214,0.0932821131131685
8.033728,8.182823438393074,0.0930822152594184
8.036112,8.175704666712548,0.0928775023780827
8.038516000000001,8.166676342084223,0.0927180670475997
8.0409,8.15629754301554,0.0925804811144956
8.04328,8.151645506932388,0.0924065910572302
8.045684000000001,8.150718133088347,0.0922130680425465
8.048072000000001,8.152584255923642,0.0920050152308708
8.050452,8.1533794435723,0.0918084818478499
8.052848000000001,8.159621854952768,0.0915885618702015
8.055232,8.16716751894535,0.0913813496224489
8.057611999999999,8.178949701856242,0.0911675119300888
8.060016000000001,8.193385611819611,0.090945857245688
8.062404,8.20647104734262,0.0907451227499099
8.064784,8.220627418052267,0.0905340009025405
8.06718,8.238228911747308,0.0903149422926803
8.069568,8.2594152980546,0.0900836944681886
8.071947999999999,8.277388878801979,0.0898828153080296
8.074352000000001,8.297364560295772,0.0896679521390761
8.076740000000001,8.318411176976207,0.089443260275573
8.07912,8.339969650335835,0.0892327546097658
8.081516,8.355382051829356,0.0890720241850328
8.083904,8.37386748925593,0.088886679522407
8.086284,8.391421761122729,0.0887056758889849
8.088676,8.411117903362802,0.0885037911551285
8.091064,8.426670074483184,0.0883383701262388
8.09346,8.43807827448387,0.0882089300675889
8.095856000000001,8.44748437373814,0.0880948160018114
8.098244000000001,8.454888372245993,0.0879955172762166
8.100624,8.45963864370137,0.0879046889350408
8.103027999999998,8.467322181462942,0.0877955195754814
8.105412000000001,8.47235199217204,0.0876945528662103
8.107792,8.479383903627557,0.0875806238779474
8.110195999999998,8.489628620642987,0.0874373769107966
8.112583999999998,8.50345823027067,0.0872836784688055
8.114968000000001,8.517008300644633,0.0871412541353687
8.117367999999999,8.527764874339262,0.0870122487091463
8.119755999999999,8.546529851019558,0.0868291352706933
8.122136000000001,8.566086223632773,0.0866491203146605
8.124531999999999,8.583500725872709,0.0864879404841724
8.126919999999998,8.595979861060034,0.0863576525350885
8.1293,8.615536233673247,0.0861770652099691
8.131695999999998,8.632810966286325,0.0860213426244065
8.134084000000001,8.652879195578736,0.0858536414152256
8.136464,8.675601151923622,0.0856804018060579
8.138860000000001,8.702327309761344,0.0854814844847989
8.141248000000001,8.733849065024815,0.0852585988547577
8.143628,8.766162216221204,0.0850376048776515
8.146031999999998,8.80033769853715,0.0848091542497927
8.148419999999998,8.833302476039599,0.0845952551525741
8.1508,8.863333987235851,0.0843996970737392
8.153196000000001,8.894296663991883,0.0842009999930415
8.155584000000001,8.918042333695166,0.0840560889859915
8.157964,8.94686314007792,0.0838797061774085
8.16036,8.971028118661781,0.0837233415871944
8.162748,8.995752175753085,0.0835473320622527
8.165128,9.020336463217529,0.0833766141151974
8.167532000000001,9.04091654918914,0.0832329280290548
8.169920000000001,9.052836605869024,0.0831316396440564
8.1723,9.066107136989263,0.0830113280938402
8.174696,9.08338186960234,0.0828657442844312
8.177084,9.09893404072272,0.0827237908070462
8.179464,9.11611622553718,0.0825534338156606
8.181864000000001,9.131995157739524,0.0823709484468698
8.184248,9.148293398822448,0.0821754968354489
8.186632,9.161798143226036,0.0819916137318958
8.189028,9.169855663897817,0.0818239609269024
8.191416,9.17940342863682,0.0816340315466776
8.193812000000001,9.186157696696483,0.0814541024795781
8.196207999999999,9.194122669569646,0.0812608382961811
8.198595999999998,9.202506951323388,0.0810529471392862
8.200976,9.211170772330853,0.0808359802269566
8.20338,9.225329038898368,0.0805728259462015
8.205767999999999,9.232549837666856,0.0803493230240832
8.208148000000001,9.240981341248844,0.0801128577271493
8.210548,9.244337708151358,0.0799066093247229
8.212931999999999,9.246390822441755,0.0796868744297223
8.215316000000001,9.24499881374676,0.0794697902273297
8.217711999999999,9.251894747291155,0.0791967818686671
8.220099999999999,9.260141155275909,0.0789067163281332
8.222480000000001,9.26880687214124,0.0786030347684595
8.224875999999998,9.281616560126269,0.0782754781734728
8.227263999999998,9.292284377738016,0.0779643118779449
8.229644,9.304814526469324,0.0776487547927167
8.232043999999998,9.31254907777488,0.0773536584046525
8.234428000000001,9.320702937961013,0.0770447569147229
8.236812,9.332860999639983,0.0767154591078698
8.239208000000001,9.3390127590797,0.0764172902217264
8.241596000000001,9.347306388892695,0.0761035828513879
8.243976,9.354808622772772,0.0757879809007815
8.246372000000001,9.361379691093072,0.075475319934586
8.24876,9.367159363480454,0.0751614968547857
8.251144,9.368143438442084,0.0748660927512553
8.253540000000001,9.36926728303057,0.0745655673656648
8.255928,9.373464163552116,0.0742490068879505
8.258323999999998,9.386880151872829,0.0738815049998734
8.26072,9.405883133552209,0.0735005227590192
8.263107999999999,9.429681712657342,0.0731028761431766
8.265488000000001,9.452129817322117,0.0727243586834227
8.267888,9.472296281986752,0.0723659021711266
8.270275999999999,9.488318775531695,0.0720310883407876
8.272656000000001,9.494982391650607,0.071751335946113
8.275051999999999,9.499783676649969,0.0714754553849946
8.277439999999999,9.498438889783218,0.0712321473887102
8.27982,9.497605959595663,0.0709999386053616
8.282219999999999,9.493001145340756,0.070807126288672
8.284607999999999,9.486394230339428,0.0706240146889522
8.286988000000001,9.483651747204076,0.0704262723354259
8.289387999999999,9.483842530374917,0.0702177324506457
8.291775999999999,9.484824709478676,0.0700115721280894
8.294156000000001,9.484735953395798,0.0698118861746494
8.29656,9.48529882361898,0.0696197072221978
8.298943999999999,9.487444485707996,0.0694318531867278
8.301327999999998,9.491033170035989,0.0692537803126946
8.303723999999999,9.488196243244149,0.0691169011599798
8.306107999999998,9.479213244586196,0.0690117880579479
8.308492000000001,9.466226044435407,0.0689243067897173
8.310887999999998,9.45109697391135,0.0688498809957305
8.313272000000001,9.436107673014147,0.0687706469491484
8.315652,9.425913969542698,0.0686769113351827
8.318055999999999,9.4217265683105,0.0685577461458996
8.320443999999998,9.4199605767053,0.0684157227745762
8.322828000000001,9.424061117712489,0.0682531154608034
8.325228,9.434447500212649,0.0680560890535297
8.327615999999999,9.447395061966668,0.0678328484404604
8.329999999999998,9.465045673347824,0.0675698648611446
8.332396,9.481904888796056,0.0673047355383997
8.334783999999999,9.499043643498013,0.0670312000467572
8.337164000000001,9.511247031147354,0.0667767465182709
8.339568,9.521727857304,0.0665212222881727
8.341956,9.535002180139982,0.0662605067905214
8.344335999999998,9.546693711110128,0.0659947747028486
8.346732,9.562529213199966,0.0657096896272378
8.34912,9.57720123230455,0.0654059428760441
8.351500000000001,9.595645135476488,0.0650651013682281
8.353895999999999,9.615439513088788,0.064709642083017
8.356288,9.63472203402189,0.0643428746860513
8.358664000000001,9.652142223835432,0.0639791057101713
8.361072,9.667839852156282,0.0636149026522693
8.363456,9.67809025674532,0.0632569966803457
8.365835999999998,9.6864783302148,0.0629042814621809
8.36824,9.6968685044307,0.0625441297898643
8.370624,9.70539634752704,0.0621890255272255
8.373003999999998,9.712993025063604,0.0618372245699082
8.375399999999999,9.71937899778667,0.0614965487376668
8.377783999999998,9.726835905696374,0.0611521003415179
8.380175999999999,9.735084209538996,0.0608110312970718
8.382572,9.744263678941396,0.0604697900439756
8.384955999999999,9.755724788343931,0.0601131231801084
8.387336000000001,9.775054531105278,0.059736826741528
8.38974,9.79294125162765,0.0593507397433258
8.392128,9.810548432896294,0.0589733157999835
8.394507999999998,9.82657282229911,0.058592156102316
8.396912,9.844180003567756,0.0582185593961682
8.3993,9.861228106328962,0.0578630637166737
8.401679999999999,9.876925734649811,0.057521799826756
8.404076,9.89020195334366,0.0571987920123435
8.40646,9.905620042410789,0.0568654521336403
8.408840000000001,9.920618822597335,0.0565448532154224
8.411244,9.93734016427658,0.0562269862898579
8.413632,9.9549926715156,0.0559101887700895
8.416008000000001,9.973157035433818,0.0556062529980121
8.418403999999999,9.988108593792123,0.0553176372655137
8.420791999999999,10.00156990808321,0.0550475860233791
8.423188,10.014891452747436,0.0547822349985864
8.42558,10.022578782224748,0.0545501155486459
8.427968,10.030126342075198,0.0543225374105431
8.430347999999999,10.038605067485427,0.0540954845062718
8.432744,10.048526815134634,0.053880654170731
8.435132,10.047506893491978,0.0536936843078492
8.437511999999998,10.049932094834713,0.0535133658017686
8.439916,10.054219627297003,0.0533321356718614
8.4423,10.054875045318798,0.0531773406228863
8.444679999999998,10.053388592967318,0.0530318856256674
8.447084,10.052973075802475,0.0528820431382635
8.449472,10.054280120130333,0.0527354700515539
8.451851999999999,10.062524632257212,0.0525737701824447
8.454256,10.071420770690157,0.0524203490102148
8.456644,10.081387844309734,0.0522624490935138
8.459024,10.089073277929176,0.0521175437628216
8.461428000000002,10.091823344496008,0.0519828626866061
8.463812,10.092990619197002,0.0518408084606781
8.466196,10.095228829084634,0.0516939822752549
8.468592000000001,10.093742376733154,0.0515480187053307
8.470976,10.093326859568313,0.0513978326896442
8.47336,10.094122047216969,0.0512383684780342
8.475756,10.093846299678988,0.0510832723841647
8.478144,10.089286811394452,0.0509459348733459
8.480523999999999,10.08072312161708,0.0508179839106498
8.482928000000001,10.077886194825243,0.0506837248316419
