Time,Force,Position
7.124512,5.306118582002965,0.1659553007736625
7.126892000000001,5.354584517081811,0.1650747827222425
7.129288,5.400536494735042,0.1642299506455758
7.131676,5.440389622350407,0.1634784006910005
7.134056,5.4787997277267975,0.1627331521596526
7.136451999999999,5.513113083811734,0.1620383536862021
7.138839999999999,5.54291038172464,0.1614359489889008
7.14122,5.577083968182718,0.1607661281252478
7.143624,5.6154940735591055,0.1600190874708806
7.146007999999999,5.652646252293752,0.1593518825991035
7.148388,5.6920328492002925,0.1586864485745956
7.150784000000001,5.741662267264395,0.1578349563194671
7.1531720000000005,5.790080980514999,0.1570314625723586
7.155568,5.840082485631438,0.1562249063584687
7.157964000000001,5.889664681867297,0.1554597194702695
7.1603520000000005,5.941248978849572,0.1546816754427099
7.162731999999999,5.985151633928146,0.1540296024475116
7.165128,6.027518718969125,0.1533478635100665
7.167516,6.07994352957043,0.1523897723490778
7.1698960000000005,6.1202631878946185,0.1516631473062342
7.172292,6.149408859501468,0.1511613395207082
7.17468,6.166449378831198,0.1508731051953298
7.1770640000000006,6.185771538161065,0.1505287984635279
7.17946,6.212403252342299,0.150070638045385
7.181844000000001,6.244621959882202,0.1495286626159593
7.18424,6.285780235967552,0.1488263482519268
7.186635999999999,6.3261471161199845,0.1481263435426602
7.189024000000001,6.360927002913745,0.1475182208102845
7.191404,6.398128299334504,0.146849227070023
7.193803999999999,6.445806630196172,0.1459307936059468
7.196188,6.486222628034716,0.1450810314733031
7.198568000000001,6.515092552103582,0.1443952475254792
7.200971999999999,6.539446418000417,0.1437661820044141
7.203360000000001,6.559656312777557,0.1432203626760829
7.272647999999999,6.299596923827126,0.1428375137394432
7.275032,6.295641840020405,0.1427356110194563
7.277416,6.290987908079384,0.1426758525831877
7.279812000000001,6.2898716469223706,0.1426151081319734
7.2822,6.294434926922644,0.1425103318201243
7.284584,6.301000307669337,0.1423698925860465
7.286980000000001,6.307193601363691,0.1422096755897053
7.289368,6.315388995804461,0.1420122716699192
7.291747999999999,6.320092045431595,0.1418988004486957
7.294144,6.327448822111206,0.1417527519990626
7.296532,6.336994690992335,0.1415198460281505
7.298927999999999,6.348822199873603,0.1412356115277122
7.301324,6.365957162859819,0.1408866885269276
7.303712,6.380950255472758,0.1405783770430103
7.306092,6.3935219384587,0.1403323106584902
7.308496000000001,6.410237592564336,0.1400072240335579
7.310884000000001,6.429746743349306,0.139648275435499
7.313263999999999,6.447625880440198,0.1393448719502094
7.31566,6.472162946076398,0.1389422569552549
7.318048,6.50163537876521,0.1384680142978453
7.320431999999999,6.530363637349346,0.1379583171553136
7.322836,6.5517823410821165,0.1375439668158383
7.325223999999999,6.574551519255247,0.1370940341671677
7.327604,6.598810941495597,0.1365993891135007
7.329999999999999,6.615388721832241,0.1361809436059772
7.332384,6.6286611488103535,0.135787087669125
7.334767999999999,6.643516367654303,0.1353867298087069
7.337164,6.663167183924003,0.1349206968554415
7.339552,6.683097539447423,0.1344365999179415
7.341936,6.703027894970845,0.1339545932418466
7.344332,6.7171842656804905,0.1335986809833573
7.34672,6.731200866763277,0.133253399420625
7.349100000000001,6.742843280047311,0.1329216129836491
7.351496,6.7583501251973175,0.1325323843162595
7.353884,6.774416048854764,0.1321114555661289
7.356264,6.788619641392655,0.1317171345081174
7.358659999999999,6.796677162064436,0.1314269356097509
7.361047999999999,6.805805617922853,0.1311167050144451
7.363428,6.808695454116544,0.130873962549296
7.365828,6.799712455458593,0.1308105161122169
7.368212000000001,6.789611299785761,0.1308092018644311
7.370596,6.785608994150796,0.1307498474570332
7.372992000000001,6.780815292582914,0.1306940678772438
7.375380000000001,6.77737206545539,0.1306035131172668
7.377776,6.777885817992458,0.130494749761308
7.380172000000001,6.783846794261334,0.1303261226356956
7.382560000000001,6.785431481985039,0.1301983848971774
7.384944,6.778356140417019,0.1301876505057589
7.387339999999999,6.774214065155194,0.1301351936931684
7.389724,6.767697802094615,0.1300931418145542
7.392107999999999,6.764022257541614,0.1299744553692241
7.394504,6.759275777801974,0.1298747256011937
7.396892,6.755180924368393,0.1297790519302896
7.399272000000001,6.75257631500203,0.1296417906300646
7.401668,6.753556598247921,0.1294692050077691
7.404056,6.7582615437329245,0.1292549509595818
7.406440000000001,6.767250229964483,0.1289679817781818
7.408836,6.776099146569181,0.1286887008613861
7.411224,6.788113646905551,0.1283960243117768
7.413608000000001,6.809998881347146,0.1279639048785825
7.416004,6.833374359855959,0.1274916309823127
7.418392,6.855167046498937,0.1270303089660288
7.420775999999999,6.873467388328278,0.1266363160666384
7.423172,6.893490291650316,0.1262356534365866
7.42556,6.910068071986961,0.1258618711072208
7.427943999999999,6.924364212323469,0.125534146494512
7.43034,6.945038741951564,0.1251432978311531
7.432728,6.972371200124969,0.1246704026614586
7.435108,6.9963510831115965,0.1242591615503576
7.437508,7.024847024270256,0.1238066788061041
7.439896,7.054646218041031,0.1233668872548861
7.442279999999999,7.086167973304504,0.122916663907655
7.444676,7.1204832252473125,0.1224404088816743
7.447064,7.1533082331229,0.1220080840899488
7.449444000000001,7.181617182826456,0.1216215786963708
7.45184,7.205921931037178,0.1212920226004539
7.454224000000001,7.227013873687984,0.1210140890671451
7.456615999999999,7.249735830032871,0.1206931859403298
7.459012,7.274087800071837,0.1203306376370843
7.461396,7.294854877498549,0.1200025236500562
7.463792000000001,7.31655312048504,0.1196683933659024
7.466195999999999,7.337180428284893,0.1193517276030039
7.46858,7.365955908697273,0.1189301645325029
7.470960000000001,7.388585317243543,0.1185921546372323
7.473356,7.413868452842286,0.1182338244666103
7.475739999999999,7.438360192508113,0.1178779819081807
7.47812,7.460337974748325,0.1175396417189661
7.480524,7.480453425868979,0.1172205782543816
7.482912,7.507274027363185,0.11679956061139
7.485292,7.531161362551196,0.1164141491528028
7.487696000000001,7.55481638031373,0.1160074020541254
7.49008,7.573163943971314,0.1156366636277388
7.49246,7.585924514270228,0.1153165291371476
7.494864000000001,7.596962523076447,0.1150065790434874
7.497248,7.610794028562,0.1146729038509222
7.499628,7.625044842928133,0.1143198504087367
7.502032000000001,7.645581498787239,0.1138882984846873
7.50442,7.666350472071821,0.1134849942263269
7.506799999999999,7.684558266102545,0.1131324254831438
7.509196,7.70248652087955,0.1127937681624613
7.511579999999999,7.719623379723636,0.1124592888794388
7.513964,7.736900008194582,0.112118952281923
7.516368000000001,7.750451974426415,0.1118137918224626
7.518752,7.76363185360591,0.1114883876002272
7.521132000000001,7.77429777535979,0.1111729764770834
7.523535999999999,7.787664645994388,0.1108057314756869
7.52592,7.798098250322791,0.1104679242187256
7.528300000000001,7.809742559464694,0.1101109110237539
7.530703999999999,7.816171962300263,0.1098199173422043
7.533092000000001,7.824603465882249,0.1095091636199007
7.535471999999999,7.831404955770156,0.1092381113078422
7.537868,7.844584834949652,0.1089227157653479
7.540252,7.861629145995121,0.1085715647384375
7.542632,7.880675557787006,0.1082002838290336
7.545027999999999,7.893855436966501,0.1078841999611584
7.547415999999999,7.906755776892275,0.1075813549563751
7.549796,7.913649814578799,0.1073425668242397
7.552192000000001,7.915888024466433,0.1071387695405938
7.55458,7.919476708794424,0.1069095288515834
7.556976,7.922925623495555,0.106686594209342
7.55938,7.922742423756192,0.1065219798805989
7.561763999999999,7.924281785509524,0.1063500790261317
7.564144,7.926333003942053,0.1061906051722563
7.566548,7.932620741292894,0.1060151039576355
7.568936,7.942353601629127,0.1058245720081094
7.571316,7.947243642711366,0.1057113378269927
7.573711999999999,7.956649741965635,0.1055705421062039
7.576099999999999,7.965776301966184,0.1054429022794606
7.57848,7.973831926780094,0.1053281957678993
7.580884,7.9778833501011714,0.1052528149643192
7.583267999999999,7.984076643795525,0.1051521883258186
7.585648,7.9884076063703215,0.1050655536456672
7.588052,7.995532065624454,0.1049603180921201
7.590435999999999,8.001585589691947,0.1048679378202968
7.592816,8.016438912678026,0.1047001678223175
7.595211999999999,8.032083631597025,0.104532443336779
7.597600000000001,8.048240207195219,0.1043761422304855
7.599979999999999,8.07333635133886,0.1041404667605911
7.602376,8.097641099549584,0.1039067036755293
7.60476,8.124227487760443,0.1036442262313451
7.60714,8.15472552966552,0.1033154935449646
7.609535999999999,8.18256984451812,0.103000890494289
7.611923999999999,8.20589810119869,0.102711077347427
7.61432,8.23057683231962,0.1024006633414404
7.616715999999999,8.253021145268656,0.1020864272335944
7.619103999999999,8.277886867844689,0.1017354274372936
7.621484,8.297956992994969,0.1014214804469406
7.623888,8.31830665739897,0.1010976190075957
7.626271999999999,8.339587487362751,0.1007676314258824
7.628652,8.364081122886445,0.1004021563338938
7.631056,8.385641492103945,0.1000617251052392
7.633444,8.405619069455609,0.0997223389279535
7.635824,8.418938718261963,0.0994311405228802
7.638224,8.435610942255094,0.0991015006090381
7.640607999999999,8.44469407214314,0.0988253696887083
7.642988,8.454476050165486,0.0985218625218738
7.645384000000001,8.462954775575714,0.0982061882705691
7.647772000000001,8.46277347169422,0.0979542167808184
7.650151999999999,8.465385664492059,0.0976867656738134
7.652551999999999,8.467997857289896,0.0974209254127774
7.654940000000001,8.470190741207155,0.097172948148373
7.657319999999999,8.474245956243971,0.0969145370498967
7.659716,8.482445142400481,0.0966177669629707
7.662104,8.49078409818385,0.0963183947122862
7.664484000000001,8.502568176952613,0.0960108770928245
7.666887999999999,8.517425291654428,0.0956791076096715
7.669276000000001,8.535634981543023,0.0953103167012728
7.671656,8.553844671431618,0.0949435806975031
7.674055999999999,8.571402735014154,0.0945710773428262
7.67644,8.58896079859669,0.0942005965049901
7.678824,8.607729566992724,0.0938144914501051
7.681220000000001,8.629291832068095,0.0934154042800391
7.683604,8.654066902703377,0.0929847384337329
7.685987999999999,8.674558232592108,0.0925975098848992
7.688384,8.69584095841376,0.0922088222578451
7.690772,8.715773209795046,0.0918431054375437
7.693167999999999,8.73849895785567,0.0914637577777791
7.695564,8.763087037035854,0.0910735695066768
7.697952,8.781808583603643,0.0907235222163731
7.700332,8.795594763118823,0.0904081046983477
7.702728,8.807798150768166,0.0900919908685877
7.705115999999999,8.818418746551673,0.0897750602122576
7.707496,8.827037241588762,0.0894735029774834
7.709896,8.826855937707268,0.0892286885346396
7.712280000000001,8.824020906773299,0.088992973206022
7.714659999999999,8.815459112853798,0.0887894962032787
7.717068,8.803684513374384,0.0886151381117985
7.719451999999999,8.790978748335188,0.0884450220446096
7.721832,8.78013531441555,0.0882659149996715
7.724232,8.766358614189718,0.0881047832911028
7.726616000000001,8.75430447545658,0.0879403445195002
7.729,8.741179401536805,0.0877855234535287
7.731395999999999,8.730708054669504,0.0876234612999935
7.733783999999999,8.72130764298884,0.087451773447191
7.736164,8.715911432801015,0.0872530297285356
7.738568,8.710515222613186,0.0870542835010592
7.740956,8.701114810932525,0.086881973989116
7.743336,8.691434859998141,0.0867198530768856
7.745731999999999,8.683757009810176,0.0865436512070881
7.748119999999999,8.676870555555128,0.0863678479511762
7.750504,8.671287353912199,0.0862049895415946
7.752899999999999,8.664865534508104,0.0860737042593886
7.755287999999999,8.65774486696971,0.0859688063122305
7.757668,8.656071423163128,0.0858437237849787
7.760067999999999,8.652116339356406,0.0857428722736148
7.762452000000001,8.652397774467996,0.0856372027325687
7.764848,8.657474807005336,0.0855056651265229
7.767252,8.661992761035238,0.0853956577851617
7.769635999999999,8.66380976618442,0.0853260324825323
7.788732,8.636902304465206,0.0852802680385066
7.79112,8.63997534039826,0.0852579759570211
7.793515999999999,8.648775139316845,0.0852075883417893
7.795912,8.660647974168487,0.0851351956072887
7.798296,8.672800348273848,0.0850527701318968
7.800676,8.689655772006343,0.0849192469606265
7.803071999999999,8.710283079806196,0.0847385902808074
7.805456,8.735194128352603,0.084524086640998
7.807852,8.763457752085788,0.0842781645453274
7.810256,8.790278353579994,0.0840254766214785
7.812639999999999,8.812303357648448,0.0837971136067299
7.81502,8.834747670597482,0.0835534873061336
7.817424,8.860963867613874,0.0832635468889185
7.819807999999999,8.888530539070626,0.0829552066009222
7.822188,8.915026275340736,0.0826553921322162
7.824592,8.941522011610848,0.0823551347040222
7.826975999999999,8.971789631948315,0.0820086601477632
7.829356,8.99926375560645,0.0816733822653546
7.831752000000001,9.03023022407822,0.0813043445823338
7.83414,9.064409498109905,0.0809095503612816
7.836519999999999,9.09421248359642,0.0805246632899625
7.838924,9.114424274231428,0.0801854062428375
7.841311999999999,9.127046970761354,0.0798801090508716
7.843687999999999,9.141020141731634,0.0795582901068459
7.846092,9.154201916769,0.0792357742688993
7.848476000000001,9.164031116619588,0.0789448332879555
7.850855999999999,9.173580777216456,0.0786659174844001
7.85326,9.18019717150713,0.0784034578272683
7.855644000000001,9.186534026544082,0.0781518207570132
7.858023999999999,9.191939716021256,0.077903367582201
7.86042,9.201489376618126,0.0776285751128998
7.862804,9.210247641282075,0.0773520321180791
7.865200000000001,9.214489847773995,0.0770857900912605
7.867603999999999,9.217289032026937,0.0768111845235222
7.869988,9.22078706441418,0.0765119382121612
7.872368000000001,9.22777744161506,0.0761806506741069
7.874771999999999,9.231275474002302,0.0758822964207328
7.877160000000001,9.23891747750924,0.0755587733657536
7.879539999999999,9.242555279523344,0.075257170382766
7.881944,9.248334951910728,0.0749424439305243
7.884327999999999,9.254254393924969,0.0746228084665479
7.886708,9.2672510733651,0.0742651253603461
7.889104000000001,9.281318687991869,0.0738986291401509
7.891492,9.29217349705872,0.0735555712860989
7.893871999999999,9.301165975006018,0.0732175259623238
7.896275999999999,9.309926135527837,0.0728583584929555
7.89866,9.31696373455696,0.0725008363456079
7.901039999999999,9.320416440973828,0.0721482171524827
7.903436,9.320284254778446,0.0718001756530083
7.905824,9.32201439970262,0.0714476456163788
7.908204,9.322161752760955,0.0710916417602369
7.9106,9.323380041005931,0.0707286163227696
7.912987999999999,9.32911438742294,0.0703591557335432
7.915368,9.336711064959504,0.0699860969938051
7.917768,9.347101239175402,0.0696078620826233
7.920155999999999,9.352276507084968,0.069259516814665
7.922536,9.361595746114228,0.0688890857395443
7.92494,9.366631244396933,0.068546271424225
7.927324,9.370595807493002,0.0682095256340555
7.929704,9.369764773163318,0.0678884714804831
7.932108,9.371587465886106,0.0675667748972645
7.934492,9.37126828823562,0.0672592837592948
7.936872,9.375744708010886,0.066938347742771
7.939267999999999,9.38129206297279,0.0666109502886213
7.941652,9.387630813867611,0.0662856912216928
7.944047999999999,9.391268615881716,0.0659910456051835
7.946452,9.392624777895682,0.0657136596099593
7.948835999999999,9.396355127708402,0.0654441765270259
7.951216,9.400737103827185,0.0651810602753489
7.95362,9.401254648079988,0.0649295327011291
7.956008,9.398000308265436,0.0647154708127215
7.958388,9.395397594756943,0.0645092882084193
7.960783999999999,9.392375572367872,0.0643178928187241
7.963168,9.3857214355383,0.064159208718749
7.965547999999999,9.374643788335316,0.0640302408813599
7.967944,9.3703638393045,0.0638805481599789
7.970327999999999,9.363942019900408,0.0637435191626605
7.972708,9.359522301242732,0.0635984366256148
7.975112,9.35682514407775,0.0634545280933136
7.9775,9.349564706912496,0.0633437334625665
7.979876,9.339231233814186,0.0632469298033149
7.98228,9.33262242295499,0.0631441080892053
7.984668,9.320938475416323,0.0630625742386149
7.987044,9.312048024556988,0.0629765649339845
7.989448,9.306230609630711,0.0628770341218943
7.991832,9.305348561757048,0.0627611347533681
7.994216000000001,9.309541650562856,0.0626247636499284
7.996612,9.314665904928438,0.0624872227298929
7.998995999999999,9.326727627093051,0.0623272496553998
8.001392,9.345726817056692,0.0621451943669546
8.003796000000001,9.37022045258039,0.0619297758613036
8.00618,9.395133396984663,0.0617024095869759
8.00856,9.417392614336464,0.0614750678518278
8.010964000000001,9.44500650762146,0.0612197713252301
8.013352000000001,9.475972976093228,0.060943244690655
8.015728,9.501864307885524,0.0606879715072616
8.018124,9.527755639677824,0.0604333280497153
8.020512,9.556720007403175,0.0601681350993591
8.022891999999999,9.587174619195748,0.059885470929841
8.025296,9.628710669907043,0.059563918923616
8.02768,9.669734863939144,0.0592303077675705
8.030059999999999,9.703309733493011,0.05890683748069
8.032464000000001,9.739957638979938,0.0585717678224057
8.034848,9.771158320735053,0.0582400519656823
8.037227999999999,9.799285966557113,0.0579216484931787
8.039624,9.827972690886616,0.0575885012116135
8.042008,9.850792882603724,0.0572707584296741
8.044388000000001,9.874172152828278,0.0569371887692457
8.046783999999999,9.89289559525394,0.0566108339407665
8.049171999999999,9.907614836186765,0.0562986461219469
8.051568,9.921123372306091,0.0559975377644207
8.053964,9.932210498798424,0.0557155458252961
8.056352,9.943577164544472,0.0554250274415833
8.058732,9.953221268797828,0.0551335903765584
8.061128,9.961794437864544,0.054847876492883
8.063512,9.968784815065424,0.0545542186743777
8.065892000000002,9.976054731520026,0.0542525555304267
8.068296,9.978529050548874,0.0539588500184074
8.070684,9.979652895137365,0.0536789148259786
8.073063999999999,9.973047875993904,0.0534123706853384
8.07546,9.9700277494627,0.0531480502006985
8.077848,9.96952158035711,0.0528894837626675
8.080228000000002,9.968084245691742,0.0526318323038837
8.082624,9.967158767705572,0.0523852305154933
8.085011999999999,9.965302124159622,0.052138497673013
8.087404,9.957159639120702,0.0519149230855625
8.089804,9.95008808926842,0.0516856932881578
8.092188,9.937941402736667,0.0514703054192643
8.094563999999998,9.92179051471208,0.0512638045936876
8.09696,9.905360087433772,0.0510655736305065
8.099343999999999,9.886927559409049,0.0508719546822472
8.10174,9.869705736197822,0.0506692439951602
8.104144000000002,9.84913133779982,0.0504831402406341
8.106528,9.821339932349067,0.0503188680657026
8.108908,9.792337822084818,0.0501627767509016
8.111312000000002,9.766920604432825,0.0500092278684747
8.113700000000001,9.74029268196733,0.0498636801142039
8.116076,9.711383119501695,0.0497301927431026
8.118472,9.682753096289783,0.0495875544105235
