Time,Force,Position
9.264512,5.246833038300977,0.1611287864783468
9.266896,5.308325811927374,0.1606062748989083
9.269276,5.357158146484951,0.1600985066404548
9.293192,5.3468246733866405,0.1600217944562866
9.319456,5.384713442794485,0.160007574467865
9.321852,5.390345762123529,0.1599913736147891
9.32424,5.401517852983,0.1599192158658182
9.326619999999998,5.422373686492591,0.1596871226224291
9.329024,5.448164887054795,0.1593424206365152
9.331411999999998,5.47917099392333,0.1588670806239093
9.333792,5.513529675978644,0.1582997346745868
9.336192,5.5459334791157815,0.1577405029919056
9.33858,5.581038231133637,0.1570914190687475
9.34096,5.615910665726015,0.1564120245507824
9.343356,5.644264941399945,0.1558710477018586
9.345744,5.675459935581452,0.1552337725187668
9.348124,5.711869836069293,0.1544749251501175
9.35052,5.750793693982748,0.1536833403608732
9.352908,5.792231509321817,0.1528741612366156
9.355292,5.825101843167779,0.1522816310264394
9.357688,5.869053615932463,0.1514529177529753
9.360076,5.91808052537662,0.1505049604346
9.362472,5.963382772581664,0.1496256337664562
9.364872,6.009895724600208,0.1487242836031301
9.36726,6.055617280685831,0.1478388794031465
9.36964,6.09486789968125,0.1470201610739184
9.372036,6.1261573375192455,0.1463235032454414
9.374428,6.151627464573092,0.1457017448184147
9.376808,6.180589936440575,0.1450055519844733
9.379204,6.205967515695805,0.1443666949349507
9.381588,6.226689267152144,0.1438036807039268
9.383968,6.245920774541263,0.1432956375702125
9.386364,6.260868541183829,0.1428829572317969
9.388748,6.278981891558066,0.1424514511933563
9.391144,6.296164076372526,0.1420346950057149
9.39354,6.307991585253793,0.1417340990400945
9.395924,6.317677223761784,0.1414824520542019
9.398304,6.327782171150355,0.1412067488988696
9.400708,6.336164557046229,0.140953989314036
9.403096,6.34831882700946,0.1405986951242833
9.405475999999998,6.351253989173525,0.1404199454215873
9.407872,6.351767741710592,0.1403026032800866
9.410256,6.356145926113632,0.1401224502899605
9.41264,6.361595045703311,0.1399233600051679
9.415044,6.3666720782406525,0.1397052016939422
9.417432,6.374774924882807,0.1394747016340427
9.419812,6.38790568637619,0.1391975321636722
9.422208,6.403131096414604,0.1389237116230468
9.424596,6.412210434586911,0.1387659114860795
9.426976,6.421150003132356,0.1386163062201971
9.429372,6.43525725615589,0.1384143953050358
9.431756,6.450295674739204,0.1382009038891677
9.434136,6.471340395561767,0.1378880740173765
9.43654,6.493083964518633,0.1375419969453083
9.438928,6.513477059035139,0.1372304086933806
9.441308,6.540388312470093,0.1368319413077614
9.443704,6.570093062584384,0.1364016690752382
9.446091999999998,6.598587107885175,0.1360022422114445
9.448488,6.626289757253046,0.1356115218983489
9.450884,6.653945184792674,0.1352664016419431
9.453268,6.682903864944419,0.1349211001234901
9.455652,6.717589308081694,0.1344971161990397
9.458056,6.75255429047269,0.1340646166163102
9.460439999999998,6.782723675437934,0.1337046558936711
9.462824,6.809772802641879,0.133437670140184
9.46522,6.837333786525022,0.1331820357210428
9.467607999999998,6.861449647422773,0.1329586055607325
9.469988,6.881748298282792,0.1327478333948483
9.472392,6.900324387650115,0.1325521007567826
9.47478,6.920483268883276,0.1323487095549239
9.498664,6.967406050493053,0.1322566567541901
9.501064,6.973552122359163,0.1321601283775104
9.505832,6.969549816724199,0.1321025841873443
9.508228,6.96522075000727,0.1321010982105489
9.510616,6.966525898477255,0.1319928241107407
9.512996,6.967738499148624,0.1318509812427083
9.515392,6.97044134388721,0.1316683361349732
9.517779999999998,6.976868850864911,0.1314425268263862
9.520164,6.9859500848950855,0.1311912447545945
9.52256,6.993960383738622,0.1309585847882876
9.524947999999998,7.00238999146274,0.1307034824331695
9.527328,7.010028203253939,0.1304514952725964
9.529728,7.018318041351196,0.1302033283953498
9.532112,7.033405577620623,0.1298623383526714
9.534496,7.045699617210712,0.1295552413806696
9.536892,7.057621569748465,0.1292273251799401
9.53928,7.067169334487463,0.1289098198886903
9.541659999999998,7.072573128106769,0.1286593052727188
9.544056,7.075183425046739,0.1284420173685901
9.546444,7.077002326053791,0.128228744296015
9.548839999999998,7.078309370381646,0.1280059024397234
9.551236,7.081199206575337,0.1277771379367271
9.553624,7.087953474635,0.1274976040923003
9.556004,7.091774476388468,0.1272560879409846
9.5584,7.090939650343047,0.1270681104825894
9.560788,7.089033889110986,0.1268979157772257
9.563168,7.085405566386228,0.1267409668126984
9.565563999999998,7.076981646235718,0.1266435146672569
9.567952,7.067394243099953,0.1265296337924494
9.570336,7.0546412562325145,0.1264278278437663
9.572731999999998,7.041516182312739,0.126306178544814
9.575116,7.0288104172735455,0.126161757688939
9.577496,7.015872334808874,0.1259901133042114
9.579904,7.001211690851506,0.1258312246558374
9.582292,6.988832686894273,0.1256291751632283
9.584672,6.979386949243239,0.1253886470040569
9.587068,6.965517701218789,0.1252254860891709
9.589455999999998,6.951788222821199,0.1250544379609002
9.6014,6.83569481739706,0.1249307493586118
9.603788,6.814468792693002,0.1248836874133593
9.606184,6.795896495041418,0.124811882495082
9.608584,6.781188629255806,0.1246898419909296
9.610968,6.770577512761645,0.1245457529114579
9.613352,6.762759892946819,0.1243703834309991
9.615748,6.758107856863666,0.1241840069367729
9.618136,6.757832109325684,0.1239608089592607
9.620516,6.754715643280124,0.123809885354509
9.622916,6.751971264286902,0.1236786181121349
9.625304,6.74731733234588,0.1236101802557062
9.630084,6.731816174769481,0.1236077456040171
9.632468,6.726975251373355,0.1235886123861993
9.634848,6.732144831709314,0.1234311167651179
9.637239999999998,6.742761635777082,0.1232218251738901
9.639628,6.758313806897462,0.1229461556791711
9.642024,6.782526007309567,0.1225668485108703
9.644419999999998,6.810602639587646,0.1221402810166856
9.646808,6.840169515932944,0.1216735474930202
9.649188,6.870527788211161,0.1212095772832885
9.651584,6.8986044204892405,0.1207907968430992
9.653972,6.925470347953819,0.1203982486862211
9.656352,6.946190203552289,0.1200942041161558
9.658748,6.96132306579209,0.1198483732037361
9.661136,6.978458028778307,0.1195777030181247
9.663516,6.991728559898549,0.1193539394051245
9.665912,7.007001191765209,0.1191065699700372
9.6683,7.031632701057895,0.1187271599021893
9.670696,7.058406080723859,0.1183171653336602
9.6731,7.088671805203457,0.1178428114612384
9.675484,7.125083601549169,0.1172847661942081
9.677867999999998,7.158701901215543,0.1167566386952143
9.680264,7.1876643730830265,0.1162792294761324
9.682652,7.2147645138309535,0.1158277794918334
9.685032,7.239350697153266,0.115394529628921
9.687428,7.265938981221994,0.1149421695170058
9.689816,7.284518862305056,0.114587916244281
9.6922,7.299513850775865,0.1142613763263422
9.694596,7.313158364806315,0.1139639376967779
9.696984,7.32386961253057,0.1136996262291421
9.699364,7.335279708389125,0.1134018509370136
9.701768,7.348040278688039,0.1130763049051612
9.704152,7.368017856039703,0.1126600631575833
9.706532,7.393210339697699,0.1121756323450286
9.708936,7.417611427422778,0.1116968653244063
9.711324,7.443223219961355,0.1111961517866867
9.713704,7.469114551753653,0.1106894203803517
9.716107999999998,7.487928646120062,0.110270275426173
9.718492,7.502738538993635,0.1098959187964308
9.720872,7.519131223733046,0.1095226920820189
9.723275999999998,7.534313203658957,0.1091739732726968
9.725664,7.550426349144648,0.1088175561122697
9.728044,7.562535293137505,0.1085014857988416
9.73044,7.573433532316862,0.1082081779213743
9.732828,7.5792566348167485,0.1079711898158446
9.735204,7.581215305450661,0.1077716298666685
9.7376,7.5881093431371855,0.1075214743733111
9.739988,7.595375467876047,0.1072889306432669
9.742368,7.602921131868628,0.1070427209123765
9.744772,7.611258191794128,0.1067952890855345
9.747156,7.620618965078024,0.1065735278992758
9.785376,7.591154115820689,0.1064244507304219
9.787772,7.598835757724393,0.1063930291982272
9.790156,7.610893688173268,0.1063399189212543
9.802112,7.651347428550707,0.1063379270282065
9.8045,7.664056985305641,0.1062895933083298
9.80688,7.677697707620353,0.1062344037778318
9.809284,7.698555436987813,0.1060975914731817
9.811668,7.717550835235716,0.1059749092580003
9.814051999999998,7.732402262363927,0.1059009062860637
9.816456,7.747905315798195,0.1058323818788486
9.81884,7.766621174792379,0.1057247005916622
9.821224,7.785476803413424,0.1056114762098412
9.82362,7.803029179422351,0.1054883632107227
9.826008,7.8191385331923025,0.1053596440000936
9.828388,7.834875799909917,0.1052147993246808
9.830792,7.855036577000946,0.1050129129890711
9.83318,7.878829468532471,0.1047571148645041
9.83556,7.902390042638519,0.1044823252245645
9.837964,7.921714097826256,0.1042233100926579
9.840348,7.939874670028737,0.1039472602357056
9.842728,7.967161802231766,0.1035490197077913
9.845132,7.993285451449541,0.1031339671188244
9.84752,8.025974481414007,0.1026404974805989
9.849896,8.053915135780963,0.1021495536907761
9.852303999999998,8.079761141602887,0.1016519894726879
9.854688,8.106166225932252,0.1011332346176883
9.857068,8.130336892089721,0.1006132508431662
9.859464,8.155066636754633,0.1000690916782553
9.861847999999998,8.180355459926984,0.0995023634471535
9.864232,8.206762440114217,0.0988900843578771
9.866628,8.228513592502559,0.0983078368562985
9.869012,8.250172197092285,0.0976989673243976
9.871391999999998,8.270248009816173,0.0970918321067713
9.873792,8.294607563286615,0.096440788451123
9.87618,8.314031749704446,0.0958302013476152
9.878559999999998,8.331873144256443,0.0952242006089019
9.880964,8.341985675076488,0.0946748254885969
9.883352,8.349304709217202,0.0941452680074647
9.885732,8.359836548917828,0.0935849202840698
9.888124,8.371439323805097,0.093014540506272
9.890512,8.375825091639614,0.0925104404039524
9.892892,8.380210859474131,0.0920060754287897
9.895288,8.378310785815678,0.0915604594048372
9.897676,8.3790644392097,0.0911048231997092
9.900072,8.37325271185703,0.0907160151891367
9.902463999999998,8.363576552638385,0.090351868919091
9.904852,8.350547818232966,0.0900239869938972
9.907232,8.337379314200685,0.0897009642107062
9.909628,8.32127754386221,0.0893969999303085
9.912016,8.304476925389435,0.0891208863409383
9.9144,8.291261199528911,0.0888306845978851
9.916796,8.27627569034745,0.0885786401509412
9.91918,8.262872973031822,0.0883281393769472
9.969364,7.851012743400963,0.0882280563398634
9.971744,7.848638555602208,0.088224245638354
9.974139999999998,7.855343705975761,0.0881508515971374
9.976528,7.873781921574092,0.0880023154683249
9.978908,7.897435043478757,0.0878071566434745
9.981304,7.928724481316753,0.0875344351731403
9.983692,7.960013919154748,0.0872607273451607
9.986088,7.994935471433239,0.0869427538902781
9.988484,8.030927958898367,0.0866143200622667
9.990872,8.068131151176997,0.0862730178463047
9.993252,8.103472012336068,0.0859422602169053
9.995648,8.13788170793536,0.0856181212647997
9.998036,8.172291403534654,0.0852945732775936
10.000416,8.200974336148418,0.0850036569959481
10.002816,8.224861671336429,0.0847403033671498
10.0052,8.251682272830633,0.084460202396532
10.007584,8.278223335071122,0.0841922198985323
10.00998,8.309839533991079,0.0838877878845062
10.012372,8.342666437724537,0.0835690807052623
10.014752,8.3713493703383,0.0832824937509371
10.017156,8.400032302952065,0.0829982557980596
10.01954,8.427364761125467,0.0827359377362
10.021924,8.454557449672011,0.082482795931516
10.024328,8.468154741874217,0.0823088228818274
10.026716,8.480820868516647,0.0821392249316231
10.029096,8.491205355158938,0.0819952130001923
10.0315,8.505733812920923,0.0818206324978515
10.033888,8.515698990682631,0.0816945456011755
10.036268,8.531530701056733,0.0815374331423419
10.038668,8.54200773549764,0.0814249816696136
10.041052,8.553415935498327,0.081309249876792
10.043436,8.564963905125875,0.0811888400478322
10.045832,8.580376306619396,0.0810500252762303
10.048216,8.600863844792386,0.0808784775318747
10.050596,8.627357685204629,0.0806713329385465
10.052992,8.650266633004618,0.0804739900821715
10.05538,8.671872328192494,0.0802629906603516
10.05776,8.691196383380229,0.0800760384628651
10.060164,8.710380668941108,0.079895231186372
10.062548,8.732777760061897,0.07968777841021
10.064927999999998,8.753452289689994,0.0794829603295641
10.067332,8.77519775450473,0.0792700942273441
10.069719999999998,8.793870183386408,0.079078658541707
10.0721,8.820271476000034,0.0788502128788186
10.074496,8.846812538240517,0.0786171918834083
10.076884,8.870140794921088,0.0784093442310071
10.079268,8.893469051601658,0.0782043317493453
10.081668,8.914143581229755,0.0780028317976338
10.084056,8.929091347872319,0.0778278607609915
10.086436,8.951395891194496,0.0776008988115544
10.088832,8.97370043451667,0.0773748927196625
10.09122,8.997075913025483,0.0771425186712336
10.0936,9.017797664481822,0.0769166286985944
10.096004,9.035446380005103,0.0767111056215603
10.098388,9.046297397356222,0.0765368744290206
10.100768,9.056077479520695,0.0763701686608265
10.103172,9.06771989280473,0.0761981258716278
10.10556,9.078850449409565,0.0760146000693036
10.10794,9.093193811574316,0.0758093931134706
10.11034,9.11289184967226,0.0755679737090313
10.112728,9.135662923703258,0.0753104337838441
10.115108,9.15685120586842,0.0750492310733462
10.117512,9.178598566541025,0.0747692541109436
10.1199,9.195690099414737,0.0745035082329965
10.12228,9.215063272288583,0.0742196563706887
10.124676,9.23764925072235,0.0739133380347089
10.127064,9.256370797290142,0.0736236566892099
10.129444,9.280307250164263,0.0733022254501598
10.13184,9.302381371918832,0.0729857992309455
10.134227999999998,9.32459526330026,0.0726690637327582
10.136608,9.345366132442711,0.0723437697723394
10.139004,9.363203735278969,0.0720315539710905
10.141392,9.378108071809026,0.0717315257055681
10.143771999999998,9.392360782033029,0.071424552414433
10.146176,9.409826297816949,0.0710958887882117
10.14856,9.43143578472056,0.0707444113336442
10.15094,9.45504737237059,0.0703864088256237
10.153344,9.480940600020755,0.0700122750847517
10.155732,9.499104963938976,0.0696661462616607
10.158112,9.509400694498389,0.0693530610199482
10.160507999999998,9.517042698005328,0.0690434414203242
10.162896,9.52682657188554,0.0687212006799361
10.165276,9.538612546512171,0.0683919214627115
10.16768,9.55347155707186,0.068047870965867
10.170068,9.564186596511853,0.0677261072096806
10.172448,9.576252110392206,0.0673905033354098
10.174843999999998,9.591250890578753,0.0670456602032582
10.177228,9.604527109272604,0.0667017339870427
10.179624,9.618874263153092,0.0663509739718486
10.18202,9.622279747741718,0.0660419580317935
10.184408,9.625685232330344,0.0657328183402331
10.186788,9.63123258729225,0.0654115655052008
10.189191999999998,9.637850877440792,0.0650834756502684
10.191576,9.643677771656415,0.0647521022268993
10.193956,9.648293961058542,0.0644315685959247
10.196356,9.65183921527403,0.0641185936779631
10.19874,9.647515836130708,0.0638316181690028
10.201124,9.637698011427334,0.0635793698698304
10.20352,9.630673683403296,0.0633212330418445
10.205908,9.626023543178013,0.0630712892643275
10.208284,9.619883158885507,0.0628408446553616
10.210692,9.611461134592869,0.0626269984255112
10.213076,9.597824203993897,0.0624383629630913
10.215456,9.582185172648506,0.0622568681383538
10.217856,9.566406371676257,0.0620791348435295
10.22024,9.545412664397674,0.0619261200888328
10.222624,9.52069429487998,0.0617782017416899
10.22502,9.496487782041482,0.0616418626880665
10.227408,9.47400383069568,0.0615068782768903
10.229788,9.46232177901488,0.0613387024657356
10.232183999999998,9.455155785506111,0.0611688084474591
10.234572,9.443706051250793,0.0610215670030181
10.236968,9.433978878488167,0.0608761384250316
10.239363999999998,9.428627994270714,0.060733510524707
10.241752,9.425139441172815,0.0605884600271409
10.244136,9.4196487873285,0.0604502428772807
10.246531999999998,9.421747227589274,0.0602979216811662
10.248916,9.429991739716158,0.0601209972461281
10.251296,9.442240453335874,0.0599314461395041
10.253696,9.45597941102281,0.0597236297673476
10.25608,9.467995807217047,0.059512995372898
10.25846,9.480943368971069,0.0593013995672311
10.26086,9.498686528150836,0.0590800252783622
10.263248,9.51787270956958,0.0588701626901215
10.265628,9.5409233228543,0.0586520095221543
10.268024,9.566907202445217,0.0584259696043899
10.270412,9.595544809088606,0.0582017990329134
10.272796,9.6212491494258,0.057985374326585
10.275192,9.645091158643435,0.0577715530770383
10.277576,9.66399780080846,0.0575729253378334
10.279972,9.67503580961468,0.0573954521362087
10.282368,9.69128872472723,0.0571958189876268
10.284756,9.70768140946664,0.0569927296915931
10.287136,9.7192784967803,0.0567990066066092
10.289536,9.72994441853418,0.0566066756683851
10.29192,9.74140173622098,0.056417891576382
10.294304,9.749274161295524,0.0562288663252131
10.296708,9.756075651183432,0.0560463395935642
10.299096,9.760735270698062,0.0558750008295808
10.301476,9.763253019839414,0.0557139973111661
10.303871999999998,9.769355661593016,0.0555541744458559
10.30626,9.777460404093045,0.0553892174563115
10.308644,9.784773750660149,0.0552214542774176
10.311039999999998,9.792785945361556,0.0550330312167859
10.313428,9.800286283383764,0.0548335125656302
10.315812,9.810999426965887,0.0546205718293997
10.318207999999998,9.820781404988232,0.0544087160540289
10.320595999999998,9.833636418943632,0.0541868460966685
10.32298,9.847702137712531,0.0539563333734896
10.325376,9.859905525361874,0.0537263498522065
10.327763999999998,9.877323819317551,0.0534765739572063
10.330148,9.891529307713313,0.0532417066431303
10.332544,9.902801529802876,0.0530127119685139
10.334931999999998,9.913002816705802,0.052787387733796
10.337312,9.926416909168644,0.0525492941935488
10.339708,9.941181476071844,0.0522988715430449
10.342096,9.955806273348182,0.0520526531066058
10.344475999999998,9.961491502079078,0.0518258944309531
10.346872,9.961589737451302,0.0516007925691214
