Time,Force,Position
10.769536,4.941729272837454,0.1632093632598273
10.771916,4.950619723696787,0.1631956287010642
10.774312,4.978692564259127,0.1627171580372392
10.7767,5.007836340008106,0.1622233982652575
10.77908,5.032790818667017,0.1617498531969793
10.781476,5.051925986541781,0.1613474396009401
10.791024,5.0712009240434055,0.160911310708813
10.793404,5.081024436320386,0.1607072875398083
10.7958,5.099832843113188,0.1603556218120947
10.798188,5.117243553637385,0.1601380574981289
10.805352,5.164164439389294,0.1599486201286873
10.807732,5.190140735548731,0.1596478101162173
10.810148,5.230178958761329,0.158949273124467
10.812536,5.263886014510583,0.1583476239397133
10.814916,5.292006076901167,0.1578770511033634
10.817332,5.317612181866136,0.1574367219045793
10.819716,5.344196674219126,0.1569254338109158
10.822112,5.360817884668276,0.1566129887495007
10.824508,5.378370260677204,0.1562940791533799
10.826892,5.393593774857751,0.1560896278431802
10.829276,5.415288226128503,0.1558038989090822
10.831672,5.443593384116321,0.1554352371858971
10.83406,5.479719953634702,0.1549408546656238
10.83644,5.521433516511753,0.1543453587142928
10.838844,5.567243828680256,0.1537053274586833
10.841232,5.619152990886627,0.1529746431616448
10.843608,5.671761001227298,0.1521964692325573
10.846016,5.719807627425565,0.1514274522374004
10.8484,5.758450050227431,0.150811420206254
10.85078,5.802354601163873,0.150011754213208
10.853176,5.8463989217271735,0.149184991509851
10.855564,5.887742293409757,0.1484802585395896
10.857944,5.917212830240699,0.1480433712661378
10.860348,5.945752201511864,0.1476280780381095
10.862736,5.97117131502173,0.1473239127117297
10.865116,6.001478573755964,0.146969951347244
10.867512,6.031506293236478,0.1466381490953203
10.8699,6.066888688650185,0.1461955241947203
10.872284,6.098965730705359,0.1457992786441569
10.874676,6.132905103880091,0.1453654796636776
10.877064,6.170569139293935,0.1448704153676098
10.879444,6.209630870976381,0.1443034573998713
10.881848,6.245714010382258,0.143713515729114
10.884236,6.277188543817487,0.1431584481672483
10.886616,6.298140716841435,0.1427697200404068
10.889012,6.311084486879713,0.1425298694462493
10.8914,6.328963623970606,0.1422082135757802
10.89378,6.3505674233006095,0.1418413361880657
10.896176,6.372403540056091,0.1415034510029637
10.898564,6.392422651662391,0.1412749620669811
10.900944,6.419611548493196,0.1409549518560128
10.903344,6.444566027152106,0.1406476315530494
10.905728,6.471057971706481,0.1402528594400117
10.908124,6.490100591782628,0.1399599756701313
10.91052,6.509422751112495,0.1396438421759151
10.912908,6.53074701118878,0.1392969798594301
10.915292,6.554539902720305,0.1388526129547823
10.917688,6.567066259735872,0.1385334164660009
10.932032,6.544958187158149,0.138367762316708
10.93442,6.553618216449872,0.1382347556998446
10.9368,6.572847827981123,0.137899831595087
10.939196,6.584675336862391,0.1376285874129381
10.941584,6.587330959772735,0.137476236237345
10.943964,6.586773777123163,0.1373845086743544
10.946372,6.593713140780062,0.1371502679966756
10.948756,6.598185768839588,0.1368968539862326
10.95114,6.597118625368688,0.1366728708896621
10.953536,6.590417266710875,0.1365644463205691
10.955924,6.594842672942159,0.13635295380034
10.958304,6.608579734771226,0.1360216261178423
10.9607,6.620361917682119,0.1356838642288115
10.963088,6.624787323913401,0.1354771785945442
10.965468,6.632331092048116,0.1352954111889109
10.967872,6.647416732459671,0.1350475117456136
10.97026,6.6665537961923045,0.1346906074235606
10.972644,6.690021822499735,0.1342101323656176
10.97504,6.712977992127968,0.1337150078831562
10.977428,6.728856924330313,0.1333380647136052
10.979812,6.7492991365329305,0.1328656232233918
10.982208,6.7585673620182085,0.1325446749582075
10.984596,6.758523931905704,0.1323447074654615
10.986976,6.755919322539342,0.1322069278025205
10.989372,6.756852383956989,0.1320724535808615
10.991764,6.762161733919808,0.1318927801805807
10.99654,6.751688491194638,0.1318737244671443
10.998932,6.750664777836243,0.131850020668947
11.001312,6.756810849702354,0.1317474251085898
11.003708,6.761793438583209,0.1316309382550389
11.006092,6.760025551120139,0.1315685130550236
11.008476,6.754253462164234,0.1315666771236337
11.010872,6.753276970634082,0.1315005354845746
11.01326,6.75872609022376,0.1313215529350802
11.01564,6.77195129537363,0.1309999551932752
11.018036,6.785967896456417,0.1306792708309106
11.020424,6.798866340524323,0.1304214217573357
11.022804,6.82037759205571,0.1300988188986269
11.025204,6.8477081543712455,0.1297366794110808
11.027588,6.870615206313365,0.1294556548986324
11.02998,6.896315754934821,0.1291416435224128
11.032384,6.927323757661227,0.1287798059629577
11.034772,6.964198293000022,0.1283406692619208
11.037152,6.997115848674228,0.1279136678943203
11.039556,7.032222496549954,0.1274140180254243
11.04194,7.070681719612455,0.1268528138415428
11.04432,7.116357949727703,0.1261838068520899
11.046716,7.156726725738004,0.1255681980539095
11.049104,7.190996651710437,0.1250050270863778
11.051484,7.2196795843242,0.1245054294762317
11.053888,7.2484550647365795,0.1240392090631243
11.056276,7.2809552073880734,0.1235327353582697
11.058656,7.312943493360369,0.1230201174810685
11.06106,7.338134081160495,0.1225969013084862
11.063448,7.354245330788316,0.1223034885141322
11.065828,7.364629817430607,0.1220761828223579
11.068224,7.3719884899680865,0.1218522185477718
11.070612,7.370454815788363,0.1217045807542895
11.072992,7.37017906825038,0.121494496282214
11.075396,7.369950542540643,0.121243906045645
11.077784,7.371119713099506,0.1209243226778446
11.080164,7.365119098433864,0.1206649104634736
11.08256,7.3586066270890225,0.1203950494163249
11.084944,7.356749983543073,0.1200783811195276
11.087324,7.351261225556629,0.11983130406379
11.089732,7.343910136450626,0.1196022898692335
11.092116,7.331483910665153,0.119439006553371
11.0945,7.319429771932016,0.1192940316779303
11.096896,7.314173331371047,0.1190726112648296
11.09928,7.3117103874894145,0.1188237666017349
11.10166,7.30622162950297,0.1185750939919315
11.104068,7.296496352598213,0.1183501616748434
11.106452,7.282766874200623,0.1181742602408477
11.108832,7.268525539123836,0.1179856545201813
11.111228,7.25363257774099,0.1177915642384795
11.113616,7.243814753037617,0.1175304470851881
11.115996,7.23599902908066,0.1172434773465604
11.118392,7.22962632736268,0.1169583342081696
11.12078,7.219761280831064,0.1167356066882606
11.12316,7.21292204840426,0.1165119125843491
11.12556,7.20082068784288,0.116400583787767
11.127944,7.20017285325256,0.1161689461514424
11.130324,7.196963839408385,0.1159902594091448
11.132728,7.192823660004429,0.1158204287550075
11.135116,7.188963019854195,0.1156363588173286
11.137496,7.18361213563674,0.1154883147246566
11.1399,7.178540790673007,0.115325962830822
11.142284,7.174959689776492,0.1151267588256581
11.144668,7.164161581827227,0.1150232946008706
11.147068,7.155225804997521,0.1149023419156696
11.149456,7.15373935264604,0.114712872892334
11.151836,7.157280815145789,0.1145002565754086
11.154232,7.16398786137721,0.1142806290914776
11.15662,7.17465188727322,0.1140530324873517
11.159,7.190623367274182,0.1137885580218044
11.161396,7.2038938983944245,0.1135838598483632
11.16378,7.218327912499923,0.1133981380456046
11.16616,7.235834962538476,0.1131744629179966
11.168556,7.251339911830614,0.1129727450589285
11.170944,7.263259968510497,0.1127978640109804
11.173324,7.277321895563658,0.1125903496611985
11.175736,7.282584023698234,0.1124814382219991
11.178124,7.286775216646172,0.1123874994055656
11.180504,7.28961593515375,0.1123225021624607
11.1829,7.294179215154025,0.1122478421920781
11.185288,7.300744595900716,0.1121491368433088
11.187668,7.307542294072886,0.1120765076818968
11.190064,7.313920683364473,0.1120248504036044
11.192452,7.325374209335533,0.1119104563589159
11.194848,7.33296330344062,0.1118367717301763
11.199632,7.337339591985791,0.111809466755887
11.202012,7.3380384401200915,0.1117754079981207
11.204408,7.337294266015417,0.1117372246965645
11.206796,7.336317774485265,0.1116735281512993
11.209176,7.336040131089413,0.1115762198804626
11.21158,7.336321566201003,0.1114527065994247
11.213968,7.333529965379537,0.1113660198216301
11.216348,7.338467228290018,0.111204545349816
11.218752,7.345127052693196,0.1110338189453954
11.22114,7.358584575268543,0.1107980743600969
11.22352,7.373764659336587,0.1105529293538356
11.225916,7.391226383404765,0.1102727864625439
11.228304,7.410038581913304,0.1099647607717604
11.230688,7.428990550048703,0.1096519519340367
11.233084,7.452086489303797,0.1092924167494503
11.235472,7.4797457085591645,0.108867263360132
11.237852,7.5087554022548915,0.1084169381261864
11.240252,7.537625326323757,0.1079773823345641
11.242636,7.572082243751292,0.1074966246404986
11.245016,7.605468225992189,0.1070308138818054
11.24742,7.640856308979504,0.1065426462463297
11.249808,7.675825083086238,0.1060775261432219
11.252188,7.711305713872171,0.1056257576500439
11.254584,7.745156330964024,0.1052173777737597
11.256976,7.780589739921712,0.1048107440361403
11.259356,7.812018947386567,0.1044459526069032
11.261752,7.8454502555978385,0.104061317230507
11.26414,7.87287526156986,0.1037399436970852
11.26652,7.90165074198224,0.1033944258522328
11.268916,7.922976897916395,0.1031061859997905
11.271304,7.945513758664046,0.102799843249966
11.273688,7.966979684225062,0.102507550191298
11.276084,7.993101437584965,0.1021862561138664
11.278468,8.020945752437568,0.1018613607577329
11.280852,8.043854700237558,0.1015831681868339
11.283248,8.060617576171436,0.1013686259483542
11.285636,8.077892308784511,0.1011675529111306
11.288016,8.091442379158476,0.1009914965131729
11.290412,8.099265686546909,0.100858958244402
11.2928,8.107088993935342,0.1007264199756312
11.2952,8.117985337256831,0.1005647583892885
11.297596,8.125948414272125,0.1004270853075601
11.299984,8.13540173535464,0.1002604892704458
11.302364,8.14499482606401,0.1000885946686535
11.30476,8.152865355280687,0.0999234725606526
11.307148,8.164320777109618,0.0997406783966826
11.309528,8.17484503337877,0.0995642867379834
11.311928,8.187650929648058,0.0993586080046725
11.314316,8.201760078529462,0.0991662363435609
11.316696,8.220385285582898,0.098951524167717
11.319096,8.236728852636196,0.0987660148826428
11.32148,8.254934750809051,0.0985699865200792
11.323864,8.268345051556155,0.0984101321857653
11.32626,8.28003279081056,0.098257107876577
11.328648,8.295864501184662,0.0980659572929623
11.331028,8.315840182678457,0.0978361584478943
11.333428,8.332091201933137,0.0976283177796598
11.335812,8.350204552307375,0.0974090954124651
11.338196,8.372601643428167,0.0971457876308904
11.340592,8.395697582683262,0.0968549623049583
11.34298,8.41464955081866,0.0966043065683237
11.345376,8.438536886006672,0.0963162123644404
11.347772,8.461353286008045,0.0960414992454687
11.35016,8.480584793397163,0.095782035275049
11.352544,8.499676531159421,0.0955287253840281
11.35494,8.516114541869207,0.0952861161089374
11.357324,8.531900926272934,0.0950377146526238
11.359708,8.54675614511688,0.0947954633462679
11.3621,8.558725319482877,0.094541498345326
11.364488,8.566038666049982,0.0943136993747852
11.366872,8.573771321497667,0.0940686218747489
11.369276,8.577127688400184,0.0938379651785918
11.371664,8.580903364183278,0.093590864456577
11.374044,8.579883442540622,0.0933741013300702
11.376444,8.572717449031853,0.0932101396483777
11.378828,8.56261818921689,0.093066811527503
11.381212,8.556802670148484,0.0928811296404283
11.383608,8.55433972626685,0.0926590539114885
11.385996,8.546801645705743,0.0924778630690135
11.388376,8.535631450704143,0.0923440618005782
11.390772,8.52609126939662,0.0921773448478236
11.39316,8.513105965103707,0.0920188415743991
11.39554,8.496395998571678,0.0918790800996012
11.397936,8.480617197599427,0.0917338603220955
11.400324,8.464326539947981,0.0915763162987607
11.40272,8.45045729192353,0.0913866261012605
11.405116,8.437519209458861,0.09119172706754
11.407508,8.425791831807686,0.0909809534272987
11.409888,8.413645145275934,0.0907861078689437
11.412284,8.403640329117456,0.0905704575481651
11.414672,8.395917152959116,0.0903288888888837
11.417052,8.389776768666614,0.0900882366712283
11.419448,8.382565449187473,0.0898574403878786
11.421836,8.380429266387804,0.0895865298849814
11.42422,8.380295184334551,0.0892997358171037
11.426616,8.380300871908158,0.0890069734506791
11.429004,8.376302357988932,0.0887437817919217
11.431388,8.367088937763373,0.0885255536529079
11.433784,8.362950654217286,0.0882680886295994
11.436172,8.363375650671475,0.0879590752592907
11.438552,8.359237367125388,0.0877001464474596
11.440948,8.354819544325581,0.0874519082302407
11.443336,8.355057549324666,0.087181313685618
11.44572,8.358228820629947,0.0868918638865758
11.448124,8.362843114174202,0.0866106718626931
11.450512,8.365175767718322,0.086355296831658
11.452892,8.367228882008721,0.0861112196439808
11.455288,8.365138025179427,0.0859005837555881
11.457676,8.36276762909641,0.0857006353816769
11.460056,8.361607937826893,0.0854857686723552
11.462456,8.360168707303657,0.0852825867158672
11.464844,8.361011116780556,0.0850548350848614
11.467224,8.361434217376877,0.0848431872492645
11.469628,8.361577778719473,0.0846431829139
11.472016,8.366936246368404,0.0844023415228525
11.4744,8.374017275510031,0.0841593887269039
11.476796,8.385102506144493,0.0838904239552605
11.479188,8.398189837525372,0.0836078380643224
11.481568,8.41099762965253,0.0833382996284465
11.483964,8.424317278458885,0.0830830005566917
11.486352,8.44485393431799,0.0827745297676252
11.488732,8.467113151669789,0.0824644483449885
11.491128,8.48457677159584,0.0821785766470587
11.493516,8.499758751521751,0.0819166772661556
11.4959,8.513218169954968,0.0816572373637956
11.498296,8.528400149880879,0.0813961664194955
11.500684,8.546655165739846,0.0811151606465057
11.503064,8.569845548651426,0.080805680932608
11.505468,8.593175701189864,0.080490193249147
11.507856,8.613944674474448,0.080209495847925
11.51024,8.63364271257239,0.0799389236573411
11.512636,8.651850506603115,0.079694078544367
11.515024,8.672339940633977,0.0794268256885999
11.517408,8.6917584394782,0.0791692042591647
11.519804,8.70610180164295,0.0789465276143765
11.522188,8.719234458994203,0.0787382427303006
11.524572,8.72822314522576,0.0785595937351532
11.526968,8.734138795524263,0.0784009751156939
11.529352,8.739263049889848,0.0782413329941
11.531736,8.744247534628574,0.078087801606104
11.53414,8.748021314553801,0.0779489700349535
11.536528,8.753005799292522,0.0777974192255861
11.538908,8.76185471589722,0.077627993188583
11.541312,8.774568064367891,0.0774414695634413
11.5437,8.78942328321184,0.0772391827957031
11.54608,8.804558041309509,0.0770277249187922
11.548476,8.81769069866076,0.0768290080167923
11.550864,8.829752420825374,0.0766395497942715
11.553244,8.847820445229237,0.0764191375670637
11.55564,8.8670991744466,0.0761858077323281
11.558028,8.883025328477189,0.0759803744706403
11.560412,8.90216428806769,0.0757524745841522
11.562808,8.917950672471417,0.0755531768699978
11.565196,8.933737056875145,0.0753541176067232
11.567576,8.948312736465372,0.0751674078131607
11.56998,8.963167955309322,0.0749709069619052
11.572368,8.978814570086188,0.074775916717386
11.574748,8.999396551915666,0.0745565428940491
11.577144,9.017557124118149,0.0743632664836395
11.579536,9.031061868521736,0.0741842161903358
11.581916,9.040841950686213,0.0740168580181029
11.584316,9.050482263223827,0.0738557089788933
11.586704,9.061193510948083,0.0736878594733458
11.589084,9.073534772366417,0.0734948236647394
11.591484,9.08438578971753,0.0733246294418893
11.593872,9.093234706322228,0.0731649305860586
11.596256,9.099150356620733,0.0730178843813986
11.598652,9.105205776546097,0.072866569262551
11.60104,9.103392563112653,0.0727504471826196
11.603424,9.103441680798763,0.072629647985716
11.60582,9.110987344791344,0.0724580738626262
11.608208,9.119603943970564,0.0722811417142918
11.610592,9.132644053523205,0.0720710586751511
11.612988,9.147686263822257,0.0718523083446363
11.615376,9.169665941920334,0.0716041950732633
11.61776,9.191505850391556,0.0713612749067429
11.620156,9.216418794795832,0.0711025999975176
11.622548,9.238538242520772,0.0708517039608416
11.624932,9.260145833566517,0.0705880970773975
11.627328,9.286549022038011,0.0703085546417879
11.629716,9.31560593756198,0.0700271685597401
11.6321,9.339587716406475,0.069771139433673
11.634496,9.362358790437476,0.0695283601081578
11.636888,9.377773087788864,0.0693303041055974
11.639272,9.394398089953754,0.069121130678031
11.641664,9.412745653611337,0.0689126999636381
11.644052,9.434166253201978,0.0686887131509008
11.646432,9.452374047232704,0.0684853445095294
11.648836,9.474446273129402,0.0682686786203985
11.65122,9.493725002346762,0.0680591345310814
11.6536,9.509651156377352,0.0678763644967485
11.656004,9.514775410742937,0.0677343667622858
11.658392,9.5196201258548,0.0676025285353708
11.660772,9.521671344287329,0.0674768781083739
11.663168,9.51599369898791,0.06737625980593
11.665556,9.511526758501992,0.0672645681888098
11.667936,9.506408191710014,0.0671458546741249
11.67034,9.505154056784011,0.0670154123238919
11.672728,9.507764353723982,0.0668732274243067
11.675108,9.506789758051696,0.0667338165146951
11.677504,9.505954932006274,0.0665901839784536
11.679892,9.508891990028207,0.0664091469661388
11.682272,9.510246256184306,0.0662226685279262
11.684668,9.51374239271368,0.0660229255739537
11.687056,9.515515967750355,0.065822300621328
11.689436,9.516777686107837,0.065610144202946
11.691832,9.5160373037189,0.0654060371049818
11.694216,9.517578561330104,0.0651846877105349
11.6966,9.518328423008386,0.0649608644337472
11.698996,9.519078284686673,0.0647367470672609
11.70138,9.519316289685754,0.0645010748481127
11.703764,9.528354093603424,0.064236359306854
11.70616,9.535669336028397,0.0639712198263874
11.708548,9.545126448826649,0.0636944075417408
11.710944,9.555654496811538,0.0634103411611737
11.713336,9.56539114886351,0.0631242027224507
11.715724,9.574056865728844,0.0628449534738429
11.718108,9.58086025147462,0.0625701983083328
11.720504,9.58580130610084,0.0622992260227524
11.722888,9.596329354085729,0.0620209474096433
11.725268,9.6072767109512,0.06173057162922
11.727672,9.618456385242148,0.0614619011921026
11.73006,9.630846764346597,0.0611835894678018
11.73244,9.646310179384097,0.0608936205390127
11.734836,9.662844529608236,0.0605985287748059
11.737224,9.678168175018875,0.0603138065948012
11.739604,9.694702525243017,0.0600195150952195
11.742004,9.71030570990738,0.059726766435239
11.744388,9.7248379593851,0.0594397848974689
11.746768,9.74137230960924,0.0591467613143746
11.749176,9.7586980557663,0.0588581437495375
11.75156,9.77616357155022,0.0585671918127859
11.75394,9.791626986587724,0.0582826088852329
11.756348,9.806019466438585,0.0580043812384857
11.758732,9.824416147782282,0.0577143145409337
11.761116,9.839320484312342,0.0574482134046905
11.763512,9.853293655282627,0.0571833914948741
11.7659,9.864613099200431,0.0569173649184297
11.768284,9.874070211998683,0.0566530804397249
11.77068,9.876869396251628,0.056399679413457
11.773068,9.876316005317792,0.0561660010277136
11.775448,9.873108887331489,0.0559303082320996
11.777844,9.866549194158402,0.0557136590772779
11.780232,9.855845529865624,0.0555129800111707
11.782616,9.845793491878904,0.0553202233320172
11.785012,9.841468216877711,0.0551195580763936
11.787396,9.835932237063028,0.0549279838523636
11.78978,9.834260689114313,0.0547299129979934
11.792176,9.833799845979096,0.0545226546102431
11.794564,9.832407837284102,0.0543163638249247
11.796948,9.82915349746955,0.0541113783202789
11.799344,9.821894956162163,0.0539171547283579
11.801732,9.815567580414562,0.0537218348705591
11.804112,9.80523600317412,0.0535363943281565
11.806512,9.791831390000624,0.0533609859245888
11.808896,9.785923323133598,0.0531526576492611
11.811296,9.78294852257277,0.0529389777625721
11.813692,9.781696283504631,0.052728364625378
11.81608,9.783237541115836,0.0525164752255078
11.81846,9.786780899473452,0.052298967241927
11.82086,9.792466128204346,0.0520720388518104
