Time,Force,Position
9.739716,4.111684692205976,0.1857615004349706
9.742096,4.160562352733926,0.1851070436513293
9.744492,4.209207695836399,0.1844129475155843
9.74688,4.253616520020561,0.1838332696259748
9.74926,4.299236049018222,0.1832053941340312
9.751656,4.349231866561054,0.1824938498138682
9.754044,4.402812576716139,0.1816796379788086
9.756428,4.46356307209573,0.1806926444679091
9.758824,4.528737077848735,0.179527230264221
9.761212,4.592607830989624,0.1784123396693733
9.763592,4.655734410025839,0.1772492144980976
9.765988,4.721469390144155,0.1759169305921193
9.768376,4.78487740429196,0.1745823646085208
9.770772,4.845818682842393,0.1732475800111758
9.773167999999998,4.908716736168868,0.1717603782199778
9.775555999999998,4.96351383871106,0.1705258877548502
9.777932,5.012444408640861,0.1694885858843996
9.78034,5.058022403383887,0.1685814910934752
9.782728,5.106905751485445,0.1676412490380153
9.785108,5.155741877758759,0.1667791621621097
9.787503999999998,5.209326379629583,0.1658770335727172
9.789891999999998,5.2587196885524685,0.1651717520616259
9.792276,5.3134204515803045,0.1643834513576859
9.794671999999998,5.374779143153448,0.1634603826625896
9.797059999999998,5.436696913234034,0.1625150661422398
9.79944,5.49372653809025,0.161662667253561
9.801835999999998,5.5522936288419285,0.1607201494853601
9.804224,5.601736055450927,0.1599177424745815
9.806608,5.648152667955113,0.1591503803488973
9.809003999999998,5.686980186354214,0.1585395927367305
9.811388,5.72822911438031,0.1578628038461373
9.813772,5.76677709352569,0.1572898700976292
9.816168,5.808630426029602,0.1566870557632583
9.818556,5.853509572638326,0.1560687313624912
9.820936,5.89647916629925,0.1555479177929771
9.823336,5.937726198467479,0.1550497588208814
9.825724,5.97846137395651,0.1545380844987037
9.828108,6.020686793512759,0.153971805220046
9.830512,6.056301506351944,0.1534927189258551
9.832895999999998,6.0915913539670346,0.1529535353998597
9.83528,6.120689803745639,0.1524731822854242
9.837675999999998,6.1474612875537336,0.1519637064269373
9.84006,6.1656199638983455,0.1515774122198778
9.84244,6.175817459085533,0.1513141462547491
9.84484,6.1820107527798855,0.1511342731186296
9.847224,6.187133111287601,0.1509799388814618
9.849604,6.186761024235262,0.1509595676444083
9.852,6.19448988796721,0.1508174041963112
9.854388,6.201519903564856,0.1507199220103517
9.856787999999998,6.214556221401753,0.1505006333471713
9.859184,6.225310899238512,0.1503423381622537
9.861572,6.2350418637168765,0.1501609913773989
9.863952,6.237091186291536,0.1500743358459947
9.866348,6.234671672522409,0.1500088196638191
9.868735999999998,6.233510085395023,0.1498642328405849
9.87112,6.234769907894634,0.1496544594908566
9.873516,6.236868348155406,0.1493923046612794
9.875903999999998,6.240876341363977,0.1490573791434241
9.878284,6.2492606231177215,0.1486675848860252
9.880688,6.254012790430967,0.1483745665965345
9.883076,6.256855404796417,0.1481552948511233
9.885456,6.261792667706898,0.1479352091412747
9.887852,6.271106219162549,0.1476590589687118
9.89024,6.2804197706182014,0.1473811587668944
9.892624,6.292434270954573,0.1470222994623684
9.89502,6.3057992457313015,0.1466242882560649
9.897408,6.318931903082554,0.1461948695010926
9.899788,6.322101278529965,0.1459106009917465
9.902183999999998,6.325737184686198,0.1455537723366362
9.904571999999998,6.32592796785704,0.1452382474868407
9.906956,6.323465023975407,0.1449573134530636
9.909351999999998,6.325937447146386,0.1445886420899911
9.911739999999998,6.331854993302759,0.1441775614763388
9.914124,6.33721346095169,0.1437991165818546
9.916519999999998,6.337729109346626,0.1435490405501951
9.918907999999998,6.336894283301204,0.1433400048619785
9.921288,6.337083170614177,0.1431550394823842
9.926072,6.318231333708871,0.1431492876352775
9.928456,6.309108565424061,0.1431056663767324
9.930856,6.30175558046019,0.1429963378612819
9.985812,6.173052749511213,0.1428285175219791
9.988216,6.180175312907474,0.1427810283126459
9.9906,6.191721386677153,0.1426349947580636
9.99298,6.203686769327411,0.1424637057800252
9.995376,6.21472098641789,0.1423071129581501
9.99776,6.225942194963473,0.1420957636059202
10.000144,6.239212726083715,0.1418046624096633
10.00254,6.249597212726006,0.1415177052963077
10.004928,6.262403108995295,0.1411685125428954
10.007308000000002,6.284008804183169,0.1406750156635276
10.009704,6.305334960117322,0.1402068929123125
10.012092,6.328663216797892,0.1397067741205747
10.014472,6.349709833478325,0.139259089306763
10.016876,6.372339242024595,0.1387996726340594
10.01926,6.400555643929534,0.1382702599272741
10.02164,6.433847182513946,0.1376564444892416
10.024036,6.467558029978939,0.1370216022162386
10.026424000000002,6.494191640018041,0.1365074638391025
10.02882,6.528741105244196,0.1358199864841652
10.031224000000002,6.561847548231374,0.1351372779273722
10.033612000000002,6.589646537113603,0.1345145274168437
10.035992,6.61078759745052,0.1339934273607123
10.038396000000002,6.627784686667746,0.1335477120734539
10.040780000000002,6.645153862937309,0.1331235742996141
10.04316,6.662383269580011,0.1327078402534125
10.045556,6.682406172902049,0.1322600298232995
10.047944,6.700659292903146,0.1318764883670489
10.050324,6.721938227009058,0.1314863912185831
10.05272,6.740795751487971,0.1311510698476931
10.055108,6.756068383354631,0.1308624147615776
10.057488,6.767616352982177,0.1306218235128175
10.05988,6.777721300370747,0.1303827336979879
10.062268,6.788897182945957,0.1301240723112106
10.064648000000002,6.801703079215244,0.1298162937410034
10.067052,6.807339190260027,0.1295860942432796
10.06944,6.810042034998614,0.1293988790504441
10.071824,6.809671843804145,0.1292597740099673
10.074216,6.817589594849065,0.128987116974357
10.076604,6.82215477070721,0.1287795396643969
10.078988,6.827371572871412,0.1285768343616026
10.081384,6.839246303580922,0.1282923212050714
10.083768,6.853914530969767,0.1279754613228082
10.086148,6.870584859105029,0.1276284090018644
10.088556,6.889536827240428,0.1272406773936685
10.09094,6.910490896122243,0.1268261903757195
10.093324,6.928232159444144,0.1264689468194977
10.095728,6.9463927316466245,0.1260912081814769
10.098112,6.962551203102689,0.1257428255602511
10.100492,6.984576207171143,0.1253193237860259
10.102896,7.004319571239461,0.1249409612984735
10.10528,7.025645727173616,0.1245568535857953
10.107664,7.0490665316528025,0.1241822473686558
10.11006,7.077143163930883,0.1237625901317142
10.112448,7.106383279194218,0.1233640257384689
10.114828,7.135576172629309,0.1230029534588461
10.117232,7.161696030131346,0.12268525404119
10.11962,7.192751254685994,0.1223051320996106
10.122,7.220453904053866,0.1219888512345858
10.124396,7.245735143794741,0.1217185589827589
10.126784,7.273158253908893,0.1214180838696777
10.129164,7.296716932157071,0.1211667121551948
10.131568,7.319204675218611,0.1209327737592603
10.133952,7.346488015705901,0.120648926756154
10.136332,7.36976715470036,0.1204180817561525
10.138736000000002,7.393046293694817,0.1201900874035313
10.141124,7.416185663062414,0.1199687505150863
10.143504,7.437043392429874,0.1197866860839067
10.1459,7.458180661051056,0.1195907928382033
10.148288,7.474801871500206,0.1194353827218827
10.150668,7.491562851576216,0.1192732859180773
10.153072000000002,7.50580987422661,0.1191241281416038
10.160236,7.5058570960548545,0.1190848291380642
10.162624,7.502598964524566,0.1190612418853515
10.165004,7.501342933740693,0.119012596805827
10.167408000000002,7.497013867023765,0.1190048528333454
10.169796000000002,7.493755735493475,0.1189811750286366
10.172176,7.497062984709877,0.118856499470466
10.17458,7.495434866873667,0.1187899009979433
10.176968000000002,7.496600245716791,0.1186972372457041
10.186520000000002,7.474722594706671,0.1186300545982619
10.188916,7.467647253138652,0.1186089173713909
10.191304,7.464995421944049,0.1185197822994948
10.193688000000002,7.465416626682499,0.1183921681271442
10.196084,7.47077319847356,0.1182102574412853
10.198472,7.473196503958428,0.1180594077077142
10.200852,7.479484241309267,0.1178686032621909
10.203248000000002,7.487774079406524,0.1176524014783686
10.205636000000002,7.50421209011631,0.1173342770296951
10.208016,7.527867107878843,0.1169272739548395
10.210412000000002,7.550451190454739,0.1165374087504019
10.2128,7.57666738747113,0.1160870863506964
10.21518,7.600369627061908,0.1156464192154042
10.217576,7.619835347734374,0.115227667961262
10.219964,7.63343453579445,0.1148736715931257
10.222344,7.65145723422794,0.1144554913256491
10.22474,7.666174579302897,0.1140521798930056
10.227128,7.680659606952377,0.113625850412534
10.229524,7.703712116094965,0.1130833794875694
10.23192,7.729186034864552,0.1125008398954253
10.234308000000002,7.753216931395161,0.1119160831211616
10.236692,7.777387597552631,0.1113289128793938
10.239096,7.795691731097711,0.1108025511128282
10.241484,7.810271202403677,0.1103095798277398
10.243864000000002,7.8188443714703935,0.1098831377301567
10.24626,7.832632446843442,0.1093938588053749
10.248648,7.8451172696043745,0.1088969327654446
10.251028000000002,7.863748164231417,0.1083336348647895
10.253424,7.877583461432709,0.1078152159620023
10.255812,7.881408254901916,0.107400806601865
10.258196000000002,7.885652357251705,0.1069683532454567
10.260592,7.881608517362105,0.1066292563691469
10.26298,7.882500044525117,0.1062424947290285
10.26536,7.886976464300382,0.105833715037743
10.26776,7.891452884075647,0.105423262268922
10.270148,7.891505793477499,0.1050725444253954
10.272528,7.890208228438992,0.104746705574212
10.274924000000002,7.887699958586985,0.1044403325685016
10.277312000000002,7.880907947988423,0.1041870918325339
10.334656,7.49960056552236,0.1040938068861904
10.337040000000002,7.5035575451869505,0.1040920326496895
10.33944,7.512030583023573,0.1040629932969961
10.341820000000002,7.520084311979614,0.104053135515652
10.3442,7.537776457615402,0.1039259339870483
10.346592,7.557890012878188,0.1037591168602849
10.348976,7.579493812208193,0.1035617622628327
10.351356,7.600957841911338,0.103371805893097
10.353772,7.622841180495063,0.1031639606630506
10.356156000000002,7.647378246131263,0.102945722278066
10.358536,7.671915311767463,0.1027274838930814
10.36094,7.705391945949108,0.1024275861996109
10.363324000000002,7.73486437863792,0.1021693552105194
10.365704,7.764895889834173,0.1018869192316195
10.368096,7.794927401030425,0.101606213728033
10.370484,7.827520091480536,0.1012836485680332
10.372864,7.862673961184504,0.1009181028186938
10.375276,7.899178305328831,0.1005289275959314
10.377660000000002,7.937964289473295,0.1001107847426997
10.38004,7.978659826565559,0.0996447751220847
10.382436000000002,8.014839305485793,0.0992055277935563
10.38482,8.04193944623372,0.0988547267778744
10.3872,8.06824819104873,0.0985060146774078
10.389612,8.09390530955768,0.0981506362929036
10.392,8.1143475217603,0.0978532581883122
10.394380000000002,8.140935805829029,0.09750219287967
10.396772000000002,8.16552198915134,0.0971708726091139
10.399160000000002,8.188525380607816,0.096839591008503
10.401556,8.209526671317875,0.0965261712214256
10.403956,8.224009803109485,0.0962529830052772
10.406344,8.238772474154818,0.0959683628277074
10.408724,8.244223489602366,0.0957405732091638
10.411128,8.248883109116996,0.0955123989748801
10.413512,8.252471793444986,0.0952956301933323
10.415888,8.25661955628042,0.0950565263907254
10.418284,8.258765218369435,0.0948348816979542
10.420672,8.262912981204867,0.0945983930032573
10.423048,8.269202614413576,0.094341728449958
10.425444,8.276702952435784,0.0940708151488104
10.427828000000002,8.28485491676405,0.0938077640480335
10.430208,8.293658507398375,0.0935501524307771
10.432624,8.30753723471217,0.0932502362857937
10.435008,8.317831069413714,0.092964365060127
10.437388000000002,8.331337709675173,0.0926476001144096
10.439792,8.344844349936633,0.0923311233523193
10.442176,8.348060947212286,0.092104554999266
10.444556000000002,8.346202407808468,0.0919183483454488
10.446956,8.344064329150928,0.0917430936645809
10.449344,8.34085531530675,0.0915779546801517
10.451724000000002,8.341370963701689,0.0913925476233873
10.454128,8.340024280977067,0.0912168175356405
10.456512,8.342122721237839,0.0910317540642347
10.458892000000002,8.347014658177947,0.0908321772583348
10.461296,8.355631257357167,0.0906136826732536
10.463684,8.361407138028811,0.0904450056574005
10.487564,8.278310565072408,0.0903518340973793
10.489964,8.278078247646931,0.090328691914166
10.492352,8.288787599513318,0.090227564803148
10.494732,8.30149905212612,0.0901118452411523
10.497136,8.318074936604894,0.0899724260730128
10.499524,8.33465082108367,0.0898337555595503
10.501904,8.357605094854033,0.0896702846656255
10.5043,8.381630303811036,0.0894973284683608
10.506684,8.4033738727679,0.089350493142317
10.509064000000002,8.422184175418572,0.0892235919499001
10.511468,8.442344952509599,0.0890755444638661
10.513852,8.467720635906963,0.088883653713824
10.516232000000002,8.495517728931322,0.088661520389306
10.518636,8.52960066344865,0.0883839785328214
10.52102,8.567036173152756,0.0880711806848627
10.523400000000002,8.597953523938413,0.0877895236079198
10.525796,8.62356342061912,0.0875239059792255
10.52818,8.64838192136691,0.0872582524057012
10.53056,8.669475759875585,0.0870123447824612
10.532956000000002,8.688707267264704,0.0867753899393019
10.535344000000002,8.71143111946746,0.0864997233286281
10.537724,8.730849618311684,0.0862272578139009
10.540120000000002,8.74374995823746,0.085986672941267
10.542508000000002,8.758140542230453,0.0857225056339764
10.544892,8.77309020473089,0.0854394253725077
10.547304,8.787667780178985,0.0851404209903959
10.549692,8.796286275216076,0.0848493891964193
10.552072,8.806674553574105,0.0845252434908195
10.554468,8.817901449693297,0.0841704349179904
10.556852,8.827405784319788,0.0838174495226323
10.559248,8.836538031893948,0.0834476858475788
10.561644,8.84781214984138,0.0830638322638133
10.564032,8.859365807042535,0.0826716388794678
10.566412,8.873201104243826,0.0822601952193168
10.568816000000002,8.885453609579281,0.0818466313560449
10.571204000000002,8.899987754914873,0.0814086893206402
10.573584,8.919736806556799,0.0809340081392188
10.575988,8.93711167039997,0.0804538429996042
10.578376000000002,8.953043512004166,0.0799652261101536
10.580756,8.969394662488941,0.0794610132719509
10.583152000000002,8.982393237786939,0.0789886848448135
10.585540000000002,8.991247841965244,0.0785434348085781
10.58792,9.000754072449606,0.0781053181756084
10.590316,9.006116331814276,0.0776962282384028
10.592704,9.008405555245892,0.0773079849803729
10.595084,9.00841313867737,0.0769409008960107
10.597476,9.007861643601403,0.0765929186381399
10.59986,9.003817803711806,0.0762802524052149
10.602256,8.99642138863543,0.0759962168357413
10.604648,8.995031275798304,0.0756795983418923
10.607036,8.994013250013516,0.0753800651245417
10.609416,8.986849152362618,0.0751190351606084
10.611816,8.978055041017642,0.0748861530119767
10.614204,8.964837419299249,0.074689871219118
10.616584,8.951991884633195,0.0745102567757096
10.618988000000002,8.943522638512313,0.0743265685106966
10.621372,8.931421277950932,0.0741808210823271
10.623752,8.924208062613921,0.0740432776416083
10.626152,8.918158330262166,0.0739247156068821
10.62854,8.913551620149386,0.0738155425864345
10.63092,8.908013744476829,0.0737087289764586
10.633324000000002,8.907411235856884,0.073578317360821
10.635708,8.906668957610076,0.0734529092837964
10.638088,8.906578305669331,0.0733344213867481
10.640492000000002,8.908070445594417,0.073220652806109
10.642876,8.91314747813176,0.0731014361092787
10.645256,8.922088942535073,0.0729669876744147
10.647652,8.932473429177364,0.0728422592439382
10.65004,8.948724448432046,0.0726924682095071
10.652436000000002,8.958829395820615,0.0725786684382438
10.654832,8.971215983209325,0.0724458119932743
10.657216000000002,8.983602570598032,0.0723124438893401
10.659596,8.994266596494045,0.0721789093337203
10.661992,9.005861787949835,0.0720428588372324
10.66438,9.017317209778763,0.0719118281606632
10.66676,9.026910300488137,0.0717867128981933
10.669156,9.039716196757425,0.0716399658108201
10.67154,9.04814580448154,0.071495918502365
10.673916000000002,9.056854951459378,0.0713422372780433
10.676332000000002,9.0647727025043,0.0711864630176979
10.678716,9.077765590228692,0.0710048242979949
10.681096,9.091689643512863,0.0708221120783342
10.683500000000002,9.107755567170308,0.0706260374953658
10.685884,9.126382670081613,0.0704019407796149
10.688268,9.143426981127083,0.0701732332452848
10.690664000000002,9.159959435493354,0.0699338057623393
10.693048,9.175700493926705,0.0696932287725716
10.695444000000002,9.19120923493458,0.0694316551532596
10.697848,9.202853544076484,0.069184432443561
10.700232,9.216639723591664,0.0689233803369025
10.702612000000002,9.224279831240732,0.0686936354779199
10.705016,9.234992974822855,0.0684482644420604
10.707404,9.248127528031976,0.0681798378085065
10.709784,9.262472786054596,0.0679006541595053
10.712176,9.277377122584657,0.0676030148043442
10.714564,9.291629832808658,0.0672989672282682
10.716944000000002,9.305091147099745,0.0669939770511027
10.719348,9.320694331764107,0.0666758239263933
10.721732,9.339230782734663,0.0663490901359319
10.724116000000002,9.359909104078495,0.0660109649657374
10.72652,9.376583223929496,0.0656909458980684
10.728904,9.391395012660942,0.0653759073016803
10.731284000000002,9.401411203966632,0.0650743856105648
10.733692,9.411008086391744,0.0647879344528889
10.736076,9.42339846549619,0.0644973525350659
10.73846,9.432855578294443,0.0642166354329198
10.740852,9.442452460719556,0.0639325550600495
10.74324,9.452049343144663,0.0636491787258235
10.74562,9.463648326316193,0.0633586530112642
10.748016,9.47631824467436,0.0630631010387409
10.750404,9.496996566018192,0.0627380789983427
10.752784000000002,9.51674372180225,0.0624157277906304
10.75518,9.541006935758336,0.0620938570968929
10.757564000000002,9.563407818594866,0.061775679639856
10.759944,9.587671032550956,0.0614567307303315
10.762348,9.61337726874602,0.0611499601766293
10.764732000000002,9.636801864940946,0.0608598358937175
10.767112,9.66087808744193,0.0605785015304326
10.769516,9.68015871251716,0.06030871661878
10.771900000000002,9.69436420091292,0.0600584611142814
10.77428,9.70856968930868,0.0598080921556604
10.776684,9.720493537704302,0.0595730773476144
10.779068000000002,9.7350711131524,0.0593385280119602
10.781448,9.748577753413858,0.0591100838631966
10.783844000000002,9.758080192182485,0.0588953484244678
10.786228,9.771167523563363,0.0586809505806114
10.788624000000002,9.782764610877024,0.0584857782105745
10.79102,9.792871454123462,0.0583093504752008
10.793408,9.804840628489458,0.0581319925917612
10.795788000000002,9.81238629248204,0.0579804550971091
10.798192,9.813925654235373,0.0578485593691151
10.80058,9.816116642294762,0.0577245981717072
10.802956000000002,9.810299227368484,0.0576259733049998
10.805352,9.80713553949468,0.0575288905135392
10.80774,9.80248160755366,0.0574501902155474
10.81012,9.79424278300038,0.0573707674585434
10.812524,9.785072792887329,0.0572919880950215
10.814908,9.776042572401131,0.057208904241369
10.817288,9.769805848594274,0.0571230667196701
10.819692,9.767433556653389,0.0570293411246691
10.822076,9.76692359583206,0.0569339629857911
10.824460000000002,9.769905979824369,0.0568146625587664
10.826864,9.776101169376592,0.0566806768939952
10.829248,9.781504962995896,0.0565432035091381
10.831628000000002,9.787839922174978,0.0564046378373265
10.834032,9.793243715794286,0.0562674220884363
10.83642,9.794922847174478,0.056132702612894
10.8388,9.798883618554807,0.0559837385569175
10.841204,9.798188562136245,0.0558387448650387
10.843588,9.803639577583793,0.0556724647935034
10.845968,9.814305499337673,0.0554861817696468
10.848364,9.826182125905053,0.0552915950874536
10.850752,9.839269457285932,0.0550870292149007
10.853132000000002,9.848632126427695,0.0548854064172897
10.855524,9.855620607770708,0.0546729591657867
10.857908000000002,9.863680024300356,0.0544553201362929
10.860288,9.87509201601678,0.0542190581255379
10.862684000000002,9.883710511053868,0.0539847887508378
10.865068,9.89274831497154,0.053738765610789
