Time,Force,Position
9.716328,5.4774254404084886,0.1557201057744577
9.718708,5.57736795780804,0.1550138034961134
9.721104,5.669725172818243,0.1541817317719225
9.723492,5.747791935065547,0.1534733005259381
9.725876,5.810170548281349,0.1529441678621974
9.728272,5.866359659518535,0.1523498493578958
9.73066,5.913845311351491,0.1517208052805222
9.733044,5.94396747448849,0.1512410234540879
9.73544,5.9516963382204375,0.1510893258908899
9.737828,5.950952164115763,0.1510473847740957
9.740212,5.954724048183119,0.1509346889861637
9.742608,5.960498032996892,0.1507810798033353
9.754548,5.976186182028393,0.1506566353515601
9.756948,5.986938964007283,0.1506325307360647
9.759336,5.999414307478871,0.150585505728807
9.761716,6.017895953189707,0.1504149926096838
9.764116,6.036517368527405,0.1502343513180969
9.766504,6.057420423865239,0.1499933889208858
9.768884,6.073575103605565,0.1497962241028897
9.771284,6.084562098867801,0.1496654851436156
9.773672,6.102394014130449,0.1493596355438376
9.776056,6.1134282312209285,0.1491830338283644
9.78084,6.119851946482891,0.1491703614933203
9.795184,6.160069577719115,0.1491134489465961
9.797567999999998,6.167890989249679,0.1490105502572988
9.79996,6.173897291488931,0.1488918009698814
9.802348,6.180090585183283,0.1487182022521889
9.804728,6.177391532160436,0.14866920900845
9.807132,6.173389226525472,0.1486148323108004
9.809516,6.168595524957589,0.1485665519359677
9.8119,6.163522284135987,0.1485363211435357
9.823844,6.138992801931263,0.1484630143245808
9.826224,6.137224914468193,0.1483985923184239
9.828624,6.142581486259255,0.1481441024610155
9.831008,6.139976876892892,0.1479995805922772
9.833388,6.13900228122061,0.1477946939182416
9.835792,6.13700397218993,0.1475670399333688
9.83818,6.135192654614355,0.1472834912513821
9.84056,6.131658775546083,0.1470218803306358
9.842956,6.132920493903564,0.1466738423876632
9.845344,6.130270558566829,0.1464440322883895
9.847724,6.1310657462154845,0.1461747089866991
9.850124,6.131441624983561,0.1459328654760141
9.852508,6.138335662670086,0.145588125664543
9.854904,6.145462017782086,0.1452710016487676
9.8573,6.156173265506341,0.1449092689350216
9.859684,6.171587562857731,0.1444336663778657
9.862068,6.182765341290809,0.1440055669243992
9.864468,6.192639867111772,0.1435689674429669
9.866856,6.202654162559593,0.1431208635059256
9.869236,6.216812429127109,0.1425895207069078
9.87164,6.233811414202204,0.1419717229618292
9.874028,6.249087837784602,0.1413790831148968
9.876408,6.2608719165533655,0.1408746429233387
9.878804,6.275542039800079,0.140360183728003
9.881187999999998,6.292586350845548,0.1398336275822103
9.883568,6.309211353010437,0.1393338977967617
9.885976,6.321412844801912,0.1389305285313884
9.88836,6.32849197808567,0.1386666911874817
9.890743999999998,6.33845715584738,0.1384000176783568
9.924192,6.282090532444436,0.1381459403641476
9.926572,6.286327051362746,0.1381071138673596
9.928976,6.289260317668942,0.1380612536118512
9.931359999999998,6.292752662482578,0.1379828195961667
9.933744,6.3058362021477175,0.1377649600729277
9.936139999999998,6.3222723169996335,0.1374725629342275
9.938527999999998,6.338104027373733,0.137134710905632
9.940908,6.357800169613808,0.1367397501029963
9.943304,6.380010269279497,0.1363214456941406
9.945692,6.407667592676996,0.1358331286893238
9.948087999999998,6.440260283127105,0.1352693297772614
9.950488,6.470571333577079,0.1347610645401223
9.952876,6.50726077331864,0.1341731017077942
9.955256,6.543251364925901,0.1336277269463944
9.957656,6.582874070973657,0.1329977421712926
9.960044,6.614535595863988,0.1324555254495702
9.962424,6.6405175795970335,0.1319552025193691
9.96482,6.6655683977703,0.131469842402508
9.967208,6.689827820010649,0.1309930573684573
9.969587999999998,6.7114335151985225,0.1305447027382687
9.971984,6.733738058520698,0.1300568319280028
9.974372,6.747894429230346,0.1297039923653672
9.976755999999998,6.759769159939856,0.1293993267648513
9.979152,6.774809474381039,0.1290831279113196
9.98154,6.781561846582834,0.1289084618377433
9.98392,6.795111916956798,0.1286412972194162
9.986316,6.806752434382962,0.1284407152506865
9.988703999999998,6.8171822469956265,0.1282683510240814
9.991088,6.828543225168071,0.1280853278647238
9.993484,6.83673861960884,0.1279161158261013
9.995872,6.841488891064218,0.1277771003275283
9.998252,6.843213348414784,0.1276432341545917
10.000652,6.842563617966595,0.1275196831862957
10.00304,6.8401913260257095,0.1274098485773317
10.00542,6.835816933338407,0.127329184180158
10.007815999999998,6.838100469196412,0.1271659493679565
10.010203999999998,6.844201215092148,0.1269951253621038
10.0126,6.848811716920666,0.1268648777965269
10.014996,6.849278247629491,0.1267998166315923
10.017384,6.850955483151815,0.126708806667767
10.019764,6.854075740913114,0.1266196039150185
10.022164,6.864413005727161,0.1264179486065758
10.024552,6.879034011287763,0.1261454669395268
10.026932,6.885274526810361,0.125967574378157
10.029328,6.895147156773453,0.125712246742833
10.031716,6.894637195952126,0.1255812694736508
10.034095999999998,6.893894917705319,0.1254230129330234
10.036492,6.888496811659623,0.1253172844794807
10.03888,6.881376144121229,0.1252251792385001
10.041263999999998,6.878771534754868,0.125087710325903
10.04366,6.873605746134648,0.1250088998673394
10.046043999999998,6.875469973112073,0.1248688985769473
10.048428,6.87626326490286,0.1247468626259481
10.050824,6.8850649596793145,0.1245137322023875
10.053207999999998,6.8955892159484655,0.1242689861850184
10.055604,6.9011781051650045,0.1240904813580507
10.058,6.904951885090229,0.1238916809023941
10.060388,6.91249754908281,0.123612205782695
10.062767999999998,6.927260220128143,0.1232277413006815
10.065172,6.94495615747967,0.1228099852268402
10.06756,6.96134884221908,0.1223852424167433
10.06994,6.973877095092518,0.1220087614208059
10.072336,6.9821216072194,0.1217009027252749
10.074724,6.996884278264733,0.1213247800217452
10.077104,7.01350928042962,0.1209339928647737
10.0795,7.041867347819289,0.1204063013639364
10.081888,7.073810307821211,0.1198528920383778
10.084272,7.112550965995302,0.1192203953630861
10.086668,7.157297926408644,0.1185198135605259
10.089056,7.199251390142648,0.1178529117758145
10.091435999999998,7.244836968317152,0.1171165569792951
10.093832,7.284835553132982,0.1164407569074307
10.096224,7.325485764254873,0.1157696789238958
10.098603999999998,7.356265241271538,0.1152188070904818
10.101004,7.38425122160887,0.114695902468191
10.103392,7.415310237879256,0.1141327950221097
10.105771999999998,7.445530636388481,0.1136126912480236
10.108168,7.473050086016989,0.1131544832355734
10.110556,7.494283694152525,0.1127841324299063
10.112939999999998,7.512444266355006,0.1124556199939834
10.115336,7.531908091169604,0.1121397264983395
10.117724,7.552954707850038,0.1118212983395901
10.12012,7.577074360463526,0.1114658654992282
10.122516,7.599890760464899,0.1111024349807649
10.124904,7.61777179341366,0.1107945495297008
10.127284,7.626293948936394,0.1106079418821705
10.12968,7.631882838152935,0.1104527142928878
10.132068,7.633747065130359,0.1103293198609622
10.134448,7.627463119495257,0.1103005486858318
10.139232,7.615359863076008,0.1102924346282007
10.141612,7.612753357851776,0.1102708134385096
10.144012,7.614151054120378,0.1102065472661269
10.1464,7.622206678934289,0.110083625560735
10.14878,7.633055800427535,0.1099388565331902
10.15118,7.645767253040337,0.1097810342775327
10.153568,7.660480806399557,0.1096027581165092
10.155948,7.672400863079441,0.1094451899828525
10.158344,7.687533725319242,0.1092461402688376
10.160732,7.700524717185764,0.1090739658108692
10.163128,7.710582442746092,0.1089305736855347
10.165524,7.719848772373501,0.1087885254885467
10.167912,7.722969030134799,0.1087160012619887
10.170296,7.725250670134936,0.1086820178962989
10.172692,7.729906497933827,0.1086450012491254
10.175076,7.736704196105996,0.1085799053245474
10.177456,7.741499793531748,0.1085360206579132
10.17986,7.748809348383113,0.1084828794561352
10.182248,7.761054270287093,0.1083793388085639
10.184628,7.777443163310764,0.108228059681554
10.187027999999998,7.790247163722184,0.1081006189926261
10.189412,7.803330703387324,0.1079620753875796
10.191796,7.809616544880296,0.1078871862308393
10.194192,7.81431959450743,0.1078147463110823
10.196576,7.818091478574786,0.1077498209642438
10.198956,7.818650557082226,0.1077248816382331
10.20136,7.817906382977552,0.1076890151924113
10.203748,7.821306179992571,0.1076066993940624
10.206128,7.82470597700759,0.1075248016590955
10.208524,7.835183011448498,0.1073711016761935
10.210912,7.847290059583486,0.1071798040533298
10.213292,7.863541078838167,0.1069452905741319
10.215688,7.886357478839539,0.10662722033808
10.218072,7.9090813310422945,0.1062788726185247
10.220468,7.932923340259932,0.1058836706722135
10.222864,7.956253492798372,0.1054768323275619
10.225252,7.98079435015031,0.1050495101643567
10.227632,8.002029854143716,0.1046311627324199
10.230035999999998,8.020471861457786,0.1042337909743031
10.232423999999998,8.03239570985341,0.1038837626787407
10.234804,8.04445932787589,0.1035270639768205
10.2372,8.051727348472621,0.1032093665643763
10.239588,8.062999570562187,0.1028526239046484
10.241968,8.071990152651614,0.1025277131199576
10.244371999999998,8.077675381382509,0.1022101618577165
10.246756,8.084338997501424,0.1018503292423025
10.24914,8.089791908806843,0.1015093452293306
10.251535999999998,8.095524359365982,0.1011576984824938
10.25392,8.10139657955198,0.1008014344456436
10.256304,8.098608770446253,0.1005141225780027
10.2587,8.095541422086804,0.1002390248121287
10.261088,8.08460544036855,0.1000311017427237
10.263472,8.072318984209936,0.0998472777254321
10.265868,8.062406715850077,0.0996632118097
10.268256,8.049002102676582,0.0995262578765782
10.270636,8.03853075580928,0.0993653167759619
10.273036,8.033134545621452,0.0991578422079256
10.275424,8.028250192112822,0.0989616793563783
10.277804,8.021922816365215,0.0987585788560383
10.2802,8.017597541364026,0.0985370829817717
10.282588,8.014343201549474,0.0983036586376503
10.284972,8.012811423227621,0.0980636152903586
10.287368,8.00834637859957,0.0978468058647054
10.289752,8.003229707665465,0.097623202404974
10.292151999999998,8.001418390089889,0.0973938427894986
10.294548,7.998908224380013,0.0971945737579671
10.296936,7.995187353856638,0.0970124882879434
10.299316,7.989324612959987,0.0968538935038705
10.301716,7.9793179009436415,0.0967359488905716
10.304104,7.973175620793269,0.0965884410647452
10.306484,7.968104275829535,0.0964292296226021
10.308884,7.967688758664692,0.0962407992300804
10.311272,7.964200205566795,0.0960815093402646
10.313655999999998,7.959128860603061,0.0959219145700921
10.316052,7.954988681199105,0.0957561343775085
10.31844,7.946564761048596,0.0956371218629917
10.32082,7.931715229778256,0.0955877722459479
10.323216,7.919007568881192,0.0955150290336068
10.325603999999998,7.911747131715938,0.0954143903724288
10.327984,7.904998551229882,0.0953259592874862
10.330379999999998,7.9009036977963,0.0952270854113135
10.332767999999998,7.897740009922497,0.0951226411262361
10.335148,7.897509588354888,0.0949957970499357
10.337544,7.901143598653254,0.0948414885443864
10.339932,7.90384644339184,0.094692872714328
10.342327999999998,7.905478352943788,0.0945554247522063
10.344724,7.913256334361849,0.0943628619742155
10.347112,7.921685942085967,0.0941766954444757
10.349495999999998,7.938123952795751,0.0939256791364933
10.351892,7.954422193878676,0.0936810380176112
10.35428,7.967367859774825,0.0934756319698441
10.356659999999998,7.977380259364778,0.0932916851103095
10.359056,7.991396860447565,0.0930752211994005
10.361444,8.002060886343576,0.0928974091229401
10.363824,8.013516308172505,0.0927200769175818
10.366224,8.028975931494267,0.0925101622266557
10.368612,8.05272349705542,0.0922255681360163
10.370992,8.075679666683653,0.0919418475012895
10.373392,8.09463163481905,0.0916919000207148
10.375775999999998,8.112792207021531,0.0914409674661234
10.37816,8.125086246611623,0.0912323898953074
10.380556,8.137380286201713,0.0910240621338109
10.382943999999998,8.148882929858887,0.0908158560816936
10.385324,8.157312537583003,0.0906348515421794
10.387719999999998,8.16695285012062,0.0904380181213202
10.390108,8.178735033031513,0.0902200662231514
10.392504,8.184650683330016,0.0900438993372406
10.3949,8.19778334068127,0.0898083369735588
10.397288,8.203978530233492,0.0896239024598871
10.399672,8.211384424599212,0.0894241302891301
10.402068,8.225076160457908,0.0891696751170224
10.404456,8.244122572249792,0.0888656192856
10.40684,8.262237818481898,0.0885680743441927
10.409236,8.288501237326534,0.0882086319070383
10.411624,8.316906526544447,0.0878308268810156
10.414003999999998,8.343589254269661,0.0874585961174586
10.4164,8.358259377516376,0.0871721888223701
10.418788,8.373441357442287,0.0868988051694215
10.421172,8.38727286292784,0.0866449974115339
10.423568,8.404037634719588,0.0863735801387164
10.425956,8.42480660800417,0.0860734895402286
10.428335999999998,8.442642314982557,0.0857907508540527
10.430732,8.46098987864014,0.0855211916163542
10.43312,8.484133039723476,0.0852266069305125
10.435503999999998,8.506856891926232,0.0849499384786267
10.4379,8.527578643382572,0.0846876831730983
10.440284000000002,8.552816453010943,0.0844110501619944
10.44268,8.566181427787672,0.0842126458298377
10.445076,8.582479668870597,0.0839966379076866
10.447464,8.595704874020464,0.0838039335730225
10.449840000000002,8.601713072117587,0.0836671687749566
10.45224,8.607301961334125,0.0835479967280315
10.454628,8.612890850550665,0.0834293518020039
10.457008000000002,8.61340460308773,0.0833467215098553
10.459412,8.613918355624797,0.0832645208747276
10.461796,8.612150468161726,0.0832055395140935
10.464176000000002,8.61904260999038,0.0831018137570366
10.46658,8.627424995886255,0.082973907922676
10.468964,8.641162057715322,0.082801317989713
10.471344000000002,8.654247493238334,0.0826232898398784
10.473752,8.666401763201563,0.0824495572700917
10.476136,8.684702105030905,0.0822337292244843
10.478516,8.702490590181048,0.0820065738166847
10.48092,8.712829750852965,0.0818083859387587
10.483308,8.722796824472544,0.0815935692828007
10.485688,8.734765998838542,0.0813668491319539
10.488092000000002,8.744221215778925,0.0811414456349604
10.490480000000002,8.759403195704834,0.0808889823717096
10.49286,8.773514240444108,0.0806458640759971
10.495256,8.792420882609132,0.0803811127232615
10.49764,8.816682200707353,0.0800735073536196
10.50002,8.836147921379817,0.0797890495816063
10.502424,8.85188897981317,0.0795180180772252
10.504808,8.866838642313605,0.0792452567495797
10.507188,8.879274347388424,0.0789733203391921
10.509592,8.8959937932098,0.0786680700997077
10.51198,8.912341151978836,0.0783484380820538
10.51436,8.927757345188096,0.0780343050218227
10.516756,8.941590746531517,0.0777189114554299
10.51914,8.955004838994357,0.0774199416544829
10.52152,8.967627535524283,0.0771192442670776
10.523924,8.978248131307788,0.0768316830765391
10.526308,8.991010597464573,0.0765298751084304
10.528688,9.008428891420248,0.0762129323278285
10.531092,9.024776250189284,0.0759044595168947
10.53348,9.038469881905844,0.0755999077166204
10.53586,9.046948607316075,0.0753280787742736
10.538256,9.05519501530083,0.0750351764434661
10.54064,9.063860732166162,0.0747278555142395
10.543024,9.070152261232742,0.0744156498829106
10.545428,9.072439588806487,0.0741245894288492
10.547812,9.074866686007091,0.0738275350114061
10.550192,9.08208938063345,0.0735120940167264
10.552588,9.090662549700166,0.073179474728973
10.554976,9.101889445819356,0.0728449830425277
10.557356000000002,9.108692831565133,0.0725457703716332
10.55976,9.111212476564354,0.0722769009427119
10.562148,9.112521416750075,0.0720209373688044
10.564528,9.1114089473088,0.0717897338263594
10.566924,9.108853455628552,0.0715489897832582
10.569312,9.112024726933832,0.0712901063757349
10.571692000000002,9.116127163798891,0.0710300145153226
10.574096,9.11380398954412,0.070812598323944
10.576484,9.112551750475983,0.070588831541144
10.578864,9.112882303273688,0.0703701835789134
10.581268,9.11800845349714,0.0701360039207249
10.583652,9.1322139418929,0.0698577400707039
10.586032,9.148514078833694,0.0695984034861764
10.588436000000002,9.167607712453824,0.0693345181461154
10.590824,9.186142267566511,0.0690903199494951
10.593204,9.208541254545176,0.0688337203638272
10.5956,9.236806774136223,0.0685569431268572
10.597988,9.262930423353998,0.0682949796915118
10.600368,9.29049709481075,0.0680448437740801
10.602764,9.314199334401527,0.0678080509251415
10.605148,9.340322983619304,0.0675484561924873
10.607544,9.370730373583632,0.0672635572464231
10.609940000000002,9.40020659798818,0.0669809998499598
10.612328000000002,9.431033296833087,0.0666832023284098
10.614708,9.4623718523572,0.0663981032532082
10.617104,9.488914810455556,0.0661297974416432
10.619492,9.51466637262099,0.0658607988194668
10.621872,9.548566107398957,0.0655552770158258
10.624268,9.57725093587059,0.0652769446428003
10.626656,9.604213202849524,0.0649980479102913
10.629036,9.627822894641682,0.0647441698084189
10.631432,9.647428384941009,0.0645080649015609
10.63382,9.660515716321886,0.0642835239955227
10.636216,9.663313004716958,0.0641065243676532
10.638612000000002,9.664108192365616,0.063937075642421
10.640996,9.664903380014271,0.0637684662260433
10.643376,9.6587610998639,0.0636248302421452
10.645784,9.65196719340747,0.0634735660593946
10.648168000000002,9.644242121391262,0.063324212844584
10.650548,9.63837938049461,0.0631714750244532
10.652944000000002,9.634518740344374,0.0630115084824067
10.655332,9.625163654634086,0.0628857035248176
10.657712,9.613526928923664,0.0627759115401142
10.660116000000002,9.602402059892436,0.0626780283739269
10.662504000000002,9.593419061234483,0.0625683308196892
10.664884,9.5804318610837,0.0624728409325114
10.667280000000002,9.56316092018636,0.0624006443371053
10.669668,9.542025547423052,0.0623380890279037
10.672048,9.525313685033153,0.0622473947851974
10.674444,9.510603923389672,0.0621492331303855
10.676832,9.495522074693854,0.0620342488001341
10.679212,9.4776467293187,0.0619227156398392
10.681616000000002,9.466708851742576,0.0617883003592971
10.684004000000002,9.46913405308531,0.0615967513131695
10.686384,9.474772059987965,0.0613878897295375
10.68878,9.47747680058442,0.061187735195876
10.691168,9.481904102673573,0.0609887919844584
10.693548,9.491266771815338,0.0607758694525373
10.695952000000002,9.498767109837546,0.0605656380635573
10.698340000000002,9.50398580785962,0.0603708020210026
10.70072,9.505991700321776,0.0601932665368659
10.703116,9.511489937597569,0.0599895522504323
10.705504,9.524344951552967,0.0597515767660785
10.707884,9.538550439948729,0.0595004123250846
10.71028,9.551824762784708,0.0592517198725288
10.712668,9.572827949352636,0.0589860465708451
10.715064000000002,9.599977207786674,0.0586969715465619
10.71746,9.626846926966994,0.0584173454694194
10.719848,9.653716646147313,0.058139609693066
10.722228,9.681657300514267,0.0578585566568824
10.724624000000002,9.709318415627507,0.0575866121014401
10.727012000000002,9.742846063353134,0.0573014202974476
10.729392,9.773300675145704,0.0570296082967272
10.731796,9.797469445445309,0.0567872587640923
10.734184,9.821638215744908,0.0565462451636538
10.736564,9.844875820484727,0.0563058498320319
10.738964,9.87053483485155,0.0560473044725517
10.741352,9.889908007725396,0.0558159298720479
10.743732,9.911423050972523,0.0555752663331271
10.746128,9.936570208660148,0.0553071576980004
10.748516000000002,9.964930171907683,0.0550251920069203
10.750896,9.995943862207696,0.0547474059888844
10.753296,10.023884516574656,0.0544826819012226
10.755680000000002,10.046750034262145,0.0542341227341288
10.758064,10.06868438638985,0.0539871806418452
10.760460000000002,10.08167916997211,0.0537621831469998
10.762848000000002,10.08759671612848,0.0535579490951774
10.765228,10.092862635978795,0.0533459196903704
10.767624,10.09784901657539,0.0531429281092298
10.770012,10.093476519745955,0.0529729438332854
10.772408000000002,10.088964253289662,0.0528068487459682
10.774804,10.07844568459412,0.0526562194836217
10.777192,10.070720612577912,0.052504510913639
