Time,Force,Position
9.406416,5.009654980138301,0.1675993991588952
9.408816000000002,5.094236109588314,0.1668114718510717
9.411204,5.169229835902561,0.1659703186560772
9.413584,5.230025657252527,0.1653087282278041
9.415988,5.284911515877597,0.1645631769615292
9.418376,5.338171152524327,0.1635787482254228
9.420756,5.377652193087354,0.16272887904211
9.423151999999998,5.403632280962531,0.1621329092778995
9.425540000000002,5.420533030665401,0.161779026645441
9.427924,5.438457493726666,0.1614526265141487
9.430319999999998,5.464203368318495,0.1609929484811516
9.432708000000002,5.492323430709079,0.1605033488708953
9.435088,5.518301622726385,0.1600717849895543
9.437492,5.540647700303195,0.1597647363255999
9.439875999999998,5.567370066425176,0.1593907960532591
9.442256,5.595814994039854,0.1589901712516054
9.44466,5.621606194602059,0.1586443580618111
9.447048,5.652240214418257,0.1581370117273012
9.449432000000002,5.684132160876197,0.157530682873554
9.451828,5.708202695803573,0.1570580997063669
9.454211999999998,5.722542266252585,0.1568069440949963
9.456596,5.739675333380933,0.1565021809061375
9.458992,5.754666530136002,0.1562554507628804
9.461379999999998,5.77235867577179,0.1559159752960728
9.46376,5.7879089510343,0.1556376455522888
9.466156000000002,5.80248083890879,0.1554314739625899
9.468544,5.817796900887955,0.1552685543870669
9.470924,5.832321566934201,0.1551136071118037
9.47332,5.848476246674528,0.1548942644701206
9.475708,5.865329774549155,0.1546314322097781
9.478088,5.880740280184806,0.1543775113374092
9.480491999999998,5.897641029887675,0.1540716604290531
9.482880000000002,5.916963189217542,0.1536953061252621
9.48526,5.937403505562291,0.1532456329307437
9.487656,5.955190094854567,0.1528434098604178
9.49004,5.969903648213786,0.1525063982849523
9.492424,5.978471129706893,0.1523011389713375
9.494827999999998,5.986898841573142,0.1521064355112449
9.497216000000002,5.99970284198456,0.1518518000080157
9.499592,6.019536857993627,0.1514987298114555
9.502,6.042676227361224,0.1511063851447788
9.504383999999998,6.063022100049487,0.1507634180216094
9.506764,6.085649612737885,0.1503636149172239
9.509168,6.104692232814033,0.1500215291113604
9.511556,6.121220895464565,0.1497094289537062
9.513936,6.137377471062761,0.1493794436643854
9.51634,6.153161959608618,0.149029184779855
9.518728,6.169086217781337,0.1486702142384421
9.521107999999998,6.184498619274857,0.1483034856546028
9.523504,6.198979855208599,0.1479570970780123
9.525892,6.2158352789410936,0.1475971261214384
9.528272,6.230781149725789,0.1473145122082493
9.530676,6.246378646816543,0.1470375386486353
9.533064,6.259694503907161,0.1468165870917018
9.535443999999998,6.2722189650648605,0.1466035326624836
9.53784,6.289958332528891,0.1462847063368443
9.540223999999998,6.319570534844563,0.1457531374534061
9.542604,6.346808549361481,0.1452388611722921
9.544999999999998,6.370880980146727,0.1447541910586687
9.547388000000002,6.388575021640385,0.1443620642824587
9.549768,6.406688372014622,0.1439461742988394
9.552164,6.427734988695055,0.1434816521449486
9.554552,6.446919274255931,0.1430482674890447
9.556932,6.4667551861228665,0.1426176193013287
9.559328,6.490967386534972,0.1421387837784676
9.561716,6.513270033999277,0.1417319610539573
9.564112000000002,6.535572681463584,0.1413258869100556
9.566508,6.556944163368111,0.1409330913547457
9.568896,6.574031904526083,0.1406269231929455
9.571276,6.588046609751001,0.1403789356709407
9.573671999999998,6.598895731244247,0.1401543423301908
9.628616,6.443427104060784,0.1399420610569528
9.631011999999998,6.441379677343992,0.1398953437406275
9.633399999999998,6.441334351373618,0.1398147520885033
9.63578,6.44422229170944,0.1396873492143992
9.638179999999998,6.446318836112344,0.1395655242865869
9.640564,6.453770056448439,0.139339088308319
9.642948,6.462991060105476,0.1390531659855738
9.645344,6.476635574135925,0.1386802169145664
9.647728,6.486927512979598,0.1383755580639605
9.650128,6.503597841114861,0.137994992905191
9.652524,6.530930299288265,0.1374594519874193
9.654908,6.564920686006976,0.1368291066052848
9.657291999999998,6.5909026697400215,0.1363314483934831
9.659696,6.620609315712179,0.1357895071396892
9.662084,6.655530867990671,0.1351661028245718
9.664464,6.693525456202217,0.1345015877549398
9.66686,6.737945655533594,0.1337215884453407
9.669248,6.783856098932191,0.1328943796667939
9.671632,6.826833276024592,0.1321189539453812
9.674028,6.870509301251295,0.1313090922743647
9.676416,6.91395300905252,0.1304708943868134
9.6788,6.950599018681577,0.1297315502343966
9.681196,6.982169891631162,0.1290752939412458
9.683584,7.011738663834329,0.1284507404460781
9.685968,7.038094630477582,0.1278830153710326
9.688364,7.062448496374418,0.1273488428316221
9.690752,7.0827981607784185,0.1268763991893163
9.693132,7.096210357383392,0.1265058812629035
9.731372,6.891208651650179,0.1262416130007
9.73376,6.880455869671288,0.1262251969775624
9.73614,6.871844958065675,0.1261732561930087
9.738544,6.866539399818595,0.1261028977929038
9.740932,6.864818734183768,0.1259993393961766
9.743312,6.863936686310102,0.1258525488953394
9.745708,6.863286955861913,0.125731469186207
9.748096,6.868736075451592,0.1255615825698035
9.75048,6.877490548399803,0.1253747058219017
9.752876,6.889969683587127,0.125147833380684
9.755264,6.908175581759983,0.124852544785058
9.757644,6.928243811052395,0.1245357203586417
9.76004,6.948963666650864,0.124222787839213
9.762428,6.970614687809111,0.1238980552066405
9.764808,6.998831089714052,0.123465275705008
9.767204,7.032541937179044,0.1229399321222854
9.769588,7.059827173524205,0.1225189286079216
9.771972000000002,7.0911166113622,0.1220460673886602
9.774368,7.117191142893864,0.1216555976901407
9.776756,7.141635660731447,0.1213101813701237
9.779136,7.165800639315308,0.1209814883114854
9.781536,7.185681877152617,0.120722692797559
9.783924,7.20221053980315,0.1205227812817238
9.78632,7.220369216147762,0.1202807236163447
9.788716,7.237736496559455,0.1200417939246606
9.791104,7.249609331411096,0.1198930964867445
9.793488,7.265765907009291,0.1196781832582668
9.795884,7.279688064435591,0.1194648587078706
9.798268,7.289885559622779,0.1192898808680274
9.800652,7.301573298877186,0.1190801472540314
9.803048,7.311678246265757,0.1188759803826947
9.80544,7.32006063216163,0.1186823134551508
9.80782,7.327139765445389,0.1184783873285595
9.810216,7.339014496154898,0.1182239826253297
9.812604,7.344463615744578,0.1180665169506608
9.814988,7.345628994587703,0.1179723576132116
9.817384,7.352288818990881,0.1177929584329808
9.819772,7.355084211528085,0.1176561047437207
9.822152,7.357088208132371,0.1175204789501287
9.824548,7.364074793617512,0.1172889290050062
9.826936,7.371620457610095,0.1170312846953408
9.829316,7.377583329736839,0.1167756810521772
9.831716,7.386107381117444,0.1164687718005684
9.834104,7.388485360631937,0.1162415904548015
9.836484,7.39100310977329,0.1160077720374678
9.83888,7.398595995594116,0.1157100944479717
9.841268,7.403255615108745,0.115445778347325
9.843652,7.408427091302574,0.1151940302544962
9.846052,7.412387862682903,0.1149633932244888
9.848436,7.412204662943537,0.1147881460837631
9.85082,7.410531219136954,0.1146484443090929
9.853216,7.412722207196341,0.1144681869747196
9.855604,7.417427152681346,0.1142762006762194
9.858,7.417616039994319,0.1141203158533212
9.860396,7.41929517137451,0.1139289392065631
9.862784,7.424047338687758,0.1136996028871641
9.865164,7.425726470067949,0.1135090492515659
9.867564000000002,7.430199098127475,0.1132943271773198
9.869948,7.439886632493335,0.1130128763521439
9.872332,7.442869016485642,0.1128339104143739
9.874728,7.443290221224093,0.1127045786871123
9.877116,7.45130052006763,0.1125051887907549
9.8795,7.457960344470807,0.1123344557477792
9.881896,7.469555535926597,0.1121107884896461
9.884284,7.483013058501943,0.1118728062668745
9.886668,7.496470581077291,0.1116371891383737
9.889064,7.510719499585554,0.1114001289264997
9.891452,7.523385626227983,0.1111657259801778
9.893832,7.539264558430325,0.1108881751213806
9.896235999999998,7.554863951378948,0.1106227821423325
9.898624000000002,7.574886854700987,0.1102952842946841
9.901004,7.592907657276608,0.1099915173874396
9.9034,7.608646819852092,0.1097224437947531
9.905788,7.625689235039692,0.1094646012114315
9.908168,7.64217257171985,0.1092332462676424
9.910571999999998,7.655582872466953,0.109038431131675
9.912959999999998,7.670995273960472,0.1088224856824132
9.91534,7.680541142841602,0.1086641882863277
9.917736,7.687945141349457,0.1085355118586144
9.920124,7.70163498135028,0.1083299960800804
9.922508,7.715604360604823,0.1081107397652924
9.924904000000002,7.723846976873837,0.1079442276746152
9.927292,7.73194982351599,0.107784252029403
9.929676,7.737119403851948,0.1076531934371975
9.932072000000002,7.739215948254851,0.1075571088779027
9.93446,7.739310391911338,0.1074822010617396
9.93684,7.739544605194685,0.1074009293509897
9.939244,7.741501379970727,0.1073117304252936
9.941631999999998,7.746251651426105,0.1072021214006773
9.944012,7.75328356288162,0.1070595291410734
9.946407999999998,7.7598961654565555,0.1069374955112168
9.948796000000002,7.768510868777906,0.1067961692771022
9.95118,7.779826520979977,0.1066040176668784
9.953575999999998,7.792632417249266,0.1063815328173841
9.955964000000002,7.806928557585773,0.1061282258238045
9.958348,7.824437503482196,0.1058371938520724
9.960748,7.841806679751759,0.1055538469246878
9.963136,7.866392863074072,0.1051933089681047
9.96552,7.8857641400900516,0.1048890511433767
9.967916,7.901131215613198,0.1046254237506677
9.970308,7.919291787815679,0.1043428059142005
9.972688000000002,7.939314691137716,0.1040474223297385
9.975088,7.96255040001967,0.1037163521269435
9.977476,7.989650540767597,0.1033552143163534
9.979856000000002,8.019032321515661,0.102963764440901
9.982256,8.047482936703947,0.1025786481977396
9.984644,8.07700448707887,0.1021825842622455
9.987023999999998,8.104663706334238,0.101799877448655
9.989424,8.126735932230936,0.1014574888005289
9.991812,8.150018862941131,0.1010999228923063
9.994196,8.169716901039076,0.1007629246858614
9.996592,8.183408636897768,0.100480083157454
9.99898,8.197891768689377,0.1001994402715697
10.001364,8.207299763801519,0.0999669931464361
10.00376,8.216707758913657,0.0997358675540787
10.006152,8.224113653279378,0.0995236751623297
10.008536,8.230588382085323,0.099317845542934
10.010928,8.233058909398432,0.0991480269968107
10.013312,8.241955047831373,0.0989077317735337
10.015692,8.25406399182423,0.0986334084039254
10.018088,8.263798748018333,0.09835983850009
10.020472000000002,8.273952813093015,0.098070177322781
10.022856,8.281313381488362,0.0977991628885885
10.025251999999998,8.28387835245796,0.0975622657092335
10.027639999999998,8.28444122268114,0.0973424111872803
10.03002,8.287145963277595,0.0971002925202746
10.032416,8.289990473500913,0.0968533303998099
10.034804,8.295908019657285,0.0965793803353407
10.0372,8.30475883211985,0.096283760116691
10.039596,8.309186134209003,0.0960382568279268
10.041984,8.312542501111519,0.0958031101068196
10.044364000000002,8.322184709507006,0.0955069137834491
10.04676,8.33182691790249,0.0952129727425558
10.049148,8.347615198164085,0.0948653997111379
10.051528,8.362332543239043,0.0945299800067599
10.053932,8.37597895312736,0.0942053979099394
10.05632,8.390975837456038,0.0938599349746397
10.058696,8.406903887344495,0.0935095144459618
10.061096,8.421621232419453,0.0931777861796376
10.063479999999998,8.433917167867415,0.0928798902997832
10.06586,8.447516355927489,0.0925949156236244
10.068268,8.459765069547206,0.0923326130593867
10.070652,8.469592373539925,0.0921019583915756
10.073032,8.48156154790592,0.0918501166067075
10.075436,8.494461887831696,0.0915935162093125
10.077824,8.507501997384331,0.0913329660818721
10.080203999999998,8.51854000619055,0.0910881791963384
10.082608,8.526644748690572,0.0908640369699767
10.084996,8.533678556003956,0.0906508373960105
10.087376,8.544344477757836,0.0903905910151847
10.089772,8.558083435444773,0.0901054270228953
10.09216,8.567678422012015,0.0898559744343327
10.09454,8.571267106340008,0.0896504700373315
10.096936,8.571922524361803,0.0894652098497721
10.099324,8.573788647197098,0.0892649524567201
10.101704000000002,8.576725705219033,0.0890546560412066
10.104104,8.575658561748133,0.0888729735846171
10.106488,8.574731187904094,0.0886859546728254
10.108868,8.573012418127133,0.0884982108990683
10.111268,8.57185272685762,0.0882888326794653
10.113651999999998,8.568318847789348,0.088076077807644
10.116032,8.563202176855238,0.0878607583593781
10.118428000000002,8.558784354055433,0.0876173245681307
10.120816,8.552224660882349,0.0873930796658763
10.123212,8.546735902895904,0.0871592640799642
10.125608,8.537894569722681,0.0869598958871812
10.127996,8.530124171736102,0.086750522811235
10.13038,8.524495644122796,0.0865217346238623
10.13278,8.518867116509488,0.0862929530645377
10.135164,8.50802368258985,0.0861062005896842
10.137548,8.494107212737156,0.0859425257388079
10.139944,8.483403548444379,0.0857496890176842
10.142328,8.47991689120435,0.0855004914341845
10.144711999999998,8.476430233964322,0.0852514061282843
10.147108,8.46865983597774,0.0850398903454254
10.149496,8.4602378116851,0.0848212898550491
10.151879999999998,8.453678118512018,0.0845937103411921
10.154276,8.450982857204908,0.0843456794832565
10.156664,8.447356430338019,0.0841014741565064
10.159044000000002,8.44359023384427,0.0838627748597617
10.161444,8.442617534029859,0.0836123237901605
10.163832,8.444158791641057,0.0833609545994413
10.166216,8.449145172237651,0.0831053799623506
10.168612,8.4572045887673,0.082827658463197
10.171,8.46405330048345,0.0825651424096459
10.173380000000002,8.473043882572878,0.0822838903345778
10.17578,8.482825860595224,0.0820051210201113
10.178164,8.49153690343093,0.0817364553933206
10.180544,8.501318881453276,0.0814596536133107
10.182944,8.518829723207569,0.0811437250521555
10.185332,8.53834266570828,0.0808148840601003
10.187728,8.558786773768766,0.0804852021974308
10.190124,8.576669702575396,0.0801914113671002
10.192508,8.59147959544897,0.0799180403751034
10.194892,8.612295790561795,0.0796085342678332
10.197288,8.636557108660012,0.0792977561893691
10.199676,8.664822628251063,0.078965112267361
10.20206,8.688013011162644,0.0786671129428123
10.204456,8.71278618594006,0.0783736617377079
10.206844,8.73434655515756,0.0781050272971967
10.209228,8.755767154748199,0.0778431631167119
10.211624,8.777607063219419,0.077567383151997
10.214012,8.798515806130862,0.0772965569229983
10.216392,8.820355714602082,0.0770247021154539
10.218788,8.84433749344658,0.0767379498414562
10.221176,8.871532077850992,0.0764294261095197
10.223556,8.898075035949349,0.0761154084409974
10.225956,8.924478224420843,0.075807427258213
10.22834,8.947808376959282,0.0755186544747242
10.230720000000002,8.967413867258609,0.075243864424958
10.23312,8.990092393490992,0.074952660337523
10.235508,9.012631150096512,0.0746690692487638
10.237904,9.034797819649697,0.0743694925385281
10.2403,9.06255148256155,0.0740540034095419
10.242691999999998,9.086300943980572,0.0737606529756625
10.245072,9.1053945776007,0.0734815842997499
10.247468,9.122346340847551,0.073219652637268
10.249856,9.139577643348126,0.072947866768329
10.252236,9.157228254729276,0.0726628322990163
10.254632,9.18102493797654,0.072343822627952
10.25702,9.205101160477522,0.0720169716145728
10.2594,9.226244116672312,0.0717031333372716
10.261796,9.2485977776806,0.071379357603992
10.264184,9.26894933794247,0.0710666909958316
10.266564,9.283713904845673,0.0707682515955155
10.268968,9.291261464696122,0.070510184105204
10.271356,9.296667154173296,0.0702661671898834
10.273736,9.300070742904056,0.0700311742810078
10.276132,9.303753870888531,0.069785803699629
10.27852,9.304363962939952,0.0695563181291135
10.2809,9.302971954244956,0.0693372443091192
10.2833,9.29771551368399,0.0691318229716825
10.285684,9.28710439718983,0.0689603652661974
10.288064,9.275050258456696,0.0687793526110564
10.290464,9.265277759723697,0.0685796439688394
10.292852,9.257507361737112,0.0683705016824069
10.295248,9.248805798190752,0.0681636004227399
10.297643999999998,9.240616091323588,0.0679686551643479
10.300032000000002,9.230004974829429,0.0677967428695458
10.302412,9.214318721655795,0.0676491364291392
10.304816,9.196350828482023,0.0675194096814827
10.307199999999998,9.179825957547234,0.0673995087858746
10.309584,9.158225949932968,0.0673032126690191
10.311979999999998,9.134903380826003,0.0672054916931575
10.314367999999998,9.115957100264213,0.067106991298145
10.316752,9.104739683434367,0.0669834043643535
10.319147999999998,9.100971591082748,0.0668449065921525
10.321535999999998,9.1027904920898,0.0666954003477098
10.32392,9.108985681642023,0.0665462716282382
10.326315999999998,9.11983669899314,0.0663878258553412
10.328703999999998,9.129337241903896,0.0662456854057243
10.331084,9.143353842986684,0.0660995087080629
10.333480000000002,9.16365628556244,0.0659185374744946
10.335868,9.180606152951423,0.0657620444207329
10.338248,9.197416250713546,0.065611366387406
10.340652,9.215948909968365,0.0654627862699497
10.343039999999998,9.232339698849904,0.0653268442899808
10.34542,9.249149796612029,0.065177236946782
10.34782,9.26731036881451,0.065012093482844
10.350208,9.289195603256104,0.0648404174848052
10.352588,9.31094106807084,0.0646731183118947
10.354983999999998,9.336039108072349,0.0644833958622081
10.357372000000002,9.362068313633634,0.0642911291734683
10.359756,9.391542642180315,0.0641022093103443
10.362151999999998,9.422227675540494,0.063903801233723
10.364544,9.446115010728509,0.0637265667317234
10.366924,9.46348418699807,0.0635620041133316
10.369319999999998,9.475406139535822,0.0634028633045268
10.371707999999998,9.488818336140795,0.0632257542202701
10.374088,9.50157890643971,0.0630420077973306
10.376484,9.513827620059429,0.0628462030156568
10.378872,9.521280736253392,0.0626624810379005
10.381252,9.533389680246248,0.0624736002557694
10.383655999999998,9.54871142979902,0.0622671690565357
10.386043999999998,9.561751539351656,0.0620772193230934
10.388424,9.573069087411596,0.0618863460731548
10.39082,9.58773921065831,0.0616737648987337
10.393208,9.601198629091524,0.0614715873136347
10.395588,9.612655946778323,0.0612764953891511
10.397992,9.624672342972564,0.061064964468721
10.400379999999998,9.640972479913357,0.0608315740998037
10.40276,9.654199580921096,0.0606119838752913
10.405164,9.671430883421667,0.0603792164977146
10.407552,9.685077293309986,0.0601470913623121
10.409932,9.70072580394472,0.059910432523095
10.412336,9.718795724206457,0.0596534834502091
10.414724,9.735934478908412,0.0593973197312392
10.417103999999998,9.756006499916564,0.0591338013515931
10.4195,9.770211988312322,0.0588868979148059
10.421888,9.783626080775162,0.0586376129059045
10.424268,9.79783156917092,0.0583918941946762
10.426672,9.815529402380315,0.0581217669041203
10.42906,9.824567206297983,0.0578703589658928
10.431439999999998,9.8317426790961,0.0576212494480783
10.433836,9.840408395961433,0.0573540147978548
10.436224,9.848003177640129,0.0570920962306359
10.438604000000002,9.855458189691964,0.0568354735566302
10.441,9.866265776930572,0.0565599049226289
10.443383999999998,9.878935695288742,0.0562825071559321
10.445768,9.887461642527214,0.0560217467058773
10.448163999999998,9.893054323459491,0.0557687695377928
10.450551999999998,9.89892654364549,0.0555076576862653
10.452932,9.902005267152152,0.0552492671995575
10.455328000000002,9.910019357711429,0.0549795971526673
10.457716,9.90816271416548,0.054733204016646
10.4601,9.910030732858644,0.0544849919664894
10.462504,9.914040621925084,0.0542269420803728
10.464892,9.917259115058608,0.0539658842941601
10.467272,9.923131335244603,0.0537073625873795
10.469676,9.932867987296577,0.0534441258941076
10.472064,9.941953013042491,0.0531732631772357
10.474443999999998,9.946894067668714,0.0529167909791023
10.476848,9.953697453414486,0.0526586664407129
10.479232,9.963434105466458,0.0523957898277761
10.481616,9.971960052704931,0.0521418609037147
10.48402,9.981556935130044,0.0518834999657989
10.486408,9.989291486435596,0.051626320815115
10.488788,9.993813232181235,0.0513832854493729
