Time,Force,Position
12.146708,6.788630314327059,0.1564375195913505
12.149088,6.899937601614791,0.1552729287937209
12.151488,6.9985372280054605,0.1542187543333454
12.153876,7.086850603126066,0.1531582944054844
12.1921,7.076707913198612,0.1526238419920602
12.194503999999998,7.088718621819243,0.1525331135396825
12.196888,7.098914221148563,0.152427794500652
12.199268,7.106223775999932,0.1523307121849738
12.201672,7.1123698478660415,0.1522222838568646
12.204059999999998,7.126384553090959,0.1519825804222191
12.20644,7.138909014248656,0.1517860615860361
12.208835999999998,7.155437676899189,0.1515176527485321
12.21122,7.17713402402781,0.1511959524267342
12.213604,7.196781048581773,0.1509496988100337
12.216008,7.21717224724041,0.1507414964795644
12.218392,7.241240886309918,0.1505211076494245
12.220772,7.270384662058896,0.1502055659845967
12.223168,7.300227285942176,0.1498495429852448
12.225556,7.326764556466926,0.1495249648494098
12.227932,7.352370661431897,0.1492194726101581
12.230328,7.374019786732275,0.1489407451701759
12.232716,7.388918435688731,0.1487304615475752
12.235112,7.398277313114757,0.1485612583736621
12.237507999999998,7.406193168301808,0.148397327481859
12.239892,7.412805770876742,0.1482307596780383
12.242272,7.4172765030784,0.148103974951067
12.244672,7.421327926399476,0.1479986911983709
12.247056,7.4250998104668335,0.1479086851246681
12.249451999999998,7.430174947146306,0.1478235088332256
12.251848,7.437764041251395,0.1477163714866548
12.254236,7.449357336849316,0.1475448768566102
12.256616,7.464023668380291,0.1473232059130263
12.259011999999998,7.471659984313621,0.1471793858856561
12.261399999999998,7.482137018754528,0.1469608546365094
12.26378,7.487958225396543,0.1468029173779088
12.266184,7.48968268274711,0.146676706070548
12.268572,7.491174822672198,0.146526210069899
12.270952,7.492015336291228,0.1463732320689878
12.273348,7.493926785096897,0.1462005277059999
12.275732,7.490623327596234,0.146118260637248
12.278116,7.491975697894462,0.1459745314963138
12.280511999999998,7.496261334498885,0.1457861426104004
12.282896,7.498544870356892,0.1456293917622694
12.28528,7.498826305468481,0.1455050036376818
12.287679999999998,7.495475626139577,0.1454612942564103
12.290067999999998,7.493987277930226,0.1453929277699259
12.292444,7.496922440094291,0.1452387696128117
12.29484,7.500416680765797,0.1450559574047925
12.297228,7.504609769571602,0.1448380240620765
12.29962,7.507499605765293,0.1446167064862689
12.302015999999998,7.511739916399343,0.1443643680819895
12.3044,7.512395334421139,0.1441523416605323
12.306796,7.512399126136877,0.1439365112358671
12.3092,7.511192213039116,0.1437473607992935
12.311584,7.516223919606084,0.1434919118650865
12.313964,7.524980288412165,0.1431898961197782
12.316368,7.535459218710941,0.1428729915612003
12.318756,7.545658609755998,0.1425695211610841
12.321136,7.5594428934133076,0.1422298130255192
12.323532,7.577231378563451,0.1418284106511069
12.325916,7.595159633340455,0.1414241676704999
12.328295999999998,7.613879284050378,0.1410176481773261
12.3307,7.633669869946939,0.140591231794365
12.333084,7.651598124723942,0.1401858689655612
12.335463999999998,7.676463847299975,0.1396825058096089
12.337872,7.707475641742119,0.139092550933592
12.340256,7.737556270624483,0.1385200268598548
12.342636,7.764563863573794,0.1379943962878281
12.34504,7.788079111709468,0.137537129399432
12.347424,7.810755742083981,0.137123388281148
12.349804,7.831010962831495,0.1367629194030775
12.3522,7.848053378019094,0.1364522585169855
12.354588,7.86774952025917,0.136115538756182
12.356967999999998,7.884093087312467,0.1358374800879984
12.359372,7.899273171380511,0.135550022585885
12.36176,7.915524190635192,0.1352478679123169
12.36414,7.929912878770316,0.1349676856613823
12.366536,7.947654142092216,0.1346307117033014
12.368924,7.961810512801864,0.1343307008477315
12.371304,7.977968984257927,0.1340060699415149
12.373708,7.993196290154213,0.1336943340910967
12.376092,8.005490329744305,0.1334191906399734
12.378472,8.021369261946647,0.1331123541030757
12.380876,8.04404589232116,0.1327255049995116
12.383264,8.060716220456422,0.1324194543583024
12.385644,8.070309311165795,0.1322102153818901
12.38804,8.075478891501753,0.1320713604818722
12.390424,8.083162429263327,0.1319164163605009
12.392803999999998,8.091916902211535,0.1317447711846632
12.395196,8.10001974885369,0.1315698942327139
12.397583999999998,8.107331199562925,0.1313987284339884
12.399976,8.122511283630967,0.1311316961210271
12.402372,8.138203224378207,0.1308751512028556
12.40476,8.15924984105864,0.1305388343503916
12.407144,8.177363191432878,0.1302391838371151
12.409536,8.193614210687562,0.1299605737873037
12.411924,8.2105168562483,0.1296856036839619
12.414304,8.223787387368542,0.1294778616324587
12.4167,8.236126752929007,0.1292793417256228
12.419083999999998,8.245020995504081,0.1291063345309049
12.42148,8.250842202146096,0.1289738676382401
12.423876,8.257594574347891,0.1288316081119046
12.426264,8.261693219497213,0.1287114971917154
12.428643999999998,8.26099626722078,0.1286440407841021
12.43104,8.263279803078786,0.128508163501846
12.433428,8.267705209310071,0.1283418851861933
12.435804,8.278276687407466,0.1280967220247405
12.438212,8.286194438452384,0.1278717658715098
12.4406,8.296533599124302,0.1276046720706979
12.44298,8.309433939050079,0.1272900150083512
12.445376,8.320332178229437,0.1269988592099051
12.447764,8.32815738147574,0.1267490924314835
12.450143999999998,8.335051419162266,0.1265082301526233
12.452548,8.34115406091587,0.1262719622981147
12.454932,8.348048098602396,0.1260331784764064
12.457311999999998,8.357735632968254,0.1257704465590785
12.459716,8.36807479364017,0.1255118468247209
12.4621,8.379764428752447,0.1252258662063542
12.464479999999998,8.39345616461114,0.1249171957602341
12.466876,8.410872562708946,0.1245767629875774
12.469259999999998,8.431222227112945,0.1242050253298325
12.471656,8.455296553756058,0.1238014943136028
12.474052,8.48216437707851,0.123376112443098
12.47644,8.508101034841182,0.1229588060243394
12.47882,8.533199074842692,0.122580547522386
12.481224,8.556015474844063,0.1222373785273624
12.483612,8.57669000447216,0.1219254849418461
12.485992,8.60150850521995,0.1215641215174184
12.488388,8.624185135594464,0.1212327594619872
12.490772,8.644300586715119,0.1209489606680908
12.493156,8.666278368955329,0.1206487230264834
12.495556,8.68932708638218,0.1203369065291176
12.497944,8.714936983062888,0.1199818031731918
12.500324,8.741478045303372,0.1196234324358126
12.502728,8.769090042730497,0.1192529267251629
12.505116,8.790695737918371,0.1189462026557001
12.507496,8.80992724530749,0.1186445095569005
12.509892,8.833442493443163,0.1182927027136723
12.51228,8.855886806392197,0.1179553267281628
12.514664,8.8743269178484,0.1176609142914125
12.51706,8.891416554864241,0.117391701758733
12.519444,8.903990133708053,0.1171542982018621
12.521824,8.910697179939472,0.1169724160319478
12.524228,8.920197722850228,0.1167690891872729
12.526616,8.928906869828067,0.1165677085303239
12.529,8.939618117552321,0.1163462223483512
12.531396,8.946464933410601,0.1161589950025065
12.53378,8.951169878895604,0.1159983542959168
12.53616,8.954152262887913,0.1158462134212699
12.538564,8.957274416507078,0.115688425877734
12.540948,8.962119131618941,0.1155223876299253
12.543328,8.964030580424607,0.1153838100939612
12.5505,8.940337820123172,0.1153030551188449
12.552903999999998,8.932750621875954,0.1152736552620282
12.557668,8.919159017247354,0.1152111780037173
12.560071999999998,8.910361114186633,0.1151992928725461
12.562456,8.902494376685695,0.1151803864758872
12.564836,8.89211368175914,0.1151713621178306
12.567236,8.883595317952144,0.1151481930700948
12.56962,8.879081155637984,0.1150855655000206
12.572,8.872984201457982,0.1150255892341671
12.574404,8.867166786531703,0.1149542313985474
12.576792,8.862699846045782,0.1148591599000255
12.579172,8.86531014298575,0.1146939675161246
12.581572,8.870062310298998,0.1145046448540005
12.583956,8.878818679105075,0.1142776273484442
12.586336,8.888645983097794,0.1140389301911618
12.588732,8.89530770335884,0.1138051537941773
12.59112,8.902248962873609,0.1135600111445994
12.5935,8.913753502388651,0.11325535986446
12.595908,8.929541782650247,0.1129002975321765
12.598292,8.946400998098483,0.1125329486483731
12.600676,8.963399983173577,0.1121618721012883
12.603072,8.976254997128978,0.1118354599061148
12.605456,8.994324917390712,0.1114528721499263
12.60784,9.006388535413194,0.1111259967494006
12.610236,9.018591923062536,0.1107939555235139
12.61262,9.036941382577991,0.1104012929180581
12.615016,9.055290842093443,0.1100093260147866
12.617411999999998,9.0719177401162,0.1096256775865241
12.6198,9.089475803698734,0.1092370805813547
12.62218,9.107033867281269,0.1088494864022862
12.624584,9.117374923811056,0.1085331798867568
12.626967999999998,9.122780613288231,0.1082612814996554
12.629348,9.129257237952045,0.1079798460785811
12.631756,9.135314553735276,0.1077163203716626
12.63414,9.138857912092892,0.1074604542771431
12.636524,9.143984062316346,0.1072029983406337
12.63892,9.150972543659355,0.1069338684066802
12.641303999999998,9.157541716121786,0.1066826243111639
12.643688,9.164902284517131,0.1064314809814758
12.646092,9.172402622539344,0.1061754175762402
12.64848,9.178832025374913,0.1059312148276246
12.650859999999998,9.184609801904426,0.1056816464496136
12.653256,9.190387578433938,0.1054330811348486
12.655639999999998,9.20231142682956,0.105128294285355
12.658024,9.211441778545847,0.1048402051264009
12.660419999999998,9.21721955507536,0.1045920573918562
12.662807999999998,9.225930597911068,0.1043228872231627
12.665188,9.236364202239471,0.1040481697372578
12.667583999999998,9.245587101754374,0.1037902695837003
12.669968,9.252947670149725,0.1035434373096662
12.672352,9.26645431041118,0.1032408594535423
12.674748,9.280892116232415,0.1029327855669381
12.677136,9.288392454254629,0.1026798000620658
12.679528,9.294310000411,0.1024282992253016
12.681928,9.302601734366124,0.1021760761488037
12.684311999999998,9.31168486425417,0.1019241643039479
12.686696,9.321419620448273,0.1016785197260628
12.689092,9.331294146269236,0.1014293551416227
12.69148,9.342379376903695,0.1011660639249641
12.69386,9.355187169030854,0.1008985787794482
12.69626,9.371859393023986,0.1006072049528872
12.698643999999998,9.395189545562426,0.1002770984183123
12.701024,9.417169223660506,0.0999682353742889
12.703423999999998,9.436867261758447,0.0996862112554155
12.705811999999998,9.466156494707896,0.0993469543885903
12.708192,9.49572526691106,0.0989984831121002
12.710584,9.523431707994671,0.0986629262021734
12.712972,9.549415587585584,0.0983330338095107
12.715367999999998,9.57567900643022,0.0979939338063872
12.717768,9.606458483446886,0.0976372520965222
12.720156,9.641242161956388,0.0972565907121835
12.722535999999998,9.675094674906108,0.0968809998157912
12.724932,9.711600914908306,0.0964937816212038
12.72732,9.746105054164088,0.096121043955878
12.7297,9.77888663192717,0.0957534450825149
12.732096,9.811156353011054,0.0953773365287559
12.734483999999998,9.835836979989852,0.0950417693747117
12.736864,9.85665317510268,0.0947306015011812
12.739268,9.877329600588643,0.0944269795748138
12.741656,9.896283464581913,0.0941290395091367
12.744036,9.905506364096816,0.093890662841048
12.746432,9.908583191745612,0.0936999005461318
12.748819999999998,9.911008393088348,0.0935037589111044
12.7512,9.91571523443122,0.093284846684926
12.753595999999998,9.90989971536281,0.0931245171665566
12.755983999999998,9.90501536185418,0.0929599636195911
12.758375999999998,9.899991238718693,0.0928004671061142
12.760776,9.897620842635671,0.0926331466663086
12.763164,9.892317180246463,0.092482948979879
12.765543999999998,9.886082352297477,0.0923375063932771
12.76794,9.871699351735955,0.0922490405171305
12.770328,9.860249617480637,0.0921432738084564
12.772712,9.853223393598729,0.0919975966868899
12.775104,9.848990666396151,0.0918396028338698
12.777487999999998,9.85183517661947,0.0916357318594242
12.779884,9.853329212402429,0.09144985360315
12.78228,9.863902586357694,0.0912045433435752
12.784664,9.874336190686096,0.0909630999401482
12.787043999999998,9.879694658335028,0.0907555827927905
12.78944,9.884913356357098,0.0905530307280998
12.791828,9.898931853297755,0.0903003221310947
12.794208,9.91416105505191,0.0900341553463182
12.796604,9.93139235755248,0.0897559745976148
12.798991999999998,9.946481789679776,0.0894963080730026
12.801376,9.965295884046183,0.0892202825181923
12.803772,9.98490137434551,0.0889467124956677
12.806156,10.001853137592365,0.0886802838932285
12.808552,10.017873735279435,0.0884190481294837
12.810948,10.04041249188496,0.0881321978503481
12.813332,10.060437291064863,0.0878484887391238
12.815712,10.08153302543141,0.087554796666297
12.818112,10.1007664286784,0.0872700770010891
12.820496,10.116787026365474,0.0870120871193424
12.82288,10.133878559239186,0.08674731778562
12.82528,10.142542380246647,0.0865448221599313
12.827668,10.156281337933583,0.0863120641311293
12.830048,10.168809590807022,0.086093823399135
12.832448,10.186412980359927,0.0858456124755221
12.834832,10.210302211405809,0.0855550224598295
12.837215999999998,10.23419144245169,0.0852650098914498
12.839612,10.255287176818236,0.0849869107040872
12.842,10.276522680811642,0.0847049896933603
12.844396,10.29710655849899,0.0844188007689155
12.846792,10.315828105066782,0.0841390183788711
12.84918,10.334549651634571,0.0838597111236782
12.85156,10.35154863670967,0.0835836147447536
12.853964,10.37040995290432,0.0833011700188529
12.856352,10.389550808352691,0.0830112148267716
12.858736,10.405246540815671,0.0827269195425212
12.861132,10.42052296439807,0.0824557473515107
12.863516,10.442736855779495,0.0821513118342665
12.865896,10.464810977534064,0.0818519245065451
12.868296,10.484091602609295,0.0815612148020533
12.87068,10.500578731005191,0.0812805827955202
12.87306,10.517624937908533,0.0809814143838044
12.875456,10.529875547386116,0.0807032374136681
12.877844,10.53840149462459,0.0804373932421478
12.880223999999998,10.54199207481045,0.0801955165708799
12.882628,10.537434482383782,0.0799983995856156
12.885012,10.535018760330392,0.0797872518461836
12.887396,10.531671872717226,0.07957887858087
12.889792,10.528464754730916,0.0793662802262998
12.89218,10.522836227117612,0.0791763116563266
12.894559999999998,10.522143066556922,0.0789640260653028
12.89696,10.521589675623089,0.0787475599570688
12.899344,10.516100917636644,0.0785526822773176
12.90174,10.510472390023338,0.07836213957505
12.904144,10.49976872573056,0.0781977640928557
12.906527999999998,10.48878552218406,0.0780418914200344
12.908908,10.481015124197478,0.0778650480803459
12.911304,10.467797502479083,0.0777001260506978
12.913688,10.454859420014412,0.0775264638903388
12.916072,10.445785769415714,0.0773377937753016
12.918475999999998,10.437503514749933,0.077150625754509
12.92086,10.435087792696544,0.0769399934654278
12.92324,10.43439463213585,0.0767286867576622
12.92564,10.436215429000772,0.0765183072170144
12.928024,10.44096949217189,0.0762962148456297
12.930408,10.453731958328673,0.0760370603768047
12.932804,10.459696726313288,0.0758034310538599
12.935188,10.46845499097724,0.075563043401059
12.937568,10.476933716387467,0.0753315447854692
12.939968,10.488625247357614,0.0750802299478466
12.942352,10.494310476088508,0.0748562820274273
12.944748,10.499995704819405,0.0746326490430491
12.947152,10.511547466162687,0.0743857879853333
12.94954,10.521236896386416,0.0741434463906716
12.95192,10.53385959291634,0.0738888078195817
12.954324,10.545551123886485,0.0736365987203596
12.956708,10.553238453363797,0.073402652582797
12.959088,10.561297869893446,0.073183566307103
12.961484,10.569357286423095,0.0729649752927315
12.963872,10.57341250145991,0.0727637127057981
12.966252,10.57574515500403,0.0725625227962595
12.968656,10.570069405562482,0.0723962243608427
12.971044,10.560808763508678,0.072234205268813
12.973424,10.5501050992159,0.0720637513391968
12.975828,10.537539103803566,0.0718974820277598
12.978216,10.522039842085038,0.0717419326921152
12.9806,10.51827364559129,0.0715445872073566
12.982996,10.510503247604705,0.0713639062715697
12.98538,10.503943554431622,0.0711729385133363
12.987759999999998,10.499106422751234,0.0709827607008004
12.99016,10.50055513256382,0.0707600973115652
12.992544,10.501072676816625,0.0705393917561589
12.994927999999998,10.50186976032315,0.0703110651518573
12.997324,10.50667104532251,0.0700671492178401
12.999712,10.515616301441566,0.0698042894220887
13.002092,10.525772262374115,0.0695315515257647
13.004496,10.536719619239587,0.0692605498236456
13.006884,10.545153018679445,0.0689863351382633
13.009263999999998,10.55223594367894,0.0687263775230716
13.01166,10.565464940544548,0.0684396012432249
13.014048,10.58148743408949,0.0681477682043207
13.016428,10.602445294687044,0.0678384085725288
13.018828,10.62926968789699,0.0675113518024244
13.021211999999998,10.656885477039852,0.0671873809806698
13.023596,10.685572201369352,0.0668583253073365
13.025992,10.715329860885491,0.066524916547661
13.02838,10.735077016669548,0.0662305729937524
13.03076,10.759107913200156,0.0659142488393458
13.033155999999998,10.780996939357491,0.0656099945568936
13.03554,10.797159202529295,0.0653197599553352
13.037924,10.806895854581269,0.0650635783522521
13.04032,10.82128833443213,0.064801008836422
13.042704,10.834190570215773,0.064556755140726
13.045088,10.84495093562614,0.0643243397293856
13.047484,10.85356943066323,0.0641041144964108
13.049872,10.860977220886822,0.0638933923785139
13.052267999999998,10.87173758629719,0.0636632160599571
13.054664,10.89036658506636,0.0634115567569779
13.057052,10.909135353462396,0.0631557651772877
13.059435999999998,10.925762251485155,0.0629121884783517
13.061832,10.940387048761494,0.0626755398613029
13.06422,10.95207857973164,0.0624467817431651
13.0666,10.95962613958209,0.0622355749387526
13.068996,10.96796509536546,0.0620275214971917
13.071383999999998,10.976815907828026,0.0618304310232206
13.073764,10.982453914730678,0.0616486384401
13.076159999999998,10.991025187939526,0.0614590947618181
13.078548,10.997314821148237,0.061284207938288
13.080928,11.00453561991672,0.0611082180192366
13.083327999999998,11.015481080924324,0.0609276382958976
13.085715999999998,11.033503779357812,0.0607242145470527
13.088096,11.044868549245995,0.0605328939143827
13.090492,11.058654728761177,0.0603247368730722
13.09288,11.07551394420941,0.0601067906656449
13.095275999999998,11.093444094844283,0.0598852006150848
13.097672,11.113376346225577,0.0596582495228594
13.10006,11.130095792046948,0.0594465271865963
13.10244,11.139458461188712,0.0592652455024482
13.104836,11.152685562196451,0.059077086643354
13.107224,11.164841728017551,0.0588941159635058
13.109604,11.181002095331484,0.0587007929457772
13.112008,11.199024793764972,0.0585056943640653
13.114396,11.21890982331802,0.058309216163976
13.116775999999998,11.237863687311288,0.058114124103103
13.119167999999998,11.256305694625356,0.0579092163737669
13.121555999999998,11.278891673059126,0.0576902502349275
13.12394,11.301617421119753,0.0574680513046059
13.126335999999998,11.326485039553654,0.0572378491344399
13.128723999999998,11.351492427614415,0.0570044715902057
13.131104,11.3755686501154,0.0567724933706419
13.133508,11.392707404817353,0.0565574937112193
13.135891999999998,11.411848260265725,0.0563370042672759
13.138276,11.42777631015418,0.0561305455074794
13.140672,11.438768992990024,0.0559354896104853
13.143059999999998,11.444826308773257,0.0557512841722414
13.14544,11.45088362455649,0.0555676404687862
13.147835999999998,11.460153745899635,0.0553715881867571
13.150223999999998,11.47184527686978,0.0551595050493616
13.15262,11.478880980041035,0.0549508829319862
13.155016,11.485916683212286,0.0547424534731948
13.157404,11.488017019330927,0.0545445368679282
13.159783999999998,11.491328060263072,0.0543391406264689
13.162188,11.492916539702511,0.0541313013573022
13.164576,11.4938533928359,0.0539166835722154
13.166956,11.494510706715566,0.0537095157425261
13.169363999999998,11.492094984662176,0.0535113091117309
13.171748,11.489539492981924,0.0533168096146339
