Time,Force,Position
11.802824,6.502692342830948,0.1622449855690448
11.805208,6.504926761002842,0.1622318843198078
11.807604,6.513539568466325,0.162117166170099
11.809992,6.522804002235864,0.1620013405863515
11.812372,6.532907053766565,0.1618322438686955
11.814775999999998,6.541567083058291,0.161670804457872
11.817163999999998,6.553020609029352,0.161463730384297
11.819544,6.5683385668663865,0.1611849741128753
11.82194,6.586450021382754,0.1608596096319217
11.824328,6.609916151832314,0.1604108601399512
11.826708,6.629797389669623,0.1600180827231245
11.829108000000002,6.64832815306657,0.159672937085614
11.831492,6.672398687993947,0.1592826504228817
11.833887999999998,6.698004792958916,0.1589278052657273
11.836284,6.726544164230082,0.1585135336143362
11.838672,6.763231708113775,0.1579400734288463
11.841052,6.792050618638661,0.1575162424479816
11.843452,6.822731860283103,0.1570715571700755
11.84584,6.853041014875208,0.1566145158926374
11.84822,6.882885534616359,0.1561106371684774
11.85062,6.911334253946776,0.155573166417508
11.853008,6.937688324732157,0.1550385245612609
11.855388,6.963250999584622,0.154516715225608
11.857788,6.996961847049617,0.1538472956583695
11.860176,7.033326421567082,0.1531458249873637
11.862556,7.069039369778491,0.1524452119936785
11.864956,7.104100691683842,0.1517539385308584
11.867344,7.140744805455029,0.1510606068401302
11.869728,7.17510727922608,0.1504189882730246
11.87212,7.209050444116553,0.1498068565455299
11.874504000000002,7.246485953820657,0.1491195745047783
11.876884,7.280755879793092,0.1484574030002866
11.879276,7.310789286847214,0.14784415307945
11.881664,7.338728045356303,0.1472368961561034
11.884056,7.368668904611809,0.1465977561156662
11.886451999999998,7.391300209015948,0.146059261716175
11.888836,7.415841066367887,0.1454520231967777
11.891232,7.438566814428512,0.144840258747553
11.893624,7.461944188795194,0.14423644118809
11.896007999999998,7.484063636520136,0.1437010147136818
11.898388,7.50362190499122,0.143226099517667
11.900784000000002,7.526253209395359,0.1427023840453634
11.903168,7.547953348239719,0.1421943218340554
11.90556,7.565509515964386,0.1417625469571386
11.907956,7.58357754036825,0.1413437817116967
11.91034,7.6027164999587535,0.1409084306131314
11.912731999999998,7.6154770702576675,0.1405462628394712
11.915128,7.625211826451769,0.140197136159221
11.917512,7.641092654511982,0.1397557667571171
11.919892,7.655902547385555,0.1393339648820742
11.922284,7.665637303579656,0.1389889376282112
11.924672,7.671367858280925,0.1386998286009969
11.927064,7.675236081862635,0.1384325593022749
11.92946,7.678405457310046,0.1382008454253783
11.931848,7.682226459063514,0.1379731924058019
11.934228,7.684417447122904,0.1377905470742304
11.93662,7.692055658914103,0.1375497292648866
11.939008,7.6977843177575025,0.1373704544678163
11.941400000000002,7.703233437347181,0.1372063924342156
11.943796,7.711755592869915,0.1369971260435498
11.946179999999998,7.725213115445262,0.1367211750102739
11.948576,7.736808306901052,0.1364684511354942
11.95098,7.7485432679837025,0.1362102645448236
11.953364,7.759998689812632,0.1359668956154929
11.955744,7.77266481645506,0.1357022223868907
11.958148,7.783328842351072,0.135465554107537
11.960536,7.796367056045837,0.1352161556339529
11.962916,7.80977735679294,0.1349845832026663
11.965319999999998,7.821837183099682,0.1347877787340338
11.967704,7.835619570899124,0.1345785571885897
11.970084,7.854337325751175,0.1343064137079947
11.972487999999998,7.881715109894953,0.1339309540329256
11.974872,7.91668198814382,0.1334737760971562
11.977252,7.953650967139102,0.1329918245061356
11.979644,7.992110190201603,0.1324805463466603
11.982032,8.035272462891239,0.1318834165671866
11.984412,8.070054245542869,0.1313765329523193
12.048928,7.858489054920821,0.1312311602289636
12.05132,7.864028826451247,0.1312108040666083
12.053708,7.874503965034285,0.1311307848095813
12.056088,7.888284456975855,0.1310341642199325
12.058492,7.910724978209152,0.1308418164059559
12.060876,7.933677356121646,0.1306564666208839
12.063256,7.957281360340199,0.1304746394287575
12.065652,7.989545393850476,0.1301973814576799
12.06804,8.023671758480312,0.1299029005263461
12.07042,8.065806526095816,0.1295081138603443
12.072824,8.102074761098926,0.1291843947501877
12.075212,8.139134392034958,0.1288550985443288
12.077592,8.183690569277458,0.1284207236536538
12.079996,8.22773488984076,0.1279789320871126
12.08238,8.269777109657646,0.1275641666338334
12.08476,8.311447242422194,0.1271332239192221
12.087156,8.346878755522015,0.1267581039517051
12.08954,8.38538330455489,0.1263460517802304
12.091936,8.420442730602376,0.1259594268668958
12.094332,8.455130069597521,0.1255590842119673
12.09672,8.485161580793775,0.125204876648825
12.0991,8.517334962363307,0.1248279999447435
12.1015,8.546854616880363,0.1244735283605958
12.103888,8.572649609158308,0.1241553327343308
12.106268,8.593928543264218,0.1238761358763647
12.108664,8.619119131064343,0.1235238462209191
12.111048,8.647522524424385,0.1231315446399982
12.113432,8.67061846367948,0.1227809106951364
12.115828,8.695344416628652,0.1223968929793958
12.118216,8.715414541778932,0.1220549442419493
12.120596,8.73776630692935,0.121679146732844
12.123,8.76160831614699,0.1212718088612677
12.125388,8.77571936088626,0.1209623242593727
12.127764,8.789318548946337,0.120644256266423
12.13016,8.802405880327216,0.120316388484183
12.132544,8.816843686148454,0.1199645719753221
12.13494,8.834494297529607,0.1195741166170395
12.137336,8.849630951485144,0.1191971197421115
12.13972,8.867700871746877,0.1187932591427167
12.142096,8.884979396075693,0.1183925747618657
12.144492,8.906681430777923,0.1179358849230519
12.146876,8.919863205815284,0.1175523895716337
12.149272,8.931462188986812,0.1171719350746847
12.151675999999998,8.945762121039058,0.1167448104312268
12.15406,8.960341592345022,0.116307312745025
12.15644,8.975432920330187,0.1158824400451807
12.158836,8.987730751636015,0.1154811981708696
12.16122,9.000959748501622,0.1150743541449122
12.163616,9.008042673501118,0.1147320269636084
12.166011999999998,9.01619653368725,0.1143773380953446
12.168396,9.02528155943316,0.1140168851956912
12.17078,9.033435419619297,0.1136634556704871
12.173184,9.043591380551849,0.1132884763425486
12.175567999999998,9.053607571857537,0.1129199120415029
12.177944,9.065346324655923,0.1125439431357787
12.180348,9.075082976707892,0.1121878977608018
12.182735999999998,9.081606823199948,0.1118696772812626
12.185116,9.08920160487864,0.1115403409928835
12.18752,9.09414265950486,0.111226219924366
12.189904,9.09629021745174,0.110931121200598
12.192284,9.088427271666538,0.1107282099701778
12.244868,8.622077916615247,0.1105492784920216
12.247252,8.614910027248609,0.1104968540139779
12.249631999999998,8.613096813815165,0.1103838071219263
12.252032,8.614356636314776,0.1102400425068488
12.25442,8.625766732173332,0.1099976296523747
12.256799999999998,8.635034957658611,0.1097784046611121
12.259196,8.64416341351703,0.1095653043495694
12.26158,8.658087466801199,0.1093151995186909
12.263964,8.670149188965812,0.1090777291534612
12.26636,8.688077443742815,0.1087927834375594
12.268744000000002,8.710149669639515,0.1084685670477075
12.271124,8.737716341096263,0.1080810777426928
12.27352,8.76728511329943,0.1076762940043317
12.275908,8.798064590316097,0.1072558650691725
12.278304,8.832848268825597,0.1067987194480246
12.280708,8.869354508827794,0.10633413629389
12.283092,8.906000518456851,0.1058684920548412
12.285472,8.944416311406847,0.1053693515165415
12.287868,8.980038607677507,0.1048916785615299
12.290252,9.012076011335916,0.1044331735358919
12.292632,9.048117616487158,0.1039447491930246
12.295024000000002,9.082576429772564,0.1034617629015561
12.297412,9.115824538244471,0.1029989713490954
12.299808,9.14786194190288,0.1025542516167192
12.302204,9.174684439254952,0.1021620898840784
12.304588,9.2065820732865,0.1017262715544393
12.306968,9.238339937691189,0.1012965149664278
12.309364,9.2691666365361,0.1008768211675632
12.311748,9.302926601687204,0.1004361499819733
12.314144,9.331099573479635,0.1000317088388948
12.31654,9.356339278965878,0.0996525600530206
12.318928,9.381578984452116,0.0992784643143702
12.321304,9.407237998818935,0.0988913999467657
12.323712,9.431826077999116,0.0985159632051858
12.326096,9.454691595686604,0.0981463703727706
12.328475999999998,9.478767818187588,0.097762855187557
12.330872,9.49804844326282,0.0974095500040017
12.333256,9.509832522031584,0.0971264824404095
12.335636,9.521896140054064,0.0968339222841813
12.33804,9.536893024382742,0.0965219126047257
12.340428,9.546814772031947,0.0962507954024008
12.342808000000002,9.555525814867652,0.0959953446182747
12.345212,9.562514296210663,0.0957447515150156
12.347596,9.570853251994036,0.0954751182983927
12.349976000000002,9.58226524371046,0.0951821669794518
12.35238,9.59167513468047,0.0949046072197721
12.354768,9.60029362971756,0.0946266343739971
12.357144000000002,9.603836988075177,0.0943864997064374
12.359552,9.607100807179073,0.0941569892498901
12.361936,9.61008508702925,0.0939371220806998
12.364316,9.612138201319649,0.0937222756225844
12.366712,9.606834538930435,0.0935684986210635
12.369096,9.598178301354448,0.0934477374250461
12.371476,9.587519963032046,0.0933406261208136
12.373872,9.579515351762115,0.0932250105202748
12.376256,9.571370970865328,0.093114342229376
12.378652,9.567742648140571,0.0929865402910567
12.381048,9.571191562841705,0.0928082848226262
12.383432,9.577154434968447,0.0926276761850175
12.385812,9.581766832654834,0.0924664003848609
12.388208,9.587310395901,0.0923007443768856
12.390592000000002,9.593645355080085,0.0921360363076737
12.392988,9.600352401311504,0.0919865138540429
12.395384,9.60757130422212,0.0918481486679954
12.397772,9.6142311286253,0.0917298953776841
12.400152,9.61888885228206,0.0916247039628496
12.402548,9.627131468551074,0.091508115946009
12.404936,9.643242718178897,0.0913446215432868
12.407312,9.658143262993216,0.091195080220571
12.409707999999998,9.675977074113735,0.0910289662863954
12.412095999999998,9.693391576353672,0.09087757591602
12.414492,9.716672611206,0.0906915979479438
12.416888,9.74353853867058,0.0904942170709427
12.419272,9.774920524307191,0.0902817085941238
12.421656,9.805371344384026,0.0900749672493247
12.42406,9.83554262520714,0.0898787607191953
12.426444,9.865853675657114,0.0896795587465841
12.428824,9.890158423867833,0.0895187733631947
12.43122,9.912600840959,0.089367317823774
12.433608,9.934251862117248,0.089214938530381
12.435987999999998,9.957113588088994,0.0890500049938008
12.438384,9.977321587008268,0.0888920963980634
12.440772,9.999950995554537,0.0887084278053536
12.443152,10.022068547421608,0.0885159663794711
12.44556,10.043162385930284,0.0883041193406081
12.447944,10.068260425931792,0.088068517070802
12.450323999999998,10.092986378880966,0.0878205513905642
12.452728,10.112125338471468,0.087596466222601
12.455112,10.136107117315966,0.0873233703121134
12.457491999999998,10.158506104294627,0.0870497638785885
12.459888,10.181464169780728,0.0867585222830062
12.462276,10.20032548597538,0.0864670502351409
12.464668,10.21616098806522,0.0861673626745455
12.467064,10.229110445677108,0.0858555602985961
12.469452,10.242339442542717,0.0855360050548192
12.471832,10.25440495642307,0.0852011911366938
12.474236,10.263816743250946,0.0848727063900781
12.476624,10.276720874892458,0.084511234913386
12.479004,10.286040113921716,0.0841583036450431
12.4814,10.294847496271778,0.0837945605395849
12.483784,10.301140921196229,0.083431994998571
12.486168,10.309576216493952,0.0830536764747972
12.488568,10.31749965511248,0.0826670462730992
12.490956,10.320627496305256,0.0823003019886293
12.493336,10.322684402311394,0.0819414085001836
12.49574,10.325160617198112,0.0815710323330692
12.498128,10.32177029947244,0.0812276950800264
12.500508,10.318659521000486,0.0808751294930737
12.502904,10.308471505102643,0.0805617839861361
12.505292,10.296421158085248,0.0802538282486182
12.507676,10.28409127181413,0.0799546455235937
12.510072,10.27827954446146,0.0796354166432714
12.512456,10.27726341453454,0.0792981314765051
12.514836,10.277830076473458,0.0789644245939099
12.51724,10.274532306546403,0.0786458872223981
12.519628,10.270163601432708,0.0783338921053523
12.522008,10.265143270012954,0.0780152441646863
12.524408,10.26212503933962,0.0776876992114365
12.526792,10.264042175718895,0.0773382303665941
12.529172,10.269963513591009,0.0769702442845992
12.531564,10.280400909635148,0.0765948070704596
12.533952,10.289767370492653,0.076226521334415
12.536344,10.293918925043824,0.0758877390051204
12.53874,10.301515602580388,0.0755465715133325
12.541124,10.30790157530345,0.075216078327723
12.54352,10.310003807279964,0.0749133470699109
12.545915999999998,10.316901636682228,0.0745935493626735
12.548304000000002,10.324311322763686,0.0742845281567529
12.550684,10.333443570337844,0.0739741842323579
12.553083999999998,10.344018840150977,0.0736718610646486
12.555471999999998,10.353942483658049,0.0733634543683008
12.557852,10.36051355197835,0.0730813409808037
12.560248,10.361590174738597,0.0728372589561162
12.562636,10.360524927125564,0.0726065591144508
12.565016,10.362113406565008,0.0723728596361161
12.567419999999998,10.36542444749715,0.0721387972824059
12.569804,10.372040841787824,0.0719090429214326
12.572184,10.375025121637998,0.0717121570731918
12.574584000000002,10.3746568263014,0.0715392781976713
12.576972,10.374660618017142,0.0713822045935203
12.579352,10.369589273053403,0.0712485190361781
12.581756,10.37052423032892,0.0710903993047357
12.584143999999998,10.377046180963106,0.0709199144425047
12.586524,10.381845570104597,0.0707490828668005
12.588920000000002,10.388507290365643,0.0705740632883416
12.591304,10.398102276932889,0.0703889047697706
12.593688,10.40713818499269,0.0702211902172186
12.596084,10.414311761932934,0.0700573152947011
12.598472,10.423487439619596,0.069885593089032
12.600852,10.434665218052675,0.0697063353939783
12.603248,10.44742578835159,0.0695320468572572
12.605636,10.457392861971169,0.0693634361407913
12.608032,10.469362036337165,0.0691865464173465
12.610423999999998,10.484264477009354,0.0690003587526715
12.612812000000002,10.503031349547518,0.0688037852659471
12.615192,10.524451949138156,0.0686070073124975
12.617588,10.540006016116408,0.0684292623839537
12.619976,10.559843823841216,0.0682284626757352
12.622356,10.581683732312436,0.0680202593894332
12.624759999999998,10.60059037447746,0.0678224792070051
12.627147999999998,10.620428182202264,0.067622512725239
12.629528,10.63290921324746,0.0674606180664467
12.631927999999998,10.643667682799956,0.0672987099165233
12.634312,10.661084080897762,0.067121740288998
12.636696,10.679711183809069,0.0669356846909316
12.639088,10.69819851709351,0.0667545459817918
12.641476,10.717244928885394,0.06655795193671
12.643871999999998,10.740295542170117,0.0663474887919935
12.646268,10.761204285081558,0.0661487150980028
12.648656,10.777457200194108,0.0659579719846824
12.651036,10.793849884933518,0.0657640074660195
12.65344,10.813315605605986,0.0655575652189438
12.655828,10.83506296627859,0.0653369792569776
12.658207999999998,10.853597521391276,0.0651334346919524
12.660604,10.866265543891576,0.0649474749852912
12.662992,10.875208904152762,0.0647679427272113
12.665372,10.891089732212976,0.0645663794287176
12.667768,10.90496845952677,0.0643729491833886
12.670156,10.914982754974591,0.064188942264545
12.672536,10.92327448892972,0.0640035909490047
12.674931999999998,10.93543065475082,0.0638092695799783
12.677320000000002,10.947586820571916,0.0636142196199198
12.6797,10.960394612699076,0.0634261912981136
12.682099999999998,10.96761541146756,0.0632473288687904
12.684487999999998,10.974556670982327,0.0630769456675983
12.686868,10.97949582975068,0.0629132356901628
12.689264,10.98401567963845,0.0627617586493203
12.691648,10.98597435027236,0.0626327184915894
12.694044000000002,10.991006056839328,0.0624923379918088
12.696436,11.002835461578464,0.0623359240420246
12.698823999999998,11.013314391877245,0.0621927080174528
12.701204,11.02379332217602,0.0620500844326083
12.703608,11.0330615476613,0.0619170543747687
12.705991999999998,11.046753283519992,0.0617607138452236
12.708372,11.06351805531174,0.0615934071264628
12.710776,11.081074223036406,0.06142889895812
12.713164,11.095697124454878,0.0612723999334794
12.71554,11.108038385873211,0.0611297746390315
12.717936000000002,11.127456884717434,0.0609648691184835
12.720324000000002,11.148737714681214,0.060797873281388
12.72272,11.165362716846102,0.0606366494747504
12.725116,11.186131690130685,0.0604600712039294
12.727504,11.208390907482483,0.0602683453120939
12.729883999999998,11.232512455953843,0.0600752226880858
12.732288,11.255563069238562,0.0598873658089897
12.734672,11.28089532252342,0.059686736354839
12.737051999999998,11.303853388009522,0.0594779949981551
12.739452,11.326439366443289,0.0592550970023916
12.741836,11.346092078570855,0.059039482919808
12.744216000000002,11.363882459578868,0.0588275518249816
12.746612,11.382371688721184,0.0585973459937443
12.749,11.395785781184024,0.0583824017932443
12.75138,11.40640637696753,0.0581701349911973
12.75378,11.411812066444703,0.0579775542928532
12.756168,11.414424259242542,0.0577875188950209
12.758548,11.414242955361049,0.0575995209130384
12.760944,11.416343291479688,0.0573992231025515
12.763331999999998,11.415929670172716,0.0571930449573426
12.765728,11.409369976999631,0.0570068823811392
12.768124,11.404160758266908,0.0568089723208739
12.770508,11.402955741027018,0.0566007705980196
12.772887999999998,11.401378636734789,0.0563792003450429
12.775292,11.395657561322864,0.0561715339452106
12.77768,11.391147190724444,0.0559564324828441
12.78006,11.388127064193236,0.0557262913499548
12.782464,11.386038103221813,0.0554962570134563
12.784852,11.382738437436888,0.0552733203147976
12.787232,11.3817204116521,0.055038471956201
12.789628,11.384054961054089,0.0547878619055173
12.792016,11.382525078590104,0.0545431889177515
12.794396,11.380064030566338,0.0542990468398711
12.796792,11.385099528849045,0.0540262603890251
12.799176,11.394698307132025,0.0537305284623195
12.801559999999998,11.407789430228643,0.053415699106658
12.803952,11.424744985191232,0.0530962326572195
12.80634,11.444913345713736,0.0527644369405255
12.808736,11.459866799929909,0.0524492692629388
12.811132,11.480686786758474,0.0521247671706346
12.813516,11.50085514728098,0.0517924293212789
12.8159,11.51673976705693,0.051475961523095
12.818296,11.52396435754116,0.0511687337130126
12.82068,11.525554732838472,0.0508880316865297
12.823060000000002,11.527284877762646,0.0506029627064868
12.825456,11.52193778526093,0.0503337684748949
12.827844,11.510584390519965,0.0500761263544703
12.830227999999998,11.48936026167377,0.0498340169989933
12.832624,11.471209168760636,0.0495831510194302
12.835012,11.44770339991431,0.0493507177884389
12.837408,11.41390758808218,0.0491443208133856
12.839804,11.377830136249909,0.0489480729035827
