Time,Force,Position
12.12238,6.463636260545899,0.1595795901908423
12.124764,6.517307622641733,0.1593071292554131
12.127148000000002,6.562929047497264,0.1588766375824233
12.141496,6.538307017493919,0.1587608809655574
12.143900000000002,6.536259590777128,0.1587210018049372
12.146288000000002,6.542265893016377,0.1586041749939414
12.148668,6.5549282279430665,0.1584973504321795
12.151064000000002,6.568939141452247,0.1584719766398738
12.153452,6.592773567238406,0.1583034405401812
12.155832,6.622846612689295,0.1580384960922992
12.158228,6.64700590369955,0.1579284927437623
12.160616,6.672747986575642,0.1578084795947996
12.162996,6.708081264303237,0.1575222838986981
12.165392,6.748816439792268,0.1570671961707574
12.167776,6.779216246325121,0.1567439661337344
12.170156000000002,6.794205547222322,0.1566568948407923
12.172552,6.814549524052715,0.1564567989010828
12.17494,6.826745328270581,0.1564193542149295
12.177324000000002,6.8425260251007,0.1563303421148604
12.17972,6.858027182677099,0.156255213063496
12.182104,6.87697346323889,0.1561367574794437
12.1845,6.9005283497713314,0.1559868458129034
12.186896,6.923896244848669,0.155891165635381
12.189284,6.952851133284676,0.155707681367998
12.191664,6.9867413887732965,0.1554398332772692
12.194064,7.01495210310463,0.1552334085664329
12.196452,7.039485377025092,0.1550473247829062
12.198832,7.0695130965056086,0.1547491286174717
12.201228,7.096515001881312,0.154470387169666
12.203616,7.122540415726862,0.1541338704381434
12.205996,7.150754921773935,0.1537128945343677
12.2084,7.174313600022113,0.1533610851959314
12.210788,7.191726206404182,0.1531238303104778
12.213168,7.212816253197119,0.1528773766790424
12.215572000000002,7.241355624468284,0.1525226907913801
12.217956,7.275621758724977,0.1520712357523812
12.22034,7.304161129996142,0.1517162974131183
12.222736,7.33721655943934,0.1513024494221164
12.22512,7.376138521494927,0.1508045757356779
12.2275,7.421905403550927,0.1501654489726391
12.2299,7.46799904668889,0.1494827658811032
12.232288,7.510555019042841,0.1488090591556042
12.234668,7.554368918038536,0.1480793004308279
12.237064,7.599812830728309,0.1473163211686111
12.239452,7.639716971887656,0.146598287726214
12.241848,7.6736620326359954,0.1459349762696059
12.244244000000002,7.704441509652661,0.1452942256544351
12.246632000000002,7.7321479507362705,0.1447119022207391
12.249016,7.759946939618499,0.1441604514877246
12.251412000000002,7.790072894471236,0.1436372019455473
12.253800000000002,7.824203050816809,0.1430627027773607
12.256184,7.862477178282077,0.1424243020505678
12.258580000000002,7.902753406493759,0.1417559262899146
12.260964,7.940515677279828,0.1411150136705784
12.263344,7.978697256946479,0.1404609739121774
12.265744000000002,8.013992792135177,0.1398058366354407
12.268128,8.046402282845923,0.1391530432103761
12.327856,7.694871518474691,0.1389031347158276
12.330256000000002,7.687238994257099,0.1388231829460797
12.332644000000002,7.681096714106727,0.1387047701619303
12.335024,7.673371642090517,0.1385939963720696
12.337424000000002,7.662433764514393,0.1385361999249533
12.339808,7.652287282871188,0.1384746084958213
12.342192,7.648798729773288,0.1383296245723183
12.344588000000002,7.642516679996055,0.1382174874915378
12.346976000000002,7.641542084323772,0.1380544065860196
12.349356,7.645874942756437,0.1378398687909603
12.351756000000002,7.654536867906033,0.1376222597624008
12.354144000000002,7.6626397145481855,0.137433096875903
12.356524,7.671161870070921,0.1372237474568562
12.358924000000002,7.684898931899989,0.136931097510791
12.361312000000002,7.690907129997109,0.1367400496500131
12.363692,7.707484910333752,0.136382994435689
12.366092000000002,7.720757337311864,0.1360505082663859
12.368476,7.730305102050863,0.1357600637212785
12.37086,7.740923801976499,0.1354529128350705
12.373256,7.761925092686557,0.1350252097516086
12.37564,7.779993117090421,0.1346354028180194
12.378040000000002,7.793545083322254,0.1342928731075011
12.380432,7.808167984740725,0.1339348942029542
12.38282,7.824373678025033,0.1335695891942462
12.3852,7.845235199108231,0.1331545914807428
12.387596000000002,7.869029986497625,0.1327034958562458
12.389984000000002,7.891241982021185,0.1322634842017808
12.392364,7.9118711856789075,0.1318315832703017
12.394760000000002,7.927704791910877,0.131455931834822
12.397148,7.940465362209791,0.1311231329167929
12.399544,7.955415024710224,0.1307238203112982
12.401948,7.968409808292484,0.1303138346738098
12.404332,7.979914347807523,0.1299402299235781
12.406716,7.992210283255483,0.1295652567884137
12.409112,8.009162046502333,0.129141993741625
12.411496,8.018757033069576,0.1288302419147256
12.41388,8.027141314823321,0.12854102973998
12.416276,8.036456762136842,0.1282412621988881
12.418664,8.047215231689341,0.1279438194173897
12.421044000000002,8.052898564562367,0.1277148082353908
12.423444,8.065891452286758,0.1274203165262267
12.425832,8.081957375944205,0.1270871290335557
12.428212000000002,8.097743760347932,0.1267685577991724
12.430608,8.114461310311436,0.1264418981655405
12.432996,8.127454198035826,0.126152411111418
12.435376000000002,8.141657790573715,0.1258444895116949
12.437772,8.155442074231022,0.1255568533363834
12.44016,8.16852750975403,0.125300132656298
12.442544000000002,8.187339708262567,0.1249853078325977
12.444936000000002,8.210016338637079,0.1246295643323438
12.447324000000002,8.229200624197954,0.1243339111605794
12.449708,8.253692363863781,0.1240017780159586
12.452104000000002,8.277904564275888,0.1236803743054391
12.454492000000002,8.301557686180553,0.1233855035551717
12.456888,8.32292916808508,0.1231275176236854
12.459284,8.344300649989606,0.1228695316921991
12.461676,8.372469830066304,0.1225441291119555
12.464056,8.40571414682247,0.1221622761607421
12.46646,8.43895846357864,0.121784009721412
12.468844,8.474344650708087,0.1213794331843431
12.471224,8.504283614105722,0.1210219293890455
12.473616,8.53180116787636,0.1207066376842814
12.476004,8.55731662090058,0.1204134207207001
12.478384000000002,8.585905109857858,0.1200885599075832
12.48078,8.61635592993469,0.1197485959571109
12.483168,8.64266277889183,0.1194593925336668
12.485548,8.668178231916052,0.1191727802618617
12.487952,8.69583555531355,0.1188589488323954
12.490336,8.723213339457331,0.1185607635685356
12.492716,8.750591123601108,0.118265258475317
12.495112,8.779039842931528,0.1179572289016783
12.4975,8.802553195209335,0.1177000993559118
12.499884000000002,8.829698661927635,0.1173870289368373
12.50228,8.860056934205852,0.1170378022285549
12.504664000000002,8.891625911297567,0.1166704317395595
12.50706,8.923474427643004,0.1162921429002351
12.509456,8.947454310629633,0.1159920184850958
12.511844,8.967010683242847,0.1157512289963956
12.514224000000002,8.983633789549865,0.1155379202904152
12.516628,9.000117126230021,0.1153320331521523
12.519016,9.018882102910318,0.1150968554695064
12.521396,9.041651281083446,0.114824889432757
12.5238,9.06856443037627,0.1145104029322487
12.526188,9.088679881496926,0.1142559120377421
12.528568,9.109866267804223,0.113990903051635
12.530964,9.13119242373838,0.1137196996810677
12.533352,9.153449745232308,0.1134425447364423
12.535732,9.179711268219076,0.1131313545397464
12.538128,9.203598603407084,0.1128256894053775
12.540516,9.226834312289036,0.1125178939259008
12.542896,9.25034956042471,0.1122010041464784
12.5453,9.278008779680077,0.1118439110864163
12.547688,9.305528229308582,0.1114958099875493
12.550068,9.328531620765055,0.1111762396556664
12.552472000000002,9.35395642184853,0.1108262208093222
12.55486,9.38138332367842,0.1104607366285351
12.55724,9.410952095881584,0.1100718359717414
12.559636,9.440148781032416,0.1096678741075936
12.562024,9.470695940623608,0.1092420843806393
12.564404,9.496727042042764,0.1088416465364555
12.5668,9.518753941969088,0.1084771980441662
12.569188,9.537195949283158,0.1081343241736998
12.571568,9.549911193611695,0.1078330892934955
12.573972,9.565559704246432,0.1075079633917699
12.576356,9.578834027082411,0.1071862954916409
12.57874,9.594389989918527,0.1068378772751857
12.581136,9.60757176495589,0.1064916893774798
12.58352,9.61330421551503,0.1061934477392664
12.5859,9.619036666074166,0.1058956563509409
12.588296,9.619833749580692,0.1056363657652574
12.590684,9.616626631594386,0.1054101382840364
12.593068,9.609694851368966,0.1052072208346011
12.595464,9.600760970397127,0.1050210210003331
12.597852,9.593549650917984,0.1048286090321799
12.600248,9.581123425132512,0.1046846320208334
12.602644000000002,9.563901601921286,0.1045732631053928
12.605032,9.546819548336916,0.1044564033061955
12.607416,9.527595624379272,0.1043605397121775
12.609812000000002,9.50744053486185,0.1042696823966887
12.6122,9.489147776463987,0.1041674659614423
12.61458,9.473788284372318,0.1040431167652175
12.616984000000002,9.45614715228051,0.1039450113510079
12.619372000000002,9.440368351308262,0.1038355046950852
12.621752,9.423658384776234,0.1037312396211152
12.624148000000002,9.404387238990346,0.1036635876163259
12.626536000000002,9.380832352457904,0.1036386092041034
12.628916,9.360582819283998,0.1036064474033398
12.631312,9.342707473908844,0.1035731929607932
12.6337,9.324552589279971,0.1035499372030785
12.63608,9.312124467636629,0.1034882593016854
12.63848,9.304631713045897,0.1033884523245791
12.640864,9.299001289574722,0.1032775513670419
12.643248,9.29229993091691,0.1031771740060451
12.645644,9.281594370766264,0.1031088984688367
12.648032,9.270749040988756,0.1030457691561049
12.650412,9.261486503077084,0.1029819358625455
12.652808,9.25287559147147,0.10292288640577
12.655196,9.249200046918473,0.1028257626221495
12.657592,9.247107294231308,0.1027281156520204
12.659988000000002,9.246876872663698,0.1026195927409022
12.662376000000002,9.242502479976396,0.1025483476521431
12.66476,9.237336691356177,0.102477107010803
12.667164,9.23510416904215,0.1023842170486127
12.669552,9.234594208220823,0.1022856874434829
12.671932000000002,9.236086348145912,0.1021705820853156
12.674328,9.243724559937112,0.1020018838035256
12.676716,9.24805741836978,0.1018395027850329
12.679100000000002,9.251878420123248,0.1016667750765175
12.681496,9.255047795570658,0.1014889636583589
12.683884,9.25742577508515,0.1013120909563822
12.686264,9.255939322733669,0.1011618477531649
12.688668,9.251379834449134,0.1010378036795703
12.691056,9.249241755791596,0.100882426135074
12.693436000000002,9.254460453813666,0.1006597049440388
12.695832,9.262100561462734,0.1004055618977477
12.69822,9.27123091317902,0.1001254994911996
12.700604000000002,9.278918242656337,0.0998407038738251
12.703,9.28381207545431,0.0995721132129047
12.705388,9.289125217132868,0.0992890181426575
12.707768000000002,9.295788833251782,0.0989870062493575
12.710164,9.309669456423448,0.0986254643931872
12.712552,9.328764985901444,0.0982191237579296
12.714932,9.347069119446523,0.0978152379126403
12.717328000000002,9.36393023075263,0.0974066464646352
12.719716000000002,9.383864377991786,0.0969745777046233
12.722096,9.399654554111256,0.096578607018447
12.7245,9.420100558029612,0.0961606527528615
12.726888,9.441477727507747,0.0957385087118483
12.729268,9.46471722810544,0.0953080854502676
12.731664000000002,9.484092296837158,0.0949011450081141
12.734052000000002,9.505469466315294,0.0944797273614088
12.736432,9.529919671726486,0.0940345624753745
12.738832000000002,9.552879633070456,0.0936157189693894
12.741216,9.571555853667872,0.0932382915848137
12.7436,9.592094405384843,0.0928541033755848
12.745996000000002,9.614355518594516,0.0924681252594077
12.748384,9.636337092550468,0.0920920681282401
12.750764,9.661251932812611,0.0916997471799824
12.75316,9.68388513307462,0.0913316636957586
12.755548,9.702234592590074,0.0910012318177422
12.757932,9.713227275425918,0.0907306595966857
12.760328,9.720075987142067,0.0904921109777806
12.762716,9.725434454791,0.0902776860483595
12.765112000000002,9.730373613559347,0.090077674783373
12.767508,9.734661146021644,0.0898731436457989
12.769896,9.743372188857348,0.0896292103271852
12.772280000000002,9.7477994909465,0.0894212910878921
12.774676,9.75408912415521,0.0892062218234355
12.777064,9.758236886990645,0.0890087972889016
12.779444000000002,9.7722553839313,0.088755027523484
12.781844,9.787065276804876,0.0885029756390376
12.784232,9.799733299305172,0.0882684210595754
12.786616000000002,9.812401321805469,0.0880340547653631
12.789012,9.82306724355935,0.087811749778276
12.7914,9.831311755686231,0.0876166533532642
12.793780000000002,9.83727462781298,0.0874437457651513
12.796184,9.84696216217884,0.0872566374891988
12.798572,9.856230387664116,0.0870847088466273
12.800956,9.870294210575146,0.0868908738843441
12.803352,9.88822246535215,0.0866782867133368
12.80574,9.913227957555046,0.0864225606171986
12.80812,9.94368067348975,0.0861511825441819
12.810516,9.973481763118391,0.0858741165365362
12.812904,10.00821821979965,0.0855719983156481
12.815284000000002,10.043186993906383,0.0852915227886278
12.817684,10.07345271838598,0.0850585480363033
12.820072,10.10586031323886,0.0848099134601737
12.822452000000002,10.136126037718457,0.084578581869301
12.824848,10.168254093317612,0.0843408002692176
12.827236,10.189021170744324,0.0841777807814817
12.829616,10.210859183357677,0.0840081705309273
12.83202,10.235770231904084,0.0838204196494272
12.834408,10.262823150823769,0.0836182312202342
12.836788000000002,10.294811436796063,0.0833917738966793
12.839188,10.329221132395356,0.0831423393666115
12.841572,10.365912467994786,0.082874392115696
12.843956000000002,10.399018910981962,0.082616294960472
12.846356,10.434406993969278,0.0823416579480759
12.848744,10.463137148411288,0.0820938553287597
12.851124000000002,10.49186730285329,0.0818478871145963
12.85352,10.515941629496403,0.0816186864417828
12.855908,10.53349779722107,0.08141082641171
12.858292,10.551845360878652,0.0812044132823228
12.860688,10.564326391923847,0.0810251479331209
12.863076,10.575224631103207,0.0808436100820017
12.865456000000002,10.589475445469342,0.0806364483155434
12.867852,10.602655324648836,0.0804369536972501
12.870244,10.615974973455192,0.0802333981653468
12.872624000000002,10.629713931142128,0.0800178151874631
12.875024,10.649878499948896,0.0797591146432053
12.877412,10.666830263195749,0.0795223887797326
12.879792000000002,10.68299063050968,0.0792856325090817
12.882196,10.698219832263836,0.0790529395438031
12.88458,10.708513666965375,0.0788429348941147
12.886960000000002,10.715734465733869,0.0786500727686882
12.889364,10.72002199819616,0.0784698745387401
12.891752,10.72496115696451,0.0782954505695263
12.894128000000002,10.723894013493611,0.0781499070212499
12.896532,10.7299041074486,0.0779696468994609
12.89892,10.732189539164477,0.0777998899927551
12.9013,10.738339402746323,0.0776163107060764
12.903704,10.749843942261366,0.0773994396767565
12.906088,10.762698956216768,0.0771681645382504
12.908468,10.779697941291865,0.0769148959965704
12.910864,10.795765760807178,0.0766642334033686
12.913252,10.807037982896745,0.0764302117219545
12.915632000000002,10.81751880905339,0.0761944749621125
12.918028,10.829070570396675,0.075952752395427
12.920412,10.838620230993545,0.075720482776549
12.922808,10.844165690097578,0.0755063498931764
12.925204,10.850130458082193,0.0752795674570839
12.927588,10.85288242050689,0.075072284398801
12.929968,10.851769951065616,0.0748783019263195
12.932372,10.848795150504786,0.0746880730476997
12.93476,10.845680580317095,0.0745017274229776
12.93714,10.84470788050268,0.0743024955279153
12.939544,10.844014719941988,0.0740950527077722
12.941928,10.842530163448377,0.0738849410982918
12.944312,10.834247908782595,0.0736994641828823
12.946708,10.827036589303455,0.0735070829703871
12.949092,10.812887802025283,0.0733428132916293
12.951476,10.796317605120118,0.0731995078546164
12.953880000000002,10.778676473028312,0.0730622948993564
12.956268,10.756099973883892,0.0729437957208779
12.958648,10.732732078806556,0.0728227914950525
12.961044,10.713368385222054,0.0726843769193499
12.963432,10.699499137197604,0.072510493312342
12.965816,10.68190522693404,0.072344492498817
12.968212,10.66710481334981,0.0721721730529728
12.970596,10.65323556532536,0.0719973064704795
12.97298,10.640437252487548,0.0718159707852148
12.97538,10.63299361558293,0.0716041376737256
12.977768,10.628623014611367,0.0713776388813919
12.980148,10.633611291065831,0.0711052980222337
12.982544,10.64223168196079,0.0708034246931153
12.984932,10.647639267295837,0.0705195638487808
12.987312,10.654257557444376,0.0702264203858856
12.989708,10.662877948339334,0.0699247346144437
12.992096,10.672429504794072,0.0696202411292263
12.994476,10.683051996435449,0.0693100825452123
12.996872,10.699820559942935,0.0689725769516401
12.99926,10.715797727517504,0.0686330131339277
13.001656,10.728841628785878,0.068302485244358
13.00406,10.7478918322935,0.0679497405341262
13.006444000000002,10.768012970987764,0.0675909704717522
13.008824,10.783198742629414,0.0672487920963968
13.011228,10.787023536098625,0.0669580564242018
13.013616,10.792710660687389,0.0666631947099283
13.015996,10.79281079191748,0.0663782574328864
13.018392000000002,10.794121627961074,0.0660834404287823
13.020776,10.796363629564445,0.0657876047378629
13.02316,10.791248854488204,0.0655275387922483
13.025556000000002,10.78799641053152,0.0652648867340386
13.027944000000002,10.778318355455008,0.0650367230173363
13.030324,10.765147955564858,0.064833276016177
13.03272,10.754538734928568,0.0646062852673964
13.035108,10.74192741354586,0.064386082216775
13.037488,10.730387027349794,0.0641601536747628
13.039892000000002,10.724713173766114,0.0639182334271266
13.042280000000002,10.718899550555577,0.0636803772777463
13.04466,10.71015266103884,0.0634507252149899
13.047056,10.7043390378283,0.0632134132855925
13.049444,10.703740320924094,0.0629538136669516
13.051824,10.695924596967137,0.062722681111783
13.05422,10.690902369689516,0.0624881038110338
13.056608,10.69188644465114,0.0622341930925624
13.058992,10.704883124091271,0.0619421604496697
13.061388,10.720813069837597,0.0616435661311056
13.063776,10.741398843382814,0.0613389989484168
13.066152,10.763195321741527,0.0610268743689879
13.068548,10.782058533794052,0.0607224876403605
13.070936,10.807207587339546,0.0603919629929769
13.073336,10.83049430976548,0.0600652098515384
13.075732000000002,10.854991737004916,0.0597300524468652
13.078120000000002,10.87948916424435,0.0593948002566952
13.0805,10.90449844816298,0.05907177563188
13.082904,10.931090523947448,0.0587554157052442
13.085288000000002,10.960476096411249,0.0584382233876831
13.087668,10.983855366635805,0.0581396510104509
13.090064000000002,11.00923673760677,0.0578368607464389
13.092452000000002,11.035269734883798,0.0575414080897678
13.094836,11.05836946585463,0.0572534579961309
13.097232000000002,11.077976852011822,0.0569881518240449
13.099616,11.105872180408406,0.0566942247467986
13.101996,11.131625638431712,0.0564107886757669
13.104392,11.15602862201466,0.0561411130444193
13.10678,11.174425303358351,0.0558889717927615
13.10916,11.189888718395856,0.055643492124483
13.11156,11.208425169366416,0.0553903268312175
13.113948,11.223189736269616,0.0551654597794623
13.116344000000002,11.24261013097171,0.0549382146541439
13.11874,11.258677950487025,0.0547283691838631
13.121124000000002,11.272464130002202,0.0545308672900011
13.123508,11.284899835077024,0.0543452644463758
13.125904000000002,11.300408576084898,0.0541511711875464
13.128288,11.31405498597322,0.0539585651651538
13.130672,11.329051870301898,0.0537553659656023
13.133068000000002,11.340975718697525,0.053561899479915
13.135452,11.354761898212704,0.0533674320280496
13.137848000000002,11.364543876235048,0.053182494073445
13.140244,11.373394688697612,0.052998048949999
13.142632,11.382245501160178,0.052813602713974
13.145016000000002,11.3941693495558,0.0526209814119444
13.147412,11.401018061271952,0.0524422064327233
13.1498,11.40800654261496,0.0522600066259209
13.15218,11.414203628025057,0.0520748839622591
13.15458,11.424265145301122,0.0518854659778623
13.156964000000002,11.437120159256525,0.0516956328450686
13.159348,11.443968870972672,0.0515190424818445
13.161744,11.452307826756044,0.0513273840712281
13.164132000000002,11.456782350673436,0.0511409180835044
