Time,Force,Position
11.684892,5.819506917140666,0.1613993918935536
11.73268,6.56855040802529,0.1612570550814427
11.735075999999998,6.590057867840939,0.1610715111719185
11.737476,6.623950019187428,0.1606716267460579
11.739864,6.663801250944926,0.1602086045942506
11.742243999999998,6.707516914568397,0.1596828934270101
11.744635999999998,6.752722822259085,0.1591094549956089
11.747023999999998,6.798674799912317,0.1584560870395082
11.749404,6.8435105164085375,0.1577445188762262
11.751796,6.890814864359998,0.1569366372280503
11.754184,6.935325715632123,0.1561810678598079
11.756579999999998,6.984911703583721,0.1553289929556948
11.758976,7.036220253028015,0.1544463118930943
11.761359999999998,7.083384831352614,0.153652925475883
11.76374,7.123984028930525,0.1530192434033652
11.766144,7.169191832479084,0.1523651294617375
11.768527999999998,7.212070774199262,0.151806359829131
11.770908,7.258255069277971,0.1512175680591058
11.773312,7.311284284357094,0.1504782118014666
11.7757,7.366362822010877,0.1496683278414332
11.778079999999996,7.411757617014539,0.1489844663780757
11.78048,7.449051461233917,0.1484179057884751
11.782868,7.477313189109229,0.1479740868783707
11.785244,7.499103979894338,0.1475853037260529
11.787639999999998,7.512189415417346,0.147258410682752
11.790024,7.522900663141599,0.1469502827611812
11.792419999999998,7.535334472358553,0.1466266487893972
11.794824,7.546138267881424,0.1463528990710098
11.797208,7.55903671194933,0.1460787454475249
11.799587999999998,7.568163271949879,0.1458939427947199
11.801992,7.582085429376181,0.1456444190483226
11.804376,7.598521544228097,0.1453781854259934
11.806755999999998,7.620404882811822,0.1450507078357975
11.80916,7.6442903221419645,0.1446930455823432
11.811544,7.666500421807653,0.1443145220759954
11.813923999999998,7.678654691770884,0.1440187675792529
11.81632,7.690856183562357,0.1436843718649611
11.818708,7.6978899908757406,0.1433982817592711
11.821087999999998,7.70105936632315,0.1431679282678448
11.823479999999998,7.6998524532253905,0.1429813684844501
11.825863999999996,7.702649741620464,0.1427344581500996
11.828259999999998,7.707681448187431,0.1424816218630862
11.83066,7.719743170352045,0.1421598251429403
11.833044,7.736181181061829,0.1417970766693671
11.835423999999998,7.752432200316512,0.1414761173279656
11.83782,7.767332745130834,0.14118838606662
11.840203999999998,7.779811880318158,0.1409523508536435
11.8426,7.795875908117738,0.1406797618582544
11.844996,7.808774352185644,0.1404235842294514
11.847384,7.820928622148874,0.1401334116631803
11.849764,7.823119610208264,0.1399537472723426
11.85216,7.818652669722343,0.1398597815345149
11.854544,7.809669671064393,0.1398141346146844
11.856923999999998,7.800174815727245,0.139758383718386
11.859328,7.78839832038996,0.1397452583814054
11.861716,7.787516272516294,0.1396139449814077
11.864095999999998,7.788868642814522,0.1394775689890459
11.866492,7.797111259083538,0.1392815602719629
11.86888,7.804003400912193,0.1391170574603851
11.871259999999998,7.811686938673766,0.1389480977296609
11.873656,7.821232807554896,0.1387591959349068
11.876039999999998,7.832268920503245,0.1385342194378287
11.878436,7.841070615279699,0.1383171104463225
11.880832,7.847218583003679,0.1381259490693177
11.88322,7.856486808488957,0.1378535557109274
11.885599999999998,7.863101306921759,0.1376042630406683
11.888004,7.867341617555809,0.1373649849053629
11.890388,7.867857265950747,0.1371682700334007
11.892767999999998,7.872237346211655,0.1369229676133892
11.895164,7.875918578338264,0.1367104637305385
11.897552,7.883836329383183,0.1364640287751039
11.899931999999998,7.894268037853719,0.1361987178278366
11.902328,7.90642230781695,0.1359194293500328
11.904711999999998,7.915084232966545,0.1357052360295552
11.907108,7.925608489235696,0.1354683144911467
11.909504,7.928683421026621,0.1353181837559999
11.911892,7.92924439539193,0.1351863631536296
11.914267999999998,7.9246376852791505,0.135097591537908
11.933396,7.827537782245045,0.1350402894438251
11.935776,7.821952684744245,0.1349977233362372
11.938168,7.818229918363002,0.1349347426196506
11.940552,7.8163694831013135,0.1348517159956237
11.942948,7.822237911571573,0.1346766892404935
11.945344,7.830387980041971,0.134462865130881
11.947728,7.837514335153972,0.1342293816215589
11.950107999999998,7.842126732840359,0.1340121685265616
11.9525,7.850091705713521,0.1337381995856367
11.954883999999998,7.858196448213544,0.1334571157610852
11.95728,7.870165622579539,0.1331303905896019
11.959683999999998,7.886138998438368,0.1327531004166285
11.962068,7.90704774134981,0.1323159994726493
11.964448,7.928840427992787,0.131904730788951
11.966844,7.949934266501464,0.1315265999763035
11.969228,7.97689463762253,0.1310770055472039
11.971624,8.004506635049655,0.1306306031177292
11.974019999999998,8.029836992476644,0.1302221222168852
11.976404,8.05595874583655,0.1298067358528827
11.978784,8.081568642517258,0.1293823825295418
11.98118,8.102662481025932,0.1290033802645608
11.983568,8.121382131735857,0.1286381214635953
11.98596,8.140521091326358,0.1282557073797428
11.988355999999998,8.154305374983666,0.1279541549337457
11.99074,8.15956939897611,0.1277448844066328
11.99312,8.16576458852833,0.1275282519745258
11.995523999999998,8.173263030692667,0.1273192529363495
11.997911999999998,8.185137761402178,0.1270783022460754
12.000292,8.199666219164161,0.126818633881254
12.002687999999996,8.219362361404237,0.1265264677599686
12.005072,8.237056402897895,0.1262599190997522
12.007452,8.25060647327186,0.1260486774046129
12.009848,8.261874903645685,0.1258755208534723
12.012236,8.276635678833149,0.125646795724003
12.014628,8.294888798834243,0.12536312866546
12.017023999999996,8.30969679584995,0.1251026760395903
12.019408,8.326646663238932,0.1248144061521466
12.021788,8.345878170628051,0.1244901189647996
12.024188,8.370976210629559,0.1241048666548178
12.026572,8.397936581750626,0.123705312933842
12.028956,8.42647974473753,0.1233018457935044
12.031359999999998,8.457257325896327,0.1229026476921695
12.033744,8.486544662987907,0.1225375200914264
12.036124,8.517834100825903,0.1221483808150462
12.03852,8.551917035343234,0.1217329758307287
12.040904,8.582135537994592,0.1213587287920775
12.0433,8.613704515086308,0.1209612955815902
12.045699999999998,8.642619765125547,0.1205849223510631
12.048083999999998,8.66967268404523,0.1202280752542995
12.050464,8.689835356994127,0.1199120095596253
12.052867999999998,8.709998029943026,0.1195963221429207
12.055255999999998,8.7335132780787,0.119235018427841
12.057636,8.754235029535037,0.1188968733286577
12.060031999999998,8.770952579498541,0.1186031703256151
12.062419999999998,8.784736863155851,0.1183403260531798
12.0648,8.803037204985195,0.1180475225891899
12.067203999999998,8.820546150881617,0.1177586239761786
12.069591999999998,8.83884649271096,0.1174690206069479
12.071972,8.855424273047605,0.1171918202794548
12.074367999999998,8.869068787078051,0.1169429108561232
12.076755999999998,8.88406377554886,0.11667130550001
12.079136,8.894682475474498,0.1164254408951452
12.081531999999996,8.904509779467217,0.1161808042557923
12.08392,8.915547788273432,0.1159183315605929
12.0863,8.925375092266151,0.1156738960481696
12.088696,8.937344266632147,0.1154044303864701
12.09108,8.947171570624864,0.1151614585944634
12.093476,8.955927939430945,0.1149310869878691
12.09588,8.960680106744187,0.1147396326508645
12.098264,8.967806461856188,0.1145434531372715
12.100644,8.976003752154826,0.1143351166550449
12.103039999999998,8.98177963282647,0.1141640398893687
12.105423999999998,8.98941784461767,0.1139787077191367
12.107804,8.997056056408866,0.1137930233536115
12.110207999999998,9.005625433759848,0.1136009599747374
12.112591999999998,9.008328278498434,0.1134621838116693
12.114972,9.009960188050378,0.1133361984912029
12.117375999999998,9.010009305736494,0.1132128088565293
12.119763999999998,9.007125157116409,0.1131155180934215
12.122144,9.005311943682962,0.1130058109262813
12.124548,9.001636399129962,0.1129097269606925
12.126931999999998,8.997821084950099,0.1128190262077147
12.129312,8.998009972263068,0.1126907697750759
12.131716,9.000061190695597,0.1125499964591013
12.134104,9.00760685468818,0.1123445046366048
12.136483999999998,9.01459344017332,0.112161510460334
12.138888,9.021580025658462,0.1119786559225579
12.141272,9.032431043009575,0.1117654253232405
12.143648,9.047286261853523,0.11151522582446
12.146043999999998,9.063352185510972,0.1112483705201972
12.148431999999998,9.076484842862223,0.1110061502629458
12.150812,9.08789493872078,0.1107707369896432
12.153216,9.101446904952612,0.1105128098722853
12.155604,9.1180719071175,0.1102259247664539
12.157984,9.13269480853597,0.1099574801791117
12.160388,9.14824887551422,0.1096815705726964
12.162772,9.163383633611888,0.1094220789493595
12.165152,9.180892579508308,0.109160688065333
12.167547999999998,9.19905315171079,0.1089037350268608
12.169935999999998,9.21800511984619,0.1086467457568695
12.172316,9.239610815034064,0.1083784490702761
12.17472,9.25935417910238,0.1081212916836093
12.177103999999998,9.275233111304727,0.1078958023765216
12.179484,9.285525050148404,0.1077077230019922
12.181879999999998,9.29381488824566,0.1075393300021768
12.184264,9.298939142611244,0.1073734235117311
12.186659999999998,9.303132231417049,0.1072134510435265
12.18906,9.303600657983743,0.1070779484895153
12.191444,9.304069084550434,0.1069428162262371
12.193823999999998,9.301604244810934,0.1068306658974002
12.196224,9.301932901750767,0.1067006703259574
12.198612,9.309199026489628,0.1065143864671573
12.200991999999998,9.31632538160163,0.1063346101398493
12.203383999999998,9.321449635967214,0.1061722803381342
12.205771999999998,9.328855530332936,0.1059831869678689
12.208168,9.34068493507207,0.1057463576570769
12.210564,9.35214225275887,0.1054942802864716
12.212952,9.359363051527358,0.1052547771320247
12.215331999999998,9.370076195109482,0.1049739045530513
12.217736,9.380137712385546,0.1046889917829523
12.22012,9.381818739623606,0.1044533643932086
12.222499999999998,9.390297465033836,0.1041692577269393
12.224904,9.40077829119048,0.1038694699019825
12.227292,9.418056815519297,0.1035222640655608
12.229672,9.431331138355276,0.1032078265925694
12.232075999999998,9.44833012343037,0.1028717469975802
12.234463999999996,9.465608647759186,0.1025251015336905
12.236844,9.483166711341722,0.1021681642169535
12.23924,9.498210817498643,0.1018174603317884
12.241628,9.518469829961896,0.1014209274842639
12.244008,9.539427690559451,0.1010010607857885
12.246404,9.555869492984977,0.1006060705976002
12.248792,9.571008042798384,0.100203203500247
12.251172,9.585355196678874,0.0998005866838284
12.253568,9.596629314626306,0.0994234800935851
12.255956,9.605109935894404,0.099063630294943
12.258335999999998,9.614521722722284,0.0986990422406521
12.26074,9.626727006229496,0.0983190952687676
12.263124,9.633996922684096,0.0979748317631009
12.265503999999998,9.643408709511974,0.0976124763589152
12.267908,9.661480525631577,0.0971963662504915
12.270296,9.67331372208645,0.0968053231396845
12.272676,9.683284587421769,0.0964244124527633
12.27508,9.68459542346536,0.0960957767603142
12.277464,9.689770691374926,0.0957438529017563
12.279844,9.693223397791796,0.095396785412561
12.282247999999996,9.701891010514998,0.0950091622104951
12.284636,9.71013931435762,0.0946359045088038
12.287016,9.722903676372272,0.0942461465491051
12.289412,9.73273477208073,0.0938768602571988
12.2918,9.740004688535333,0.0935412610202864
12.29418,9.744853195362936,0.0932335646095169
12.296583999999998,9.749002854056236,0.092950524419108
12.298971999999996,9.755154613495955,0.0926545133097175
12.301352,9.76409986961501,0.0923456597313529
12.303748,9.770763485733925,0.0920597487546132
12.306132,9.778498037039478,0.0917656329126015
12.308512,9.78716375390481,0.0914681377113567
12.310908,9.7976918018897,0.0911621979559662
12.313296,9.800071677262064,0.0909127493353529
12.31568,9.798447351141592,0.0906901121989896
12.318076,9.799197212819871,0.0904691367765742
12.320464,9.800086844125016,0.0902431788002998
12.322843999999998,9.80684300804255,0.0899824578783544
12.325244,9.808663804907471,0.0897517033350104
12.327632,9.810996458451593,0.0895313213117101
12.330011999999998,9.807834666435658,0.0893605651006349
12.332412,9.808816845539418,0.0891600847419448
12.334796,9.804212031284504,0.0889832635915818
12.337192,9.798396512216096,0.0888197101278399
12.339595999999998,9.794862633147826,0.0886341597039904
12.341979999999998,9.79440179001261,0.0884274387763304
12.34436,9.794220486131112,0.0882113371562
12.346764,9.79268870780926,0.0880135843108155
12.349151999999998,9.790505303181348,0.0878104558875158
12.351532,9.790323999299853,0.0875948321775833
12.353936,9.78800082504508,0.0873962531388371
12.356324,9.781673449297474,0.0872216667237239
12.3587,9.773064433549733,0.0870683757649418
12.361104,9.77432615190721,0.0868588144713783
12.363487999999998,9.778660906197748,0.0866292283226517
12.365868,9.781924725301645,0.0864079494335253
12.368263999999998,9.784769235524958,0.0862006275720135
12.370651999999998,9.787194436867694,0.0860080511416142
12.373032,9.793623839703264,0.0857914033942499
12.375427999999998,9.801124177725471,0.0855668827298865
12.377815999999996,9.810766386120958,0.0853261075396787
12.380196,9.817475328210248,0.0851018852353514
12.382592,9.82762939328493,0.0848727765310279
12.38498,9.838574854292531,0.0846448365461649
12.38736,9.846167740113358,0.0844461418506846
12.389763999999998,9.84975642444135,0.0842705409616301
12.392151999999998,9.850132303209426,0.0841190415148804
12.394532,9.8529295916045,0.0839424034599208
12.396935999999998,9.855447340745853,0.08377532726028
12.399323999999998,9.858616716193264,0.083614489680334
12.401704,9.86579029313351,0.083431563439005
12.404099999999998,9.8831141434327,0.0831894237116663
12.406484,9.903650799291803,0.0829236741708714
12.408868,9.920323023284936,0.0826775716657579
12.411263999999996,9.933642672091288,0.0824600647655643
12.413652,9.954179327950392,0.0821997851388977
12.416032,9.977649250115691,0.0819263160643811
12.418428,10.001398711534714,0.0816450289063394
12.420816,10.02593956888665,0.0813669114643383
12.423196,10.049689030305672,0.0810883885794515
12.425592,10.072227786911192,0.0808227197429156
12.42798,10.092484903516578,0.0805762737956234
12.430376,10.11395272493546,0.0803192871210422
12.432771999999998,10.13770218635448,0.0800443371496473
12.435155999999996,10.166666554079834,0.0797379755954497
12.437536,10.202288850350492,0.0794078029660184
12.439935999999998,10.238982081807794,0.0790684344338866
12.44232,10.27139157251854,0.0787596716894192
12.4447,10.302730128042649,0.0784584162272213
12.447103999999998,10.332206352447196,0.0781632509924508
12.449491999999998,10.35339463461236,0.0779173491007896
12.451872,10.364153104164858,0.0777368317869971
12.454268,10.375051343344218,0.0775527909538059
12.456656,10.382597007336798,0.0773942872549117
12.459036,10.39149314576974,0.0772197630904411
12.461432,10.392101341963292,0.0770944183895407
12.46382,10.39205791185079,0.0769634622931095
12.4662,10.392014481738284,0.0768328476727238
12.468607999999998,10.387315223826889,0.0767153057395002
12.470992,10.381545030728851,0.0766046123332265
12.473376,10.376054376884538,0.0764851800223934
12.475771999999996,10.37405606785386,0.0763361536968986
12.478156,10.370195427703624,0.0761925333758083
12.48054,10.365263852366752,0.076056102060638
12.482936,10.36140321221652,0.0759137218520039
12.485324,10.350093247588056,0.0757906324600346
12.487716,10.344929354825704,0.0756362600439888
12.490116,10.338694526876711,0.075487924871562
12.492503999999998,10.334601569301,0.0753262755027828
12.494884,10.33199885579251,0.0751451009291968
12.497279999999998,10.337684084523405,0.0749191388407137
12.499667999999998,10.349515385120409,0.074662078812647
12.502048,10.359996211277052,0.0744208003721901
12.504447999999998,10.375831713366892,0.0741465822824756
12.506835999999998,10.391527445829873,0.0738771267249036
12.509216,10.40857365273321,0.0735920440309433
12.51162,10.423338219636411,0.0733248483800653
12.514008,10.43409858504678,0.0730751168310041
12.516387999999996,10.44993408713662,0.0728016562924383
12.518783999999998,10.466840524413096,0.0725219311639107
12.521167999999998,10.482676026502936,0.0722489278249522
12.523548,10.497161054152414,0.0719918259634968
12.525951999999998,10.50978375068234,0.0717390992605128
12.528335999999998,10.521475281652483,0.071489272102583
12.530716,10.52515840963696,0.0712737277613867
12.533111999999996,10.538712271726665,0.0710213679570859
12.5355,10.54826193232353,0.0707871850676735
12.537895999999998,10.563166268853593,0.0705221463394002
12.540292,10.579001770943432,0.0702564772796586
12.542675999999998,10.595349129712467,0.0700022670161747
12.545059999999998,10.609973926988811,0.0697496083744057
12.547456,10.619151500533338,0.0695046812700263
12.549839999999998,10.629679548518231,0.0692461411128265
12.552224,10.6394162005702,0.0689867099656311
12.554619999999998,10.650503327062532,0.0687140057796498
12.557003999999996,10.66238184948778,0.0684437535236059
12.559388,10.675471076726526,0.0681636668205427
12.561783999999998,10.692844044711826,0.0678603223111006
12.564171999999996,10.707935372696992,0.0675738918220116
12.566567999999998,10.724097635868796,0.0672826678915553
12.568964,10.7414706038541,0.0669820055143112
12.571352,10.75898334146626,0.0666778198322551
12.573731999999998,10.77728747501134,0.0663757176092123
12.576136,10.792658342250224,0.0660821872742325
12.578524,10.812033410981943,0.0657733500375253
12.580904,10.821677515235296,0.0654939787487499
12.583308,10.830250684302014,0.0652203137702632
12.585692,10.83882385336873,0.0649483207087879
12.588072,10.843812129823192,0.0646786892385706
12.590476,10.847077844784955,0.0644082297667637
12.592864,10.850343559746724,0.0641387149378317
12.595244,10.854260901014548,0.0638748986282089
12.597647999999998,10.856315911162817,0.0636142248161755
12.600035999999998,10.859022547617144,0.0633611732558809
12.602416,10.860518479257973,0.0631179204737158
12.604812,10.864296050898936,0.0628609335895363
12.6072,10.86821339216676,0.0626003302139775
12.60958,10.872922129367502,0.0623435389500131
12.611983999999998,10.878050175448823,0.062075345245495
12.614368,10.885180322276565,0.0618023492008494
12.616748,10.894312569850722,0.061524245958616
12.619147999999996,10.905586687798154,0.0612372561044473
12.621536,10.924217582425197,0.0609218864362581
12.623916,10.945921512985295,0.0605954894533618
12.626319999999998,10.967765213172251,0.0602660687532319
12.628704,10.992262640411688,0.0599365692196914
12.631084,11.019041707651258,0.0595944517310458
12.63348,11.040605868584496,0.05927304272969
12.635868,11.063892591010434,0.0589538101098795
12.638252,11.089041644555923,0.0586334487675691
12.640648,11.108975791795084,0.0583328892993995
12.643036,11.131051809407522,0.0580229711150161
12.645416,11.153779453326017,0.0577202680006648
12.647816,11.175715701311592,0.0574162262178519
12.650204,11.198722884483804,0.0571086197808163
12.652584,11.219727966909602,0.0568079919530994
12.65498,11.24045351008168,0.0565155967231289
12.657368,11.257966247693842,0.0562375882934557
12.659748,11.273057575679005,0.0559762438993796
12.662152,11.28093189661142,0.0557389868512172
12.664536,11.283591311237505,0.0555204359387193
12.66692,11.28396908586345,0.0553151278690018
12.669316,11.272846112690091,0.055151011149294
12.6717,11.26344570100943,0.0549895425705422
12.674084,11.255767850821464,0.0548307930063487
12.67648,11.250092101379916,0.0546671381296766
12.678864,11.239992841564952,0.0545240953282481
12.681243999999998,11.233897783242824,0.0543710993368061
12.683648,11.23045645197317,0.0542205743226254
12.686036,11.227154890330374,0.0540666470902296
12.688415999999998,11.229719861299971,0.0539020879532955
12.690816,11.233867624135405,0.0537443897875655
12.6932,11.239226091784332,0.0535791947879825
12.695583999999998,11.24151152350021,0.0534227828273246
12.69798,11.240584149656168,0.0532786970185707
12.700368,11.241379337304826,0.0531378013937035
12.70276,11.24231429458034,0.0529933449577174
