Time,Force,Position
15.21606,3.587613612931133,0.1740470156903764
15.21846,3.787394724784403,0.1724155575927899
15.220847999999998,3.978100290181106,0.1709372484090726
15.223232,4.1566119472178125,0.1693317744593724
15.225644,4.31869317697621,0.1678268275642291
15.228032,4.467090254307394,0.1664306983539489
15.230412,4.614140648913955,0.1647862943000015
15.232808,4.750345713743011,0.1632968552386914
15.235196,4.8755203531973255,0.1617626265021446
15.23758,4.978862667611895,0.1605744830995337
15.239976,5.062746844785477,0.1596885585934357
15.242364,5.133923361061994,0.1589214087790508
15.244744,5.186338692373953,0.1584802466772113
15.24714,5.228328002788988,0.1580400674673193
15.249528,5.256446169321704,0.1576629220351663
15.251912,5.26799224309138,0.1574398459503193
15.254308,5.267759925665902,0.157405679215655
15.256696,5.266503894882029,0.1573469542087021
15.259076,5.264596237792099,0.1572861513102852
15.261472,5.2680432566353605,0.1570780532033291
15.26386,5.271769814732343,0.1568462338127865
15.266244,5.2781500998818,0.1565688563318068
15.26864,5.2836917672700965,0.1563572196784513
15.271028,5.291700170255765,0.1561639040519351
15.282976,5.325681077685132,0.156009333068296
15.285364,5.337132707798323,0.1559182306460933
15.287748,5.350586438657931,0.1557787450582676
15.290144,5.366461579144536,0.1555651263175184
15.292528,5.388110704444915,0.1551730600661248
15.294911999999998,5.407617959372017,0.1548412458434229
15.297323999999998,5.4251231135527,0.1545577352965964
15.299711999999998,5.4478431740397175,0.1541439199835299
15.302092,5.4721932482208135,0.1536636789930415
15.304491999999998,5.492771438334553,0.1533151961556242
15.306879999999998,5.515164737739607,0.1529927012020343
15.309276,5.538162441622475,0.1527288569478953
15.311676,5.563813872557819,0.1524202569069447
15.314064,5.588534137933384,0.1521332198954979
15.316444,5.615256504055364,0.1518073203347698
15.318844,5.646681919804481,0.1513557412249818
15.321228,5.681879219620954,0.1507915501867478
15.323612,5.71591303645217,0.1502116375376586
15.326008,5.748364061417552,0.1496339541514114
15.328396,5.7750883233974015,0.1491716287583325
15.330775999999998,5.803535146869949,0.1486914032653785
15.33318,5.834635697394974,0.1481782990792318
15.335568,5.862291124934603,0.1477082500426302
15.337948,5.88487141579476,0.1473517578623126
15.340344,5.905961462587697,0.1470517296686035
15.342732,5.925701034940276,0.1467931749168851
15.345116,5.949956665464886,0.1464670547404298
15.347512,5.974072526362636,0.1461595012848549
15.3499,5.997396991327468,0.145862876036328
15.352284,6.0194182036801855,0.1455586731917902
15.35468,6.0346417178607314,0.1453810057252511
15.357068,6.05056408017558,0.1451600107778307
15.359448,6.06746482987845,0.1448776976301934
15.361848,6.081339765476509,0.1446109582175957
15.364236,6.090047016596476,0.1444088448718695
15.366616,6.093120052529532,0.1443464409249037
15.369012,6.096053318835727,0.1442941822658694
15.3714,6.0999177507017,0.1442275414082492
15.373784,6.111930355180202,0.1440024883529462
15.37618,6.125153664472201,0.1437442500064817
15.378568,6.13823720413734,0.1434981928574235
15.380952,6.150389578242701,0.143269917430028
15.383356,6.168688024214173,0.142924996800147
15.385744,6.188896023133444,0.1425056979270448
15.388128,6.209802870187017,0.1420450625724574
15.390524,6.240348133920337,0.1413937744913543
15.392912,6.268379440228043,0.1407748642725073
15.395292,6.288961422057522,0.1402619816839382
15.397692,6.307401533513723,0.139793364938769
15.40008,6.327703976089482,0.1392981184644664
15.402464,6.356294360904628,0.1386485827190222
15.40486,6.382882644973357,0.1380383680711555
15.407248,6.408120454601728,0.1374709241782472
15.409628,6.432799185722658,0.1369325331779282
15.412028,6.458920939082563,0.1363899147471121
15.414412,6.486532936509688,0.1358008519822565
15.416796,6.509209566884199,0.1352966582006385
15.466976,6.373850703247784,0.1348817325497235
15.469376,6.374549551382084,0.134841295038924
15.471764,6.376831191382221,0.1347932311799425
15.474147999999998,6.382418184740891,0.1347214014673796
15.476544,6.394663106644869,0.1345587037741762
15.478936,6.412215482653798,0.134342309276324
15.481312,6.429907628289585,0.1341158729599267
15.483716,6.44853093948515,0.1338776205633913
15.486104,6.470506825867492,0.1335689953843132
15.488483999999998,6.49541597855603,0.1332136379504274
15.490888,6.520744440125148,0.1328371814084928
15.493276,6.545933132067405,0.1324664109327649
15.495656,6.575545334383078,0.1320094829419122
15.49806,6.603574744832914,0.1315605485180729
15.500448,6.632675090469387,0.1310949675433997
15.502832,6.660984040172945,0.130635808107497
15.505228,6.6902241554362805,0.1301692311313235
15.507612,6.715739608460502,0.1297525180569877
15.509992,6.744467867044639,0.1292818761992759
15.512388,6.767050053762666,0.1289149610673259
15.514776,6.787118283055077,0.1285663009335166
15.517155999999998,6.805231633429314,0.1282077592682877
15.519552,6.817106364138824,0.1279117306302696
15.52194,6.825815511116661,0.1276298972481626
15.524319999999998,6.82907743436269,0.1274087857650258
15.526716,6.825309342011072,0.1272531629337709
15.529103999999998,6.825173364099949,0.1270185129514656
15.531487999999998,6.828809270256184,0.1267000337956682
15.533884,6.834447277158836,0.1263541935353173
15.536272,6.83943365775543,0.1260037797373604
15.538652,6.840276067232331,0.1257179973143056
15.541047999999998,6.845681756709506,0.1253457799514765
15.543435999999998,6.85122721581354,0.1249705375364962
15.545816,6.855981278984656,0.1245967626722334
15.54822,6.85552043584944,0.1243035219794334
15.550608,6.853057491967808,0.1240379965056635
15.552988,6.846078489914143,0.1238166140959047
15.555383999999998,6.841381127860616,0.12355184148257
15.557771999999998,6.829886067634921,0.1233739553981826
15.560152,6.817599611476306,0.1231984772169101
15.562547999999998,6.806104551250611,0.1230196769188519
15.564936,6.794050412517475,0.1228709272964592
15.567316,6.783858604903895,0.1227007027511124
15.569712,6.775389358783011,0.1225164603194311
15.5721,6.768363134901104,0.1223337107210937
15.574484,6.766644365124145,0.1221023207146515
15.593611999999998,6.663676033619782,0.1220439641242992
15.595992,6.6568802313054825,0.1220086639006323
15.598392,6.652877925670518,0.1219431539372686
15.60078,6.653391678207584,0.1218349078182618
15.60316,6.656279618543405,0.1217204834449043
15.605555999999998,6.667827588170954,0.121503692025262
15.607943999999998,6.683891615970532,0.1212451163085466
15.610324,6.702609370822582,0.1209655187813991
15.612723999999998,6.722258291234414,0.1206768304380647
15.615111999999998,6.752569341684387,0.1202674300102533
15.617492,6.786465284746614,0.1198327579346569
15.619887999999998,6.823154724488174,0.1193731657766119
15.622276,6.860775329789513,0.1189107671678566
15.624672,6.899187331023772,0.1184479698514159
15.627068,6.942255160056921,0.1179369424223291
15.629456,6.989699277635243,0.1173942567560191
15.63184,7.043149697452813,0.1167852367024987
15.634236,7.093666850964188,0.116215486667222
15.636624,7.148700062647595,0.1156115008203605
15.639003999999998,7.2031741958235616,0.11503169385717
15.641408,7.256577393812889,0.1144728895043737
15.643792,7.309189195869298,0.1139273360095821
15.646176,7.3645944946050435,0.1133637428184286
15.648572,7.419860023713928,0.1128131389083947
15.65096,7.47005041614334,0.1123288149778708
15.653339999999998,7.51502590226642,0.1119201979219141
15.655736,7.5600013883895,0.1115156234430481
15.658124,7.604325248206521,0.1111097002843627
15.660503999999998,7.648788877650404,0.1106995273914107
15.6629,7.680308737056007,0.1104380855773671
15.665288,7.708243703849357,0.1102048317895109
15.667668,7.732733547657313,0.1099911387332507
15.670063999999998,7.752939650718717,0.1098349188187097
15.672456,7.774076919339898,0.1096722298652808
15.674836,7.793771165722102,0.1095063333618654
15.677231999999998,7.81337286430569,0.1093117157440324
15.679619999999998,7.825897325463389,0.1091967663616865
15.682016,7.838561556247948,0.1090755680005273
15.684412,7.8469892681141955,0.1089727776485301
15.6868,7.859700720726997,0.1088157480449148
15.689184,7.873483108526439,0.1086462299597029
15.69158,7.881259194086629,0.1085390600195946
15.693968,7.884099912594206,0.1084808414210706
15.696348,7.886149235168866,0.1084237984425805
15.698752,7.887966240318049,0.1083423361461716
15.70114,7.889131619161173,0.1082553719304954
15.70352,7.88964537169824,0.1081634004311846
15.70592,7.888948419421808,0.1080911046302343
15.708308,7.890253567891793,0.1079990188829472
15.710688,7.897704788227888,0.1078398468190762
15.713088,7.904457160429683,0.1077116431301454
15.715476,7.911861158937536,0.1075887987920673
15.71786,7.923037041512745,0.1074018433271712
15.720256,7.930628031475702,0.1072367279730794
15.722644,7.934354589572685,0.1071051327818284
15.725028,7.934868342109751,0.1070134858515106
15.727424,7.936592799460317,0.1069023181393438
15.729812,7.942461227930575,0.1067459111256471
15.732196,7.950331757147252,0.1065700532380899
15.734592,7.950613192258841,0.106454701972734
15.73698,7.948240900317958,0.1063538071596864
15.73936,7.949221183563848,0.1062073783747718
15.741756,7.95090031494404,0.1060297218440842
15.744144,7.951788050391315,0.1058530452770847
15.746528,7.95733161363748,0.1056431278871171
15.748924,7.961664472070147,0.1054514786138832
15.751312,7.964134999383258,0.1052736006794093
15.753692,7.969166705950225,0.1050523482867551
15.756088,7.968611419158522,0.1048712642482359
15.758476,7.961398203821511,0.1047424258588365
15.76086,7.955442915126244,0.1045581456314736
15.763256,7.945902733818722,0.1043937580426308
15.765644,7.933289516578144,0.104261397795244
15.768024,7.9246805008304,0.1040900823496003
15.77042,7.924731514374381,0.1038476141989745
15.772808,7.9258534631050015,0.1035923208767452
15.775192,7.926184015902702,0.1033372666696533
15.777596,7.921579201647793,0.1031277333387645
15.779984,7.913901351459827,0.1029494177491388
15.782364,7.916094235377086,0.1026828707894418
15.784764,7.92149992485426,0.1023799665272077
15.787152,7.926905614331433,0.1020776262017594
15.789532,7.933894095674444,0.1017755079617306
15.791928,7.939160015524759,0.1014794594270483
15.794316,7.938419633135823,0.1012388494607682
15.7967,7.9410318259336625,0.1009553461918248
15.799096,7.942852622798584,0.1006712502749748
15.801484,7.943322945223144,0.1004127645168302
15.803864,7.94858886507346,0.1001179578294919
15.80626,7.962654583842359,0.0997509006376275
15.808648,7.980305195223512,0.0993701923460591
15.811032,8.00582443996347,0.098925656897469
15.813436,8.030272749516792,0.0984916849955497
15.815824,8.049925461644362,0.0980935858889423
15.818204,8.059707439666706,0.0977780717656084
15.820603999999998,8.069349648062193,0.0974688964051779
15.822992,8.079271395711398,0.0971476971190074
15.825372,8.085840568173829,0.0968657897300493
15.827768,8.09734510768887,0.0965436941545477
15.83016,8.101400322725686,0.0962692981949022
15.83254,8.10489645925506,0.0960203681087077
15.834936,8.108252826157575,0.0957776763112159
15.837324,8.107884530820975,0.0955568717750303
15.839704,8.112172063283268,0.0953090422349649
15.842107999999998,8.120463797238394,0.0950268946955906
15.844495999999998,8.128103904887464,0.0947396975377739
15.846876,8.138257969962146,0.0944480154866385
15.849275999999998,8.148412035036829,0.0941576331424781
15.851663999999998,8.153630733058899,0.0939057693898
15.854044,8.15284312884172,0.0937040907817842
15.85644,8.143627812758293,0.093585222292106
15.858828,8.130268525555172,0.0935044305764101
15.861208,8.115046907232493,0.0934338824034192
15.863608,8.104341347081846,0.0933428096152654
15.865996,8.10006139805103,0.0931849276566947
15.868376,8.095129822714158,0.0930204125616026
15.870772,8.089639168869844,0.0928789356374186
15.873156,8.093647162078415,0.0926443958964343
15.87554,8.090577917861099,0.0924691725721269
15.877944,8.090674257375454,0.092296360653671
15.880332,8.085183603531139,0.0921541867469268
15.882712,8.077411309686687,0.0920396914836078
15.885111999999998,8.076296944387545,0.0918833485315216
15.8875,8.06917627684915,0.0917752212698236
15.88988,8.060984674124118,0.0916779742205514
15.892276,8.054096324011201,0.0915937953931586
15.894664,8.048418678711782,0.0914931626185355
15.897048,8.039667997479311,0.0914187542531372
15.899444,8.03371081292617,0.0913292889766251
15.901836,8.02961595949259,0.0912297128218346
15.904216,8.028733911618927,0.0910970877984857
15.906612,8.02785186374526,0.0909644960863674
15.909,8.03469867960354,0.090780437221743
15.911384,8.041825034715542,0.0905861308524248
15.913787999999998,8.04932347687988,0.0904113309733313
15.916175999999998,8.057473545350277,0.0902433234583005
15.91856,8.06883641938059,0.0900442326512366
15.920956,8.07284251673129,0.0899138978822587
15.923348,8.082203290015187,0.089730995499033
15.925727999999998,8.090912436993024,0.0895418058220243
15.928128,8.104277411769754,0.0893284584328341
15.930516,8.123788458412594,0.0890650664170579
15.932895999999998,8.137013663562463,0.0888590885977143
15.935296,8.155034466138083,0.0886239624374818
15.937684,8.176268074273622,0.088359969435598
15.940067999999998,8.194568416102962,0.0881159690637244
15.942464,8.210726887559028,0.0878937190219928
15.944848,8.229958394948147,0.0876465830822992
15.947228,8.2519833990166,0.0873875211104091
15.949623999999998,8.277081439018112,0.0871060029654918
15.952008,8.304181579766038,0.0868107363910667
15.954392,8.329279619767549,0.086529186486082
15.956787999999998,8.350373458276225,0.0862787982223887
15.959172,8.365460994545652,0.0860709132596505
15.961556,8.375613163762464,0.085895570709658
15.963959999999998,8.385765332979277,0.0857204236228704
15.966344,8.392704696636176,0.0855753762851281
15.968724,8.402577326599271,0.085411753342747
15.971127999999998,8.412822043614701,0.085267118911519
15.973515999999998,8.425068861376548,0.0851094815390028
15.975896,8.4355931176457,0.0849549856797761
15.978296,8.441321776489099,0.0848276211911792
15.980679999999998,8.45361581607919,0.084638150477029
15.983064,8.462185193430166,0.0844651117516148
15.985464,8.464748268541893,0.0843329333994334
15.987851999999998,8.470663918840396,0.0841673903608657
15.990235999999998,8.477650504325535,0.0839928780101156
15.992632,8.484776859437538,0.0838137788431941
15.995019999999998,8.491531127497202,0.0836186534451567
15.9974,8.497214460370229,0.0834341657100334
15.999804,8.502897793243255,0.0832503850210747
16.002187999999997,8.517800233915446,0.0830038667368072
16.004568,8.53763804164025,0.0827311673663748
16.006976,8.56534448272386,0.0824147832021398
16.00936,8.60133886604686,0.082040639781389
16.011739999999996,8.639475119743135,0.0816512780845471
16.014148,8.680963948626186,0.0812324714038
16.016536000000002,8.722732316762958,0.0808057905409323
16.018915999999997,8.764128597847392,0.0803650356224905
16.021312,8.80324323893169,0.0799485378529817
16.023699999999998,8.84701370781488,0.0795183244095726
16.02608,8.893577673377402,0.079080090877339
16.028484,8.932924631887177,0.0786923129607085
16.030867999999998,8.976136022262924,0.078287370368999
16.033251999999997,9.027076276370618,0.077849013645908
16.035648000000002,9.074524185664677,0.0774471360983985
16.038035999999998,9.11996999421232,0.0770576117414904
16.040416,9.162994393132966,0.0766951370943764
16.042811999999998,9.201315742426472,0.0763812102497119
16.0452,9.23563289022715,0.076090266453058
16.047579999999996,9.271020973214464,0.0757937011217887
16.049984000000002,9.296119013215977,0.075564706942913
16.052368,9.31227748467204,0.0753828889610267
16.054747999999996,9.323500589075492,0.0752267121599918
16.057152000000002,9.328437851985976,0.0751134091708695
16.05954,9.335237446016013,0.0749955345594151
16.06192,9.339475860792191,0.074907818630732
16.064315999999998,9.342643340381734,0.0748279444917132
16.066704,9.342598014411362,0.0747707471129526
16.069083999999997,9.344974098067985,0.0746891065395382
16.07148,9.341763188365938,0.074623694603704
16.073867999999997,9.336829717171192,0.0745588373277746
16.076251999999997,9.336831613029066,0.074471270022557
16.078648,9.33790444407357,0.0743768974213019
16.081035999999997,9.329106541012855,0.0743270624688434
16.083416,9.3216591123925,0.0742603915962845
16.085811999999997,9.316074014891695,0.0741885752106834
16.088203999999998,9.311979161458115,0.0740951731627369
16.090584,9.307791760225916,0.0739753350655423
16.092979999999997,9.306956934180494,0.0738287129848531
16.095368,9.302257676269098,0.0736969893653923
16.097748000000003,9.29904866242492,0.0735430271546936
16.100156,9.298261058207745,0.0733638832983922
16.102544,9.29882392843092,0.0731677390266336
16.104928,9.303950078654376,0.0729335270892785
16.107324,9.30134736514588,0.072728859696005
16.109712000000002,9.300514434958329,0.0724934185933174
16.112091999999997,9.300752439957414,0.0722512009698711
16.114492,9.303132315329773,0.0719943270448382
16.116880000000002,9.30257892439594,0.0717498952913604
16.119259999999997,9.304027634208524,0.0714957118442857
16.121664000000003,9.30561611364797,0.0712371098710892
16.124048000000002,9.30375947010202,0.0709784408184949
16.126427999999997,9.297666307637762,0.0707172834309929
16.128832000000003,9.299069691479971,0.0704068978682291
16.13122,9.30117192345648,0.070073462460447
16.1336,9.305183708380792,0.0697067097689119
16.136000000000003,9.309614802185685,0.0693266284337463
16.138384000000002,9.320703824535885,0.0689288059377025
16.140768,9.331792846886083,0.0685327233028877
16.143164,9.343952804422925,0.0681293547004136
16.145552000000002,9.361187898639232,0.0677039909508863
16.147931999999997,9.382566963975236,0.0672585697392762
16.150328000000002,9.404085798938102,0.0668100778213598
16.152715999999998,9.419598331661716,0.0663876792575813
16.155096,9.436461338825689,0.0659472071528977
16.1575,9.450391079683463,0.0655174770560041
16.159883999999998,9.459804762369211,0.0650913642142108
16.162264,9.47042914986846,0.0646556911453584
16.164668,9.480262141434784,0.0642165511958723
16.167056000000002,9.489583276321914,0.0637658348180676
16.169435999999997,9.497042080089487,0.063318275881438
16.171832000000002,9.506223445349756,0.0628719858551727
16.17422,9.513774796915945,0.0624487364365399
16.1766,9.5173219469893,0.0620416425143583
16.179000000000002,9.518307917808798,0.061660261501506
16.181384,9.5168724790013,0.0613013893918749
16.183768,9.512875860939944,0.0609676447792501
16.186172,9.501941775079558,0.0606573187529045
16.188560000000003,9.48700348772634,0.0603606401112156
16.190939999999998,9.474067301119538,0.0600567052952326
16.193336000000002,9.456055977833262,0.0597725427610996
16.195724,9.435763014546849,0.0595043325311095
16.198104,9.416913073499414,0.0592473764343694
16.200508,9.40285872987773,0.058979832481678
16.202896000000003,9.390387178121884,0.0587179320649397
16.205275999999998,9.377356547858591,0.0584729635063725
16.207672000000002,9.368562436513615,0.0582353813376281
16.21006,9.359209246661198,0.0580161592913344
16.212443999999998,9.352230244607531,0.0578070910071972
16.214840000000002,9.347485660725765,0.0576131612097422
16.217228,9.344044329456109,0.0574348581233266
16.219608,9.340602998186451,0.0572566155962697
16.222004,9.341957264342552,0.0570691457245369
16.224392,9.344754552737625,0.0568930720964869
16.226776,9.353278604118229,0.056707806630003
16.229172,9.359241476244977,0.056546404294722
16.23156,9.370139715424331,0.0563722143870667
16.233939999999997,9.381689580909748,0.0562053574216979
16.236336,9.398035043820917,0.0560300926192088
16.238723999999998,9.413030032291724,0.0558697148964942
16.241107999999997,9.431330374121066,0.0557198040695415
16.243504,9.448280241510048,0.0555842037998071
16.245891999999998,9.463367777779473,0.0554508196214098
16.248275999999997,9.4760339044219,0.0553372636361847
16.250672,9.494287024423,0.0552201968259347
16.253059999999998,9.518825985917069,0.0550777854606372
16.25544,9.544435882597776,0.0549311901222537
16.257835999999998,9.569254383345566,0.0547814680828829
16.260227999999998,9.59235032260066,0.054629090582389
16.262624000000002,9.613304391482476,0.0544872687601002
