Time,Force,Position
13.844864,4.934883445722869,0.1606838983714794
13.847252,4.933347875685277,0.1606445856304458
13.849631999999998,4.93246393195374,0.1606072399413122
13.852028,4.933302549714903,0.1605403559421892
13.854416,4.944383988633626,0.1602489151125065
13.856795999999996,4.966080335762247,0.1597661262041658
13.859191999999998,4.9873101521820455,0.1593636452530824
13.861575999999998,5.008632516400461,0.1590113088390753
13.863972,5.031490450656468,0.1587089940470346
13.866368,5.06189025718932,0.1582985759892231
13.868756,5.096573804468726,0.1577635049287549
13.871135999999998,5.13437760950943,0.1570883079191866
13.87354,5.169015830818462,0.156466742203829
13.875924,5.197927289141965,0.1559790725209038
13.878308,5.226187121159407,0.1554998571153328
13.880711999999995,5.252584622057295,0.1550532643438933
13.883096,5.283777720380934,0.154507193924555
13.88548,5.317252458704711,0.1538985481319947
13.887876,5.356174420760297,0.1532031961928345
13.890264,5.406270369533223,0.1523006245016469
13.892644,5.46018352834388,0.1513840121771037
13.895047999999996,5.508462471967621,0.1506359558073269
13.897436,5.55981445152442,0.1498249387738321
13.899816,5.611818057387277,0.1490291246257365
13.902212,5.660097001011019,0.1483202969415246
13.9046,5.700274993850479,0.1477592227230846
13.90698,5.74785698519779,0.1469787035706166
13.90938,5.796417363933123,0.1461406272315136
13.911768,5.841020763003865,0.1453452688038209
13.914148,5.880037168715937,0.1446522742575279
13.916544,5.916539617002394,0.1439925181963318
13.918928,5.949457172676601,0.1433874861759478
13.921307999999998,5.982095189097084,0.1428081932199315
13.923708,6.018178328502962,0.1421873573883126
13.926096,6.051700288654983,0.1416459088551819
13.928475999999998,6.090157615859614,0.1410122353248651
13.930872,6.122096784145797,0.1404859455398856
13.93326,6.152173621312423,0.139995793530533
13.935656,6.174661364373963,0.1396362987052821
13.938048,6.188908387024359,0.1394046112590462
13.940436,6.200409134823662,0.1391715492237683
13.942816,6.213447348518428,0.1388410700423544
13.945216,6.218384611428909,0.1386189987131805
13.9476,6.222810017660192,0.1383867298149977
13.949984,6.2260247190779765,0.1381861959362175
13.952387999999996,6.2303103556824,0.1379632209948044
13.954776,6.229101546726771,0.137861963936491
13.957156,6.224260623330646,0.1378532094124963
13.959552,6.222073426986995,0.1378124862357702
13.96194,6.223890432136177,0.1377014164355532
13.96432,6.227150459524336,0.1375895413302369
13.966716,6.231993278778331,0.1374677955174831
13.969104,6.232320039860295,0.1374039920290271
13.971483999999998,6.230412382770365,0.1373461828486779
13.973888,6.227341242695179,0.1372722084051614
13.976276,6.22003358370168,0.1372388739434127
13.978656,6.217940831014517,0.1371049114683177
13.981052,6.213706207954075,0.1370145831944224
13.98344,6.214406951946246,0.1368409707432601
13.98582,6.214828156684695,0.1366839453248975
13.990604,6.21096562067659,0.1366144051375265
13.993,6.2176235492219,0.1365124970722852
13.995395999999998,6.224793334446407,0.1364242931675576
13.997783999999998,6.233173824484411,0.1363062777243145
14.000168,6.241135005641835,0.1362141120371643
14.002563999999998,6.250027352359038,0.1361085339200795
14.004951999999998,6.262272274263016,0.1359297486720029
14.007332,6.268930202808323,0.1358295900844532
14.009727999999996,6.272143008368238,0.1357654104418009
14.012116,6.273773022062317,0.1357103390853687
14.0145,6.27340093500998,0.1356895020391409
14.016895999999996,6.277684675756535,0.1356033564434641
14.01928,6.283970517249507,0.1354835620426144
14.02166,6.297845452847564,0.1352554289187968
14.024063999999996,6.3156773681102125,0.135007058445141
14.026451999999995,6.333741600798339,0.1347919504413596
14.028832,6.35501863904638,0.1345152610319104
14.031231999999996,6.373641950241945,0.1342699939347384
14.033619999999996,6.396828541437786,0.1339296865300773
14.036,6.420015132633627,0.1335867786414738
14.038396,6.446601520844487,0.1331309921073519
14.040784,6.468811620510176,0.1327250344804584
14.043164,6.486924970884414,0.1323477678644214
14.045564,6.504107155698874,0.1319839165348181
14.047948,6.519287239766917,0.1316502149527684
14.050332,6.534607093461821,0.1313086886392039
14.052728,6.548716242343224,0.1309974375014773
14.055112,6.569483319769937,0.1305961310792308
14.057511999999996,6.5896913186892085,0.1302258149065462
14.059907999999998,6.609340239101039,0.1298860151921118
14.062291999999998,6.631270799513007,0.1294964703640934
14.064672,6.650547632872501,0.1291360848599815
14.067071999999998,6.666751430298939,0.1288290326315552
14.069456,6.677228464739846,0.1286053042892919
14.07184,6.686262476941779,0.1283829767262439
14.074235999999996,6.690128804665621,0.1282058101404733
14.076624,6.691341405336988,0.1280554511667774
14.079008,6.693764710821855,0.1278785395349821
14.081403999999996,6.690833340373529,0.1277972279803471
14.083792,6.692045941044897,0.1276482445046002
14.086172,6.688555492089131,0.1275980820694992
14.088571999999996,6.683994107946726,0.1275667474175132
14.090959999999995,6.682365990110516,0.1274942748014816
14.09334,6.681669037834085,0.1274108729546161
14.095743999999998,6.684184891117568,0.1272710254564901
14.098131999999998,6.686049118094994,0.1271266296302411
14.100512,6.686610092460304,0.1269732182754922
14.102907999999998,6.685448505332919,0.1268350630598932
14.105299999999998,6.691783464512001,0.126570892520391
14.10768,6.699748437385163,0.1262577861982954
14.110079999999998,6.708644575818105,0.1259353589654878
14.112467999999998,6.719542814997463,0.1255849499405978
14.114848,6.73030128454996,0.1252406522456001
14.117243999999998,6.73877811410232,0.1249392706320484
14.119631999999998,6.742599115855789,0.1246898529998608
14.122012,6.75093617578129,0.1243950371838765
14.124411999999998,6.757922761266432,0.1241324833387204
14.126799999999998,6.762627706751436,0.1239146085453187
14.12918,6.774130350408609,0.1236091981551977
14.131579999999998,6.78097716626689,0.1233573318961429
14.133967999999998,6.791316326938807,0.1230356994536395
14.136348,6.805799458730418,0.1226515961278415
14.138751999999998,6.818280489775612,0.1222968787242831
14.141135999999998,6.826245462648775,0.1219848912804862
14.143516,6.833139500335299,0.1216917606350445
14.145911999999996,6.841197021007078,0.1214161009511454
14.1483,6.849906167984917,0.1211454312090556
14.150695999999998,6.852888551977225,0.120943318490993
14.153092,6.846512058543506,0.1208861655389432
14.155475999999998,6.844651623281818,0.12078659046436
14.157859999999998,6.844653519139688,0.1206679529764086
14.160256,6.8414426094376415,0.1206006736032399
14.162643999999998,6.842515440482149,0.1204652088693159
14.165024,6.847732242646352,0.120268965784987
14.167419999999998,6.859979060408199,0.1200175551973048
14.169807999999998,6.867150741490574,0.1198361577091772
14.172192,6.878326624065783,0.119601153594592
14.174587999999998,6.892435772947186,0.1193303849320586
14.176975999999998,6.90053861958934,0.1191413713018176
14.179356,6.91008448847047,0.1189545796623016
14.181755999999998,6.91907127884416,0.1187980688047714
14.184139999999998,6.922563623657795,0.1187331254700913
14.186524,6.928150617016465,0.1186762854822892
14.188919999999998,6.943840661905837,0.1185242879222578
14.191304,6.961532807541626,0.1183478787845968
14.193699999999998,6.983508693923967,0.1181090115610237
14.1961,7.005996436985506,0.1178827643708771
14.198488,7.033791634151995,0.1176144614090558
14.200867999999998,7.065311493557598,0.1173068945142085
14.203264,7.091756216283727,0.1170709666403448
14.205652,7.116059068636581,0.1168704615960552
14.208031999999998,7.146228453601825,0.1166030690660941
14.210432,7.176118299313349,0.116355356487839
14.21282,7.205868375398012,0.1161183057671518
14.215203999999998,7.232173328497283,0.1159044232761518
14.2176,7.267557619768859,0.1155815138111196
14.219983999999998,7.301870975853797,0.1152767512460325
14.222367999999998,7.338046663058292,0.1149607352400334
14.224764,7.375433055076285,0.1146219999862223
14.227151999999998,7.416032252654193,0.1142410955554599
14.229535999999998,7.453977723179627,0.1138769731022363
14.231932,7.496766012959055,0.1134263494312429
14.23432,7.540532690126506,0.1129332295495722
14.236703999999998,7.5749877116961715,0.1125264780554222
14.239108,7.611305064385396,0.1121105657771939
14.241496,7.638962387782895,0.1117804502840442
14.243875999999998,7.668389494501333,0.1114058927641047
14.246272,7.699167075660129,0.1110082111112824
14.24866,7.725428598646895,0.1106400737170815
14.251043999999998,7.751038495327602,0.1102659115480584
14.25344,7.775717226448531,0.1099002206769209
14.255828,7.792946633091233,0.1095968870426602
14.258207999999998,7.803657880815488,0.1093473974600641
14.260608,7.812786336673907,0.1091015541041077
14.262992,7.823125497345824,0.1088360649274106
14.265375999999998,7.823873463166238,0.1086598290410352
14.267772,7.82597190342701,0.1084577254042282
14.27016,7.821691954396194,0.1083012165633317
14.272539999999998,7.816900148686181,0.1081326886243536
14.274936,7.810385781483471,0.107972844229874
14.277323999999998,7.810017486146872,0.107744980695014
14.27972,7.806436385250358,0.1075577508906075
14.282116,7.800713413980567,0.1073974284150842
14.284504,7.799925809763387,0.1071895234872056
14.286888,7.793411442560677,0.1070298948941663
14.289284,7.792111981664299,0.1068101301921773
14.291672,7.786668549648229,0.1066367696426397
14.294052,7.775777893900347,0.1064981460410989
14.296448,7.773966576324772,0.1062672058949272
14.29884,7.774716438003055,0.1059920234024018
14.30122,7.774023277442362,0.1057111767024212
14.303623999999996,7.782129915800254,0.1053522415480894
14.306011999999996,7.797313791584035,0.1049222758868725
14.308392,7.812078358487235,0.1045114412890147
14.310788,7.822838723897601,0.1041390155532421
14.313176,7.837323751547083,0.1037380795278229
14.315556,7.848735743263509,0.1033707473820342
14.317956,7.86079936128599,0.1030068508297147
14.32034,7.871372735241254,0.1026737008775524
14.322724,7.876591433263327,0.1024042422811232
14.32512,7.878876864979201,0.1021631996558014
14.327508,7.883816023747552,0.101909232290265
14.329892,7.887684247329264,0.1016679093353279
14.332288,7.892483636470755,0.1014222080577685
14.334672,7.8980744215451635,0.1011753290973179
14.337056,7.905247998485408,0.1009299106704405
14.339452,7.917217172851404,0.1006475549174261
14.34184,7.930489599829516,0.1003756557542727
14.344219999999998,7.940549221247712,0.1001445014010049
14.346616,7.948699289718109,0.0999627405816917
14.349004,7.9584321500543425,0.0997806911899855
14.351387999999998,7.962018938524465,0.0996603997900581
14.353784,7.963044547740729,0.0995827179807102
14.356167999999998,7.963418530650937,0.0994989509475949
14.358568,7.967656945427117,0.09938534882922
14.360963999999996,7.974037230576574,0.0992486178728284
14.363352,7.984561486845725,0.0990716248608496
14.365732,7.997087843861293,0.0988765771541077
14.368128,8.015480733489252,0.0986358213857454
14.370516,8.037505737557707,0.0983399995623732
14.372896,8.054315835319828,0.098096405369277
14.375296,8.06660987490992,0.0978761866825265
14.377684,8.079974849686648,0.0976441823835849
14.380064,8.087333522224126,0.0974654345015308
14.382464,8.095902899575105,0.0972688160458604
14.384848,8.098605744313693,0.0971191085657115
14.387232,8.097723696440026,0.0969869544191679
14.389628,8.105269360432606,0.0967696250087505
14.392016,8.108810822932355,0.0965866377192306
14.394396,8.111980198379767,0.0963855304876552
14.396796,8.117291444200454,0.096162347406392
14.399184,8.12502409964814,0.0959050003715661
14.401568,8.132244898416628,0.0956362125730776
14.403964,8.138394761998477,0.095378000149408
14.406348,8.143613460020548,0.0951259201879588
14.408732,8.146830057296201,0.0948914676549975
14.411128,8.142969417145968,0.0947177634805941
14.413516,8.141390416995868,0.0945164309437926
14.4159,8.137157689793296,0.0943261307450676
14.418296,8.136509855202975,0.0941214775983194
14.420684,8.143079027665406,0.0938522658074375
14.423068,8.156306128673144,0.0935426497000988
14.425464,8.168322524867383,0.0932493947002252
14.427852,8.182341021808039,0.0929386832352743
14.430236,8.196639058002416,0.0926174092374485
14.432636,8.21321873419693,0.0922673264064275
14.435024,8.230310267070644,0.0919294664028228
14.437404,8.237391296212271,0.0916731619572781
14.439804,8.24475186460762,0.0914042299723868
14.442192,8.254766160055443,0.0911269793028156
14.444572,8.261707419570211,0.0908767351798008
14.446972,8.266227269457982,0.0906594172380594
14.44936,8.269396644905392,0.0904640021494758
14.45174,8.278572322592053,0.0902234113426329
14.45414,8.288679165838492,0.0899787785899536
14.456528,8.295712973151876,0.0897591125902202
14.458908,8.306890751584955,0.0895021581464985
14.461308,8.315135263711838,0.0892663637304141
14.463696,8.318584178412971,0.0890595593146869
14.466076,8.318028891621267,0.0888836293334126
14.468476,8.309185662590178,0.0887790608477572
14.470864,8.296617771319974,0.0886929736634463
14.473244,8.289264786356103,0.0885614530773683
14.475643999999996,8.284984837325288,0.0884051799735915
14.478032,8.28093720571995,0.0882724820272805
14.480412,8.279263761913366,0.0881432362252273
14.482808,8.27880102292028,0.0879985906755156
14.4852,8.281131780606529,0.0878401558314859
14.48758,8.289329070905168,0.0876448918083301
14.489979999999996,8.29566403008425,0.0874591873996775
14.492367999999995,8.304140859636613,0.0872540854967201
14.494748,8.31489932918911,0.0870240920884691
14.497151999999998,8.327939438741746,0.0867693150468432
14.499539999999998,8.333902310868492,0.086567104518797
14.50192,8.3387942478086,0.08637506279483
14.504324,8.34769038624154,0.0861548127014558
14.506711999999998,8.361242352473372,0.0859158908646643
14.509092,8.379310376877237,0.0856636222481529
14.511492,8.403756790572688,0.0853883876279199
14.51388,8.432067636134114,0.0850930147161767
14.516259999999996,8.469597589494708,0.0847286887884247
14.51866,8.506708233974717,0.0843815171610442
14.521043999999998,8.53581047546906,0.0840891557188062
14.523427999999996,8.561699911403487,0.0838260128032019
14.525823999999998,8.589219361031995,0.0835339470472387
14.528211999999998,8.615295788421527,0.0832351360385042
14.530592,8.64058081987814,0.0829363240728931
14.532987999999998,8.666005620961615,0.0826327988496748
14.535375999999998,8.68328224943256,0.0823868714912829
14.53776,8.700419108276646,0.0821466987042344
14.540155999999998,8.714203391933955,0.0819390445346793
14.542543999999998,8.724914639658211,0.081753446375699
14.544924,8.734554952195827,0.0815775786332364
14.547319999999996,8.751412271786194,0.0813502856414752
14.549708,8.770551231376695,0.0811012732750174
14.552103999999998,8.792902996527113,0.080828760141299
14.5545,8.809667768318862,0.0805796886095096
14.556883999999998,8.823918582684996,0.0803329934618665
14.559267999999998,8.837657540371932,0.0800764747874719
14.561664,8.847811605446614,0.0798292638709813
14.564047999999998,8.85717427458838,0.0795831223987268
14.566428,8.866956252610725,0.0793221634208629
14.568827999999998,8.881953136939401,0.0790246415561017
14.571211999999996,8.901653070895215,0.0786811090354013
14.573596,8.919350904104611,0.078350708680246
14.575991999999998,8.937979902873787,0.0780185695085124
14.578376,8.959681937576013,0.0776700365347635
14.580771999999998,8.980592576345325,0.0773199342897483
14.583172,9.004716020674552,0.0769439708856402
14.585556,9.02804806907086,0.076566101868886
14.587939999999998,9.054872462280803,0.076154520729071
14.590336,9.084630121796948,0.0757292070276289
14.592719999999998,9.11252545019353,0.0753096359234873
14.595103999999996,9.132132836350728,0.0749441818771501
14.597508,9.147736021015088,0.0746011628332623
14.599896,9.159335004186618,0.0742819408751411
14.602275999999998,9.16879211698487,0.0739772133995693
14.604676,9.174105258663422,0.0736982833659575
14.60706,9.174203494035648,0.0734529588906874
14.609443999999998,9.173091024594376,0.0732197057714985
14.61184,9.168905519220049,0.0730053502557091
14.614232,9.16364907865908,0.0727984388594712
14.616611999999998,9.15718193328461,0.072604209880098
14.619008,9.146942903842788,0.0724524467110558
14.621396,9.132559903281273,0.0723251263489171
14.623779999999998,9.117385506786835,0.0721951352166195
14.626176,9.09699620398607,0.0720968775655766
14.628559999999998,9.078189693051138,0.0720030293369995
14.630943999999998,9.063666922862762,0.0718794839538141
14.63334,9.050215087861025,0.0717483086826059
14.635723999999998,9.0375546487922,0.0716195392593052
14.638107999999995,9.02503397935024,0.0714859306790631
14.640503999999998,9.01437564102784,0.0713473213870293
14.642891999999998,9.010934309758184,0.0711683887916829
14.645288,9.0130799718472,0.0709762345930455
14.647688,9.014946094682491,0.0707938127262731
14.650072,9.023330376436236,0.0705960155063437
14.652456,9.035439320429097,0.0703889820135217
14.654859999999998,9.052483631474562,0.0701611583888723
14.657244,9.071390273639588,0.0699285696508034
14.659624,9.087084110244698,0.069716654189921
14.662024,9.105571443529143,0.0694988365390795
14.664408,9.125781338306284,0.0692823581450624
14.666788,9.145199837150509,0.0690631443942885
14.669188,9.172486969353535,0.0688126329297971
14.671572,9.198283857489349,0.0685838179377637
14.673956,9.225151680811798,0.0683476848750229
14.676352,9.252159273761109,0.0681079045382708
14.67874,9.277536853016338,0.0678966656813294
14.681119999999998,9.303985367458209,0.067680071016774
14.683516,9.328571550780518,0.0674690105371628
14.685904,9.35315773410283,0.0672594130409346
14.688283999999998,9.37867508298492,0.0670487688341702
14.69068,9.400188230374177,0.0668564867598742
14.693067999999998,9.417045549964543,0.0666747273696243
14.695448,9.432180308062213,0.0664919200282914
14.697848,9.444289252055068,0.0662947749738808
14.700236,9.457748670488286,0.0660831759897248
14.702619999999998,9.4706962322423,0.065860955276972
14.705016,9.491000570675933,0.0656023630628782
14.707404,9.517450980975669,0.0653163167687238
14.7098,9.541247664222931,0.0650317830771847
14.712196,9.564532490791,0.0647370694865086
14.714587999999996,9.5900989573592,0.0644265136500627
14.716968,9.61329123612865,0.0641103026990123
14.719367999999998,9.641977960458153,0.0637620211082964
14.721752,9.669593749601011,0.0634190696918355
14.724136,9.696557912437818,0.0630701280915787
14.726532,9.718866247475733,0.0627283537994004
14.72892,9.740895043259924,0.0623970302805991
14.731304,9.762923839044117,0.0620665906743718
14.7337,9.783090303708752,0.0617397337793508
14.736088,9.80432770356003,0.0614088788351867
14.738472,9.827846743411444,0.0610633218637705
14.740868,9.855369984755688,0.060705635565374
14.743256,9.887176966846488,0.0603270055630377
14.74564,9.91642276968343,0.0599730983852077
14.748035999999995,9.944597637333736,0.05962704697667
14.750427999999998,9.970770404237625,0.0592891205259068
14.752808,9.985861732222787,0.0589911939553606
14.755211999999998,10.00109282983481,0.0586917357781103
14.757599999999998,10.015252992260196,0.0583972010111615
14.75998,10.028342219498944,0.0581088973654675
14.762375999999998,10.040360511551054,0.0578267326830857
14.764763999999998,10.051819725095722,0.0575626963090363
14.767144,10.05592216196078,0.0573308674972455
14.769539999999996,10.06509973550531,0.0570825902658433
14.771927999999996,10.07413753942298,0.0568390075101638
14.774312,10.08946118483362,0.0565701511764842
14.776716,10.102922499124707,0.0563032956805542
14.779103999999998,10.117314978975571,0.0560364778787976
14.781484,10.132638624386212,0.0557692287744285
14.783879999999998,10.146239708304156,0.0555004894939504
14.786263999999996,10.158350548154882,0.0552497902437646
14.788648,10.166596956139632,0.0550069261307822
14.791043999999998,10.169069379310612,0.0548002680984867
14.793431999999996,10.174335299160926,0.0545915740249834
14.795816,10.177459348637964,0.0543925561369655
14.798211999999998,10.180955485167337,0.0542093514544912
14.800599999999998,10.19124931986888,0.054013727382345
14.80298,10.195257313077454,0.0538424465521191
14.805376,10.200848098151862,0.0536780052849932
