Time,Force,Position
13.907832,4.84755169691754,0.1676099235156567
13.91022,4.8573279873662765,0.1674643463725569
13.9126,4.8700375441212085,0.1672397485076346
13.915,4.889824338302031,0.1668103994768129
13.917388,4.90956391065461,0.1664533276950232
13.919768,4.932701384164338,0.1661021405425933
13.922172,4.9516476647261305,0.165928363743837
13.924556,4.97110580196712,0.1657634828274053
13.926936,4.995918615141301,0.1654273366814557
13.929332,5.0234323771962,0.1649751893959285
13.931716000000002,5.049642886638985,0.1645286275516561
13.934112,5.087074604627351,0.1637682941469705
13.936512,5.123762148511044,0.1629601125840147
13.9389,5.155701316797227,0.1622146717496415
13.94128,5.185033979859179,0.161469664616618
13.943684,5.21585688698835,0.1606791976989612
13.946068,5.242815362251547,0.1599862359492564
13.948452,5.266840571208551,0.1593657030049955
13.950855999999998,5.289143218672857,0.1587834151047139
13.95324,5.308372830204107,0.1582838028571979
13.95562,5.330535708041552,0.1577301349444979
13.958016,5.354141608117973,0.157177479955257
13.960404,5.377607738567535,0.1566359863222338
13.962784,5.400701781964759,0.1560815672732796
13.96518,5.417696975324115,0.1556289133401135
13.967568,5.432317980884718,0.1552091891937135
13.969943999999998,5.449872252751514,0.154722771542429
13.972348,5.468265142379472,0.1541727431554758
13.974736,5.489079441634428,0.1535529109829035
13.977116,5.512035611262661,0.1528851747489216
13.97952,5.534572472010314,0.1522518793274091
13.981908,5.555060010183306,0.1517322468758311
13.984288,5.576059405035496,0.1512260215925427
13.986692,5.595987864701048,0.1507400618717079
13.98908,5.618849590672793,0.1501987254489381
13.99146,5.6360771014576265,0.149814640210995
13.993856,5.658332527093689,0.1493711374358957
13.99624,5.683660988662807,0.1488583469402871
13.998624,5.707266888739229,0.1483709631616447
14.001028000000002,5.733945824748706,0.1478143826800762
14.003412,5.753827062586014,0.1474005307886802
14.005796,5.774267378930762,0.1469569001449689
14.008192,5.799131205648927,0.1464103986303249
14.01058,5.821061766060895,0.1459243822909966
14.01296,5.8440632616595005,0.1454085448632802
14.015363999999998,5.863712182071333,0.1449781637237828
14.017752000000002,5.886014829535639,0.1445160967518807
14.020132,5.914695866291534,0.1439665661227069
14.02254,5.938441535994814,0.143514707023761
14.024924,5.958183004205263,0.143144340866232
14.027304,5.980717969095045,0.1427343508625265
14.029704,6.000878746186075,0.1423464966643692
14.032087999999998,6.021039523277103,0.1419594193951412
14.034472,6.043202401114549,0.1415300734185313
14.036867999999998,6.059219207085883,0.1412245722176852
14.039255999999998,6.07924021455005,0.140842369056784
14.041636,6.096747264588606,0.140490259063625
14.044035999999998,6.11383500574658,0.1401676888955337
14.04642,6.130643207650834,0.1398617687614644
14.0488,6.146100935114728,0.1395983442867441
14.051203999999998,6.165003785564013,0.1392959676737026
14.053591999999998,6.18292824862528,0.1390598416709397
14.055972,6.1950787268727705,0.1389653184585975
14.058368000000002,6.2105345584787965,0.1388428088428338
14.060752,6.231437613816629,0.1386491278774809
14.063132,6.256065331393577,0.1384004225629895
14.065536000000002,6.27775978266433,0.1382039990440703
14.067924,6.293308162068971,0.1381255351830715
14.070308,6.3133725996456445,0.1379904470041375
14.072708,6.335019829088154,0.1378452365244668
14.075095999999998,6.356946597784384,0.1376886310726767
14.077476,6.381387323906228,0.1375136639006373
14.079871999999998,6.40647967633413,0.1373431724752267
14.082260000000002,6.435948317307204,0.1371283867368475
14.08464,6.46886208126567,0.1368748211775727
14.087044,6.503126319664496,0.136590854771257
14.089432,6.542325925115934,0.1362377896264837
14.091812,6.580454595380732,0.1359056611620768
14.094207999999998,6.619374661578449,0.1355675732817782
14.096595999999998,6.657643101470108,0.1352247484146883
14.098976,6.6946082887496505,0.1348780444723498
14.101375999999998,6.728687431551242,0.1345334589247055
14.103763999999998,6.767329854353106,0.1340950559766515
14.106144,6.801456218982941,0.1337098717308778
14.10854,6.832277230254243,0.133355838126269
14.110928,6.860863823353649,0.1330081023770291
14.113308,6.890009494960498,0.1326312087301823
14.115704,6.919714245074787,0.1322240611013647
14.118092,6.945973872203683,0.1318507413141703
14.120472,6.974375369705857,0.1314421295586631
14.122868,6.997841500155419,0.1311087982360026
14.125256,7.018142046873307,0.1307939723262004
14.127636,7.03713934097908,0.1304717815129664
14.13004,7.054181756166681,0.1301422674401946
14.132428,7.073273493928939,0.1297442114738476
14.134808,7.089711504638725,0.129375860356775
14.137204,7.097769025310504,0.1291059071390096
14.139592,7.107456559676364,0.1287896917997972
14.141972,7.118494568482582,0.1284417795000935
14.144368,7.132093756542657,0.1280384418545444
14.146756,7.142759678296539,0.1276731143687239
14.149152,7.155567470423697,0.1272736435063045
14.151547999999998,7.162788269192185,0.1269370184936672
14.153936000000002,7.173221873520589,0.126547726354096
14.156316,7.180582441915937,0.1262034496622114
14.158712,7.188502088818725,0.1258310405549355
14.1611,7.194838943855678,0.1254653307388798
14.16348,7.199173698146213,0.1251266294408345
14.242335999999998,6.605430452331671,0.1250403923283077
14.244736,6.595189527031977,0.1250343223740139
14.24712,6.594679566210648,0.1249001678085742
14.249503999999998,6.589885864642766,0.1248384659795309
14.2519,6.583601919007664,0.1248181088121926
14.254283999999998,6.581042635611675,0.124755354925867
14.256664,6.584210115201217,0.1246216954758789
14.259064,6.59310435777629,0.1244184279601364
14.261448,6.602510457030559,0.124227740540592
14.263832,6.607632815538275,0.1241102349619887
14.266227999999998,6.6091702814337365,0.1240261114619018
14.268616000000002,6.623791286994339,0.1237533154973491
14.271,6.643347659607553,0.1234145469115527
14.273395999999998,6.668398477780819,0.1229730287942281
14.275784000000002,6.695870705581084,0.122480405141747
14.278164,6.720549436702013,0.1220259096482344
14.280563999999998,6.740804657449527,0.1216533170586328
14.282951999999998,6.763061978943458,0.121253079149441
14.285332,6.785598839691112,0.12083900846572
14.287736,6.802781024505571,0.1205177203866897
14.290124,6.8286232386117565,0.1200961837241249
14.292504,6.8558159271583,0.1196473462555038
14.294899999999998,6.877281852719314,0.1192698676158707
14.297292,6.907035720519716,0.1187731579747587
14.299672,6.940281933133753,0.1182138336424754
14.302072,6.971014188322177,0.1176711157394008
14.30446,6.998021781271485,0.1171694723867713
14.30684,7.021444481608542,0.1167030097860908
14.309236,7.046077886759097,0.1162147346892943
14.311623999999998,7.07164245746943,0.1157164138023234
14.314004,7.103725187098211,0.1151564514230651
14.316404,7.130081153741465,0.1146664017740629
14.318791999999998,7.1532243148248025,0.1142269243029842
14.321172,7.179952368520391,0.1137650333610471
14.323572,7.205609487029343,0.1133212779886076
14.325959999999998,7.2274021736723215,0.112917818663607
14.32834,7.252687205128935,0.112455837469234
14.330744,7.277180840652631,0.1119972275689196
14.333128,7.29832190098955,0.1115898340894047
14.335508,7.319090874274132,0.1111628207572908
14.337903999999998,7.331991214199906,0.1108271146968214
14.340292000000002,7.3435410796853215,0.1105228592961033
14.342688,7.3563016499842355,0.1101979770676607
14.345084,7.3630559180439,0.1099437369136624
14.347468,7.368459711663204,0.1097194443724562
14.349851999999998,7.374235592334847,0.1095141492076362
14.352248,7.383456595991881,0.1092917429980282
14.354636,7.392118521141477,0.1090965427054196
14.357016000000002,7.3986385759177935,0.1089306708880694
14.359412,7.405298400320972,0.1087581607237933
14.3618,7.410095893604594,0.1086028861762185
14.364184000000002,7.415265473940552,0.1084669722145217
14.36658,7.422856463903509,0.1082900029261682
14.368968,7.428165813866327,0.1081495007624978
14.371348,7.434918186068122,0.108014351329338
14.373748,7.442973810882033,0.1078894491727867
14.376131999999998,7.448328486815225,0.1078194585136989
14.378516,7.454055249800754,0.1077684011220724
14.380912,7.466300171704734,0.1076653971832738
14.383296,7.480639742153746,0.1075732707762329
14.385692,7.498564205215011,0.1074579122033105
14.388092,7.516069359395696,0.1073625924195671
14.39048,7.532084269509162,0.1073012872287931
14.39286,7.552475468167799,0.1072165889158173
14.395256,7.573518293132493,0.1071384677157943
14.397644,7.597494384403382,0.1070328910343366
14.400023999999998,7.620679079741354,0.1069300312939111
14.402424,7.641861674332909,0.1068466714616402
14.404812,7.66476683041716,0.1067551362461898
14.407196,7.690325713553886,0.1066497440359056
14.409592,7.714953431130834,0.106552982208289
14.411976,7.739720918334641,0.1064503282789752
14.41436,7.760996060724813,0.1064010334627772
14.416756,7.780688411249148,0.1063535675415531
14.419144,7.801451696960123,0.1062939000378746
14.421528,7.827569658604289,0.1061691324803464
14.423924,7.8550380946888145,0.1060188681245321
14.426312,7.8838570052137,0.1058440726690067
14.428696,7.91058126719355,0.1056615951131952
14.4311,7.937073211747924,0.105456574763177
14.433488,7.9630532996231,0.105241414378808
14.435868,7.988801070072799,0.1050029677300743
14.438264,8.010172551977325,0.1047831084556435
14.440652,8.026236579776903,0.1045909540191373
14.443036,8.040066189404588,0.1043948077735409
14.445432,8.04937974086024,0.1042260462815689
14.44782,8.058041666009835,0.1040528404801484
14.4502,8.069916396719346,0.1038412974948056
14.4526,8.081279270749658,0.1036184640326283
14.454984,8.092549596981353,0.1033682694886688
14.457368,8.101026426533714,0.1031371562064097
14.459764,8.111133269780154,0.1028711844699524
14.462152,8.123429205228113,0.1025450487232867
14.464531999999998,8.133490722504181,0.102213169145138
14.466928,8.13666199380946,0.1019070421822264
14.469316,8.13573651582329,0.1016095619770404
14.471712,8.133647554851864,0.1012947597002762
14.474108,8.130534880522042,0.1009573638755492
14.476496,8.126491040632443,0.1006265557578886
14.47888,8.12486861036984,0.1002623303286692
14.481276,8.123013862681761,0.0998754997010104
14.483664,8.1214386542474,0.0994774448982425
14.486044,8.128942783985348,0.0989995349798234
14.488444,8.143663920776044,0.0984550749482395
14.490828,8.15773343126068,0.0979039915621442
14.493212,8.174364120999178,0.0973126908342033
14.495608,8.185268047752142,0.0967584918553934
14.497992,8.19100429002702,0.0962181238865143
14.500376,8.194226574876282,0.0956814997627784
14.502772,8.189300687113017,0.0952167308214961
14.50516,8.18600481304383,0.0947158625541205
14.50754,8.175771471175612,0.0942698667765426
14.509936,8.162976950053542,0.0938633139649764
14.512324,8.152696386357082,0.0934509550703341
14.51472,8.14986514713885,0.092994662691183
14.517116,8.148337160532733,0.0925516824657545
14.519507999999998,8.148112426538733,0.0921221271632246
14.521888,8.144255578104236,0.091742594112659
14.524284000000002,8.137185924109824,0.091395354009771
14.526668,8.121688558249165,0.0911302565840671
14.529052,8.102279538694287,0.0909268492898852
14.531448,8.080309339885552,0.0907625374623766
14.533836,8.053775861076543,0.0906531337743825
14.536216,8.022958641520981,0.0905853861532891
14.538612,7.994096300883593,0.0905368820919161
14.541,7.964535112111901,0.0905159832831146
14.54338,7.941212543004938,0.0904722100524536
14.54578,7.928132795055537,0.0903735910589413
14.548168,7.919289566024447,0.0902677407140181
14.550548,7.920037531844861,0.0901017165914768
14.552948,7.924882246956725,0.0899358794939825
14.555332,7.936105351360177,0.0897420903645407
14.557716,7.95184451393566,0.0895310800892821
14.56012,7.96916646837698,0.0893234552900713
14.562508,7.981133746885108,0.0891684466975706
14.564888,7.992030090206597,0.0890243257222714
14.567288,8.000644793527949,0.0889066119073637
14.569672,8.015917425394607,0.0887516917061337
14.572056,8.032912618753963,0.0885923731940478
14.574452,8.056425971031766,0.0883997621566617
14.57684,8.085805855921961,0.0881677877778978
14.57922,8.119050172678131,0.0879117340048893
14.581616,8.154576129434435,0.087631071168474
14.584008,8.188891381377243,0.0873665607065291
14.586388,8.22469687738727,0.0870767069464766
14.588784,8.261433538957075,0.0867834477754223
14.591172,8.29765834384768,0.0864801748006803
14.593556,8.326805911312398,0.0862340849108349
14.595952,8.355162082844197,0.0859887481199681
14.59834,8.378303348069664,0.0857888887156018
14.600736,8.395578080682741,0.0856267059179163
14.603136,8.4120614173629,0.0854644296770306
14.605524,8.426822192550363,0.0853064003459274
14.607904,8.440651802178046,0.0851534553821479
14.6103,8.456902821432728,0.0849701562138387
14.612688,8.473293610314268,0.0847817952198535
14.615068,8.492105808822807,0.0845636910090892
14.617468,8.507193345092233,0.0843635857853792
14.619856,8.527356018041132,0.0841286764048803
14.62224,8.543933798377779,0.0839043762764098
14.624636,8.55720622535589,0.0836809150857345
14.627024,8.567685155654667,0.0834696548658
14.629408000000002,8.574159884460611,0.0832849524834367
14.631808,8.581705548453193,0.0830908637191603
14.634196,8.583105140579661,0.082941113259257
14.636576000000002,8.582782171213438,0.0827937679385113
14.638972,8.581528036287434,0.0826505052248958
14.64136,8.581624375801791,0.0824872897594471
14.643743999999998,8.580789549756368,0.0823281075124513
14.64614,8.580513802218386,0.0821472179338108
14.648528,8.583311090613458,0.0819442408700048
14.650911999999998,8.586248148635393,0.0817366493806425
14.653312,8.591327077030604,0.0815124647334729
14.6557,8.594543674306259,0.081295647749771
14.658079999999998,8.602416099380804,0.0810626867897785
14.66048,8.612942251507825,0.0808255497066799
14.662868,8.62547050438126,0.0805782385738578
14.665247999999998,8.639069692441337,0.0803232322739868
14.667648,8.6489442182623,0.0800835526179045
14.670036,8.66096061445654,0.0798267326669723
14.672415999999998,8.674280263262895,0.0795843477372831
14.674816,8.68895038650961,0.0793235329032119
14.677204,8.709487042368714,0.0790341888379287
14.679583999999998,8.732305338227956,0.0787246987464623
14.681984,8.764342741886365,0.0783571281936276
14.684372,8.799033872597246,0.0779863845532298
14.686751999999998,8.834236859987328,0.0776290281865147
14.689156,8.872233344056744,0.0772654320152288
14.69154,8.90995028887244,0.0769124869136508
14.69392,8.949110255927112,0.0765693730689062
14.696324,8.98920138854156,0.0762258036284874
14.698712,9.025008780409452,0.0759140079376129
14.701092,9.056532431530794,0.0756360463647684
14.703492,9.089918413771692,0.0753526002042175
14.70588,9.116366928213562,0.0751064682456866
14.70826,9.139230550043177,0.0748681545758702
14.710656,9.15687926556646,0.0746649064751419
14.71304,9.171966801835888,0.0744922356629856
14.715424,9.185424324411231,0.0743470655460559
14.71782,9.202326969971972,0.0742016926630919
14.720208,9.221231716279128,0.0740467839723062
14.722587999999998,9.24129994557154,0.0739116305990016
14.724984,9.255082333370982,0.0738177423904045
14.727372,9.268305642662982,0.0737441338541698
14.729755999999998,9.276825902327843,0.073715642640809
14.732152,9.28548593161957,0.0736827208430783
14.73454,9.297218996844352,0.0736329882769092
14.73692,9.30438878206886,0.073622093598884
14.739324,9.312489732853145,0.0736086856821983
14.741712,9.3256658203169,0.0735690726799667
14.744091999999998,9.334558167034102,0.0735582439351687
14.746488,9.350108442296612,0.0735252452811139
14.748872,9.36617057423832,0.073503535733898
14.751252,9.38116177099339,0.0734891796280569
14.753656,9.397875529241158,0.0734743129226751
14.756044,9.419105345660956,0.0734521228914815
14.758424000000002,9.44191795394659,0.0734339539685905
14.760824,9.469014302978778,0.0733871388680533
14.763208,9.497321356824466,0.0733279881910524
14.765592000000002,9.520832813244404,0.0732865666512309
14.767988,9.53768634111903,0.0732673285888986
14.770376,9.551886141941182,0.073250863528643
14.772756,9.56822781313661,0.0732197137607277
14.782324,9.608126266722348,0.0732024896531715
14.784707999999998,9.616227217506632,0.0731894657957021
14.789488,9.62260560679822,0.0731768937521992
14.791875999999998,9.624747477171496,0.0731627269052647
14.794272,9.626237721238716,0.0731419024773568
14.796668,9.627495647880457,0.0731003866194605
14.799056,9.633037315268751,0.0730312582815588
14.801436,9.638206895604712,0.0729461247172584
14.803832,9.635135755529529,0.0728776091769805
14.80622,9.6329032332155,0.0727815528954485
14.808604,9.628016983849005,0.0726881282537347
14.811,9.629044488923135,0.0725429985974374
14.813388,9.631841777318211,0.0723684838643164
14.815767999999998,9.64306677757953,0.0721450629716084
14.818168,9.659134597094846,0.0718781679218562
14.820552,9.67911407030438,0.0715708757695416
14.822932000000002,9.698349369409238,0.0712320458497497
14.825328,9.721124235155974,0.070836000952724
14.827716,9.745157027544456,0.0704008388025325
14.830096,9.7683058762014,0.0699376841844646
14.832491999999998,9.789499845940169,0.0694561666133723
14.834879999999998,9.810321728626604,0.0689612496016559
14.837276,9.83775621388797,0.0683937491157011
14.839676,9.862304654671384,0.0678093740021777
14.842064,9.883455194297648,0.0671971621347682
14.844444,9.907725991685211,0.0665443045436204
14.846848,9.923244211982436,0.0658915077533782
14.849232,9.940532215600598,0.0652121217239211
14.851616,9.964385599965452,0.064491832305654
14.854012,9.990939933211024,0.063746677056994
14.8564,10.01553938753842,0.0629802150665201
14.85878,10.029197172573957,0.0622530275178329
14.861176,10.046207532796268,0.0615092998753584
14.863564,10.053766467793936,0.0607834726242576
14.865944,10.05452770461943,0.060075844633231
14.86834,10.04863101289962,0.0593813063763316
14.870728,10.043805256366444,0.0586805794763668
14.873107999999998,10.03935158688561,0.0579978658692547
14.875504,10.0310334855388,0.0573217846454125
14.877892,10.022575614565136,0.0566469716404034
14.880272,10.01155656433761,0.0559933696624804
14.88268,9.998255874109947,0.0553534642791191
14.885064,9.980763990934348,0.0547568570539931
14.887448,9.962573259624444,0.054179370427211
14.889844,9.940191335366606,0.0536426710060101
14.892232,9.913106361481631,0.0531367348231173
14.894616,9.893842799127224,0.0526409460099381
14.897012,9.873740619011654,0.052170372841299
14.8994,9.847864454082313,0.0517344152878535
14.90178,9.816074534712335,0.0513375541865661
14.90418,9.782235292767698,0.0509716062563972
14.906568,9.755705605674429,0.0506050747926337
14.908952,9.722191228953887,0.0502821240846079
14.911348,9.697289659696825,0.0499761696731916
14.913736,9.67355157342502,0.0496887552884286
14.916116,9.651488826817667,0.0494329667192797
14.918512,9.627236988008796,0.0492146412201874
14.9209,9.601075596252125,0.0490259583941312
14.923284,9.5795228104661,0.0488650885629841
14.92568,9.563137709158166,0.0487155188945899
14.928068,9.548987026022129,0.0485819665790617
