Time,Force,Position
17.854716000000003,4.897406034649365,0.1628852120451756
17.857096000000006,4.915049062599041,0.1627230079196943
17.859496,4.9351135001757145,0.1624696847943979
17.861884000000003,4.957040268871944,0.1621675622878716
17.864268000000003,4.979526116075615,0.1618116878533392
17.866664,5.005644077719781,0.1613282933537846
17.869052000000003,5.031250182684749,0.1608543236053942
17.871436000000003,5.064073294702468,0.1601950247892811
17.873832,5.099550133772661,0.1594667392890261
17.876220000000004,5.12622717392427,0.1589680637318655
17.878604000000003,5.145267898142547,0.1586984130904182
17.881,5.177437487996338,0.1581925082994714
17.883388000000004,5.206254502663353,0.1577834650004291
17.885768000000006,5.236794078823065,0.1573425584341555
17.888168,5.2710583172218906,0.1568452234238018
17.890556000000004,5.311561175285445,0.1562510771564004
17.892936000000006,5.353554277416217,0.1555898524912555
17.895336,5.395594601375232,0.1548881844752419
17.897724000000004,5.43465633305768,0.1541558249971991
17.900104,5.459750581343451,0.1537051518964125
17.902504,5.479537375524273,0.1533484990931568
17.904892000000004,5.4921071626523466,0.1531777103040469
17.907272,5.507330676832893,0.1529626143699076
17.909672,5.526977701386855,0.1526261389787727
17.912060000000004,5.5528633456055445,0.1521867376830778
17.914444000000003,5.578981307249711,0.1517902441650078
17.916844000000005,5.598626435945803,0.1516134809510202
17.919232,5.612637349454983,0.1515966463504733
17.921616,5.631583630016773,0.1514755171362927
17.924016,5.651088989086006,0.1513126165375983
17.926404000000005,5.676088793715291,0.1510025535559643
17.928784,5.698993949799542,0.1507065415053688
17.931184000000002,5.729535421817122,0.1502186091014692
17.933572000000005,5.762917612342282,0.149639255749267
17.935952,5.78046998835121,0.1493370201250766
17.938352000000002,5.789269787269795,0.1491635201844447
17.940740000000005,5.79942006062874,0.1489471602057716
17.94312,5.805938219547188,0.1488358713749756
17.945520000000002,5.815621962197309,0.1486996192891115
17.947908000000005,5.837969935631989,0.1483190325779046
17.950292000000005,5.861249074626445,0.1479193834639707
17.952688000000002,5.890115206979574,0.1474273717030379
17.955076000000005,5.922706001571816,0.146883262837251
17.957460000000005,5.949849572432248,0.146427319267394
17.95986,5.970242666948754,0.1460514935003718
17.962248000000002,5.986399242546949,0.1457264677372981
17.964628000000005,6.006747011093081,0.1452631530193455
17.967028,6.027514088519793,0.1447719641101788
17.969416000000002,6.046046747774613,0.1442961148366185
17.9718,6.062717075909875,0.1438466221661155
17.974196,6.078456238485358,0.1434176584170405
17.976584000000003,6.089120264381369,0.1430926227079949
17.978968000000002,6.095221010277105,0.142883177011823
17.981364,6.095315453933592,0.1427878962506299
17.983752000000003,6.105140862068441,0.1425166473021089
17.986136000000002,6.117060918748326,0.1422446082960378
17.988532,6.130563767294046,0.141965434284749
17.990920000000003,6.146627795093624,0.1416126414171232
17.993304000000002,6.158315534348031,0.1413152694454668
17.995704000000003,6.162693718751071,0.1411276390945784
17.998092,6.169213773527389,0.1408944494750259
18.000476,6.172568244572034,0.1406853835456541
18.002872000000004,6.173967836698505,0.1404690642637099
18.00526,6.178952321437229,0.1402069094994693
18.007644,6.185100289161209,0.139958654176603
18.010044,6.190689178377749,0.1397435370812156
18.012436,6.198931794646764,0.1394999214592544
18.014816000000003,6.207314180542638,0.1392482584907539
18.017212,6.21048166013218,0.1390970773653559
18.019604,6.218025428266892,0.1388948100560124
18.021984000000003,6.219562894162355,0.1387995403596619
18.024384000000005,6.226315266364149,0.1386022917221827
18.026772,6.233114860394187,0.1383585860441027
18.029160000000005,6.241776785543781,0.1380860558180401
18.03156,6.251369876253153,0.1378025463511135
18.033948,6.260730649537049,0.1374896154776228
18.036332,6.263992572783078,0.1372459315021583
18.038728,6.266323330469326,0.137016575744899
18.04112,6.269026175207914,0.1368063617841793
18.0435,6.274754834051311,0.1365854115614039
18.045900000000003,6.281414658454492,0.1363534572993545
18.048292000000004,6.286724008417309,0.1361608409876628
18.053072,6.283233559461545,0.1361124639157231
18.055460000000004,6.282349615730009,0.1360792968739685
18.057844000000003,6.286028951998747,0.1359429101290421
18.06024,6.283981525281956,0.1358937694159006
18.062632,6.283144803378665,0.135815007247758
18.065012000000003,6.290828341140238,0.1356125201272142
18.067408,6.296929087035974,0.13541971589188
18.0698,6.312109171104018,0.1350709782418037
18.072180000000003,6.323285053679228,0.134792780317897
18.074580000000005,6.33613627591889,0.1345446047197223
18.076968,6.352292851517086,0.134273009458477
18.079348000000003,6.364957082301645,0.1340799012271841
18.081748000000005,6.381345975325318,0.1338405519145842
18.084136,6.402902552827079,0.1335528130507438
18.086516000000003,6.426553778873875,0.1332721080074652
18.088916000000005,6.457142472719698,0.1328863113574783
18.091304,6.487219309886325,0.132491202154596
18.093688,6.514642420000477,0.132127189230946
18.096088,6.544486939741626,0.1317108586086302
18.098476000000005,6.573400293922998,0.1312998840581654
18.100860000000004,6.6076683240375615,0.1307884964439162
18.10326000000001,6.641284727846067,0.130278005891363
18.105648,6.6718280957215175,0.1298233507414957
18.108032,6.705304729903163,0.1293275522874439
18.11042800000001,6.735009480017452,0.1289213709958334
18.11282,6.762572359758464,0.1285609803061061
18.1152,6.79399967136545,0.1281529192592014
18.117600000000003,6.822493716666239,0.1277943037350625
18.119988,6.849265200474333,0.127448518427145
18.12237200000001,6.87580436685695,0.1270784791415416
18.124772,6.89531351764192,0.1267715301491754
18.127160000000003,6.917663386934469,0.1263893583582552
18.129544000000003,6.937639068428263,0.1260226006830886
18.131944000000004,6.9541696269366655,0.1256849706121343
18.134332,6.9698162417135325,0.1253194385449508
18.136716,6.980946798318367,0.1250027757115061
18.139112000000004,6.991285958990284,0.1246900720132553
18.141504000000005,7.0025562852219805,0.1243681057789137
18.143888000000004,7.009682640333982,0.1241093383356559
18.146284,7.022815297685234,0.1237678456917574
18.148676,7.034597480596128,0.1234608793421156
18.151072,7.044237793133743,0.1231888882665438
18.153472,7.055228580111719,0.1228860403318996
18.155864,7.06356564003722,0.1226065784622584
18.158244000000003,7.074324109589716,0.1222767593202397
18.160644000000005,7.081497686529962,0.121979520421221
18.163032,7.082804730857816,0.1217571359284262
18.165416,7.080526882573417,0.1215668770786219
18.167816,7.084115566901408,0.121304411969445
18.170208,7.085422611229263,0.1210832198636291
18.172592,7.094039210408482,0.1207912570732244
18.175000000000004,7.101165565520484,0.1205388541974135
18.177392000000005,7.103728640632211,0.1203678108299991
18.179772,7.110575456490492,0.1201307623900223
18.182168000000004,7.114861093094915,0.1199491186776595
18.184556,7.115002758579646,0.1198263126746568
18.18694,7.112862784064237,0.1197440468201361
18.189336000000004,7.1110023488025496,0.1196475253428291
18.191724,7.113425654287417,0.1194845239685149
18.194108,7.117059664585782,0.1193001828984498
18.196504000000004,7.120042048578089,0.1191112778385744
18.198892,7.128379108503589,0.1188432462970447
18.201276,7.136576398802229,0.1185837690758596
18.203676,7.1447736891008695,0.1183239383921377
18.206064000000005,7.156044015332564,0.1180255127036733
18.208448000000004,7.172249708616872,0.1176705187835174
18.210844,7.189526337087818,0.1172979773010292
18.213232000000005,7.2083857574246,0.1169207852115224
18.215616000000004,7.222309810708771,0.1166043838758101
18.218012,7.240238065485776,0.1162409442275886
18.220400000000005,7.256303989143222,0.1158978262859529
18.222784000000004,7.274511783173946,0.1155256635329547
18.22518400000001,7.299796814630559,0.1150672936600988
18.227572,7.3185164653404815,0.1147085636572638
18.229952000000004,7.33951775605054,0.1143132162012957
18.23235200000001,7.368247910492546,0.1138373242966334
18.23474,7.40033064012133,0.1133085234989012
18.237120000000004,7.431342434563473,0.1127979393555103
18.23952000000001,7.4591414234457,0.1123355261739078
18.241908,7.478792239715402,0.1119740214370519
18.24429600000001,7.49923445191802,0.1116124953750704
18.246692000000003,7.514321988187445,0.1113281616920358
18.249084000000003,7.525545092590898,0.1110823660585408
18.251468000000003,7.539421924046825,0.1108200761604464
18.253864,7.550225719569696,0.1105969890400864
18.256252000000003,7.555814608786235,0.1104405275228148
18.25863200000001,7.566478634682246,0.1102265563250387
18.261032,7.579424300578395,0.1099785833727208
18.263420000000004,7.593301132034321,0.1097227791541347
18.265804000000003,7.600520034944939,0.1095274841606118
18.2682,7.60801847710928,0.1093201048932899
18.270588000000004,7.609650386661228,0.1091712022340198
18.272976,7.603553432481229,0.1090963903242155
18.275376,7.601879988674645,0.1089580337792155
18.277764000000005,7.598995840054562,0.1088405745961107
18.280152,7.591316094008729,0.1087674610132891
18.28254800000001,7.583496578336034,0.1087006073130963
18.28494000000001,7.574326588222981,0.1086606169339298
18.287328,7.565016828483068,0.1086271535867565
18.289724,7.561853140609264,0.1085227150345053
18.292116,7.555756186429265,0.1084471376620021
18.294504000000003,7.548588297062627,0.1083856112664452
18.2969,7.545936465868021,0.1082928488679317
18.299288000000004,7.542493238740497,0.1082012610422089
18.301680000000005,7.540260716426473,0.1080892501876421
18.304076,7.539238898925947,0.1079563273756271
18.306464000000005,7.535004275865505,0.1078657002859478
18.308864,7.526625681685368,0.1078236614958877
18.311272,7.519457792318732,0.1077611668540376
18.31366000000001,7.517085500377847,0.1076556624771159
18.31606,7.516435769929659,0.1075427070354184
18.318456000000005,7.521652572093861,0.1073735854863275
18.320848000000005,7.531944510937535,0.1071484966689938
18.323244000000003,7.54102574496771,0.1069443514170601
18.32564,7.550106978997885,0.1067404353132082
18.328032,7.559979608960977,0.1065356143220377
18.330432,7.567570598923933,0.1063645281032329
18.332836,7.575580897767471,0.1061735712109158
18.335224000000004,7.586664232544063,0.1059488625809831
18.337624000000005,7.592532661014323,0.1057854670256421
18.34001600000001,7.604267622096972,0.1055674829708997
18.342416,7.620146554299316,0.1053020850807729
18.344812000000005,7.637375960942019,0.1050134652081875
18.347208,7.652603266838304,0.104745663826394
18.349604,7.668621968667508,0.1044796221659968
18.352004,7.689715807176184,0.1041632433249826
18.354392000000004,7.704943113072471,0.1038981058514668
18.35679200000001,7.72524555564823,0.1035811621773592
18.359188000000003,7.74312658859699,0.1033034301040048
18.361576,7.759796916732252,0.103045896049788
18.36396000000001,7.770460942628263,0.1028476102801782
18.36636,7.782056134084054,0.1026448760448946
18.368752,7.794302951845903,0.1024495967998933
18.371132000000003,7.807760474421249,0.102236345462128
18.373532000000004,7.821357766623456,0.102017340887247
18.37592,7.837096929198939,0.1017742827581343
18.378300000000003,7.855257501401419,0.1014941786715826
18.380700000000004,7.876071800656375,0.1012022914304175
18.383092000000005,7.894744229538055,0.1009366732579258
18.385472,7.922356226965179,0.1005923663851722
18.387868000000005,7.944241461406774,0.1002932552257777
18.390256,7.962122494355534,0.1000313318340437
18.39264,7.978001426557878,0.0997902049419333
18.395036000000005,7.992669653946723,0.0995660579083177
18.397428000000005,8.00040041353654,0.0994019753427131
18.399808,8.001985101260244,0.0992992318988941
18.402216000000003,8.01050725678298,0.0991353168451585
18.404604,8.015956376372657,0.0990026499035266
18.406988000000005,8.023687135962474,0.0988399434544212
18.409384000000003,8.032628600365788,0.0986596429252823
18.411776000000003,8.047855906262074,0.0984138320078972
18.41415600000001,8.058287614732608,0.0982044853717208
18.416552000000003,8.067927927270222,0.0979963193131336
18.41894,8.079151031673677,0.0977901495654937
18.42132400000001,8.091165532010045,0.0975848377649796
18.423724,8.098384434920666,0.0974140786086223
18.426112000000003,8.103461467458008,0.0972668322148671
18.428496000000003,8.104953607383095,0.0971365037496339
18.430896000000004,8.106865056188765,0.0969885881951248
18.433284,8.101187410889347,0.0968917977825713
18.435664000000003,8.098582801522985,0.0967665560907542
18.438064000000004,8.100261932903177,0.0965959606098891
18.440452,8.098076632417396,0.0964529203830888
18.442832000000003,8.101246007864805,0.0962535349916822
18.445232000000004,8.110281915924606,0.09600830138837
18.44762,8.124253191037019,0.0957244292035924
18.450004,8.135430969470098,0.0954579305561314
18.452400000000004,8.147679683089814,0.095180939118543
18.454788,8.16221003670967,0.0948784634809182
18.457172,8.174738289583107,0.0945928237075119
18.459572,8.182051636150211,0.0943574476972037
18.461960000000005,8.194440119396786,0.0940795936465592
18.464344000000004,8.202964170777388,0.0938279187910484
18.46674,8.206972163985961,0.0935969595076653
18.469132,8.209117826074978,0.0933764262522435
18.471512000000004,8.2191321215228,0.0930988184141881
18.47391200000001,8.23207968327682,0.0928010455588442
18.4763,8.247820741710171,0.0924882778431597
18.478680000000004,8.263422030516665,0.0921820142239874
18.48108000000001,8.278883549696298,0.0918801857869279
18.483472,8.293274133689293,0.0915902714122782
18.485856000000005,8.301518645816175,0.0913528060522437
18.488252000000003,8.313487820182173,0.0910949742033332
18.490644000000003,8.322383958615113,0.0908650698450082
18.493024000000005,8.330768240368856,0.0906238263929506
18.495424,8.333565528763929,0.0904119203431919
18.497812000000003,8.3380853786517,0.0901962302441574
18.50019200000001,8.337949400740577,0.0900040218206946
18.502592,8.330596415776705,0.0898735121015806
18.504980000000003,8.32631646674589,0.0897174858159181
18.50736000000001,8.324457927342074,0.0895290600650457
18.50976,8.317384481631924,0.0893869281886824
18.512148000000003,8.314315237414608,0.0892144338396746
18.514536,8.311245993197288,0.089041261863965
18.516936,8.309387453793471,0.0888519281204881
18.519324000000005,8.300870985844345,0.0887011421088866
18.521708000000004,8.29077172602938,0.0885482523547479
18.524128000000005,8.27894990472172,0.0883985424591401
18.526520000000005,8.267267853040922,0.0882429701858225
18.528904000000004,8.257448132479679,0.0880781361842471
18.53130400000001,8.247628411918436,0.0879131483377895
18.533692,8.245956863969722,0.0876848176484876
18.536076,8.242842293782031,0.0874486433971099
18.538476000000003,8.2398674932212,0.0872069990394503
18.540864,8.236613153406648,0.0869765849848754
18.54324800000001,8.238154411017849,0.086719113284464
18.545648,8.240254747136493,0.0864404464415807
18.54804,8.246871141427166,0.0861454297418634
18.550420000000003,8.257351967583812,0.0858264520259522
18.552820000000004,8.26797256336732,0.0855044446299417
18.555208,8.278313619897107,0.0851942168362492
18.557592,8.293729813106363,0.0848477063065156
18.559992,8.308214840755845,0.0845066667778447
18.562384,8.3253535954578,0.0841589833039029
18.564768,8.34514607721223,0.0838070409077325
18.567164000000005,8.365450415645856,0.0834666414379544
18.56955600000001,8.384544049265983,0.083141814399265
18.571936,8.405360244378809,0.0828154816988466
18.574336,8.426967835424552,0.082492112376423
18.576728000000003,8.448994735350876,0.0821533905868246
18.579112,8.470090469717423,0.0818188278091491
18.581520000000005,8.48797339852405,0.0815153318925903
18.583912000000005,8.510092846248991,0.0812115199322184
18.586296000000004,8.532863920279992,0.080915935871847
18.588692,8.559639195803824,0.080598161475818
18.591084,8.585483305767879,0.0802865858220017
18.593464000000004,8.61155973315741,0.0800001995986513
18.59586400000001,8.63884686536044,0.0797019628681295
18.598252,8.668415637563609,0.0793832158423608
18.600636,8.692909273087304,0.0790976080770086
18.603036000000003,8.720056635663473,0.078808997391877
18.605424,8.740546069694334,0.078549265370754
18.60780800000001,8.760755964471477,0.0783005405815402
18.610204000000003,8.785109830368311,0.078026441858234
18.612596000000003,8.802805767719839,0.07777995427734
18.61497600000001,8.82343497137756,0.0775192952115643
18.617372000000003,8.845786736527979,0.0772579320612164
18.619764000000004,8.867067566491759,0.0770056807309363
18.622152,8.889419331642175,0.0767470948852892
18.624552,8.913353888658431,0.0764942763008895
18.626940000000005,8.93901100716738,0.0762410092364339
18.629324000000004,8.961595089743275,0.0760069256014906
18.63172,8.978731948587361,0.0757868077543319
18.634108000000005,8.99507741149853,0.0755652911045171
18.636496,9.008070299222922,0.075374382720728
18.638896000000003,9.018781546947176,0.0752045161913104
18.64128400000001,9.027118606872676,0.0750287364306954
18.643672,9.035455666798176,0.0748542252217324
18.646072000000004,9.044584122656596,0.0746834220095006
18.64846,9.056645844821208,0.0744991172095222
18.650852,9.06419150881379,0.0743239532219789
18.653260000000003,9.077324166165043,0.0741324608251786
18.655648,9.090456823516297,0.0739411700874293
18.658048,9.09665201306852,0.0737842682460296
18.660456000000003,9.112578167099104,0.0735873149663894
18.662844,9.128923630010274,0.0733773754606833
18.665244,9.144477696988522,0.0731657541185986
18.667652000000004,9.163104799899829,0.0729382074492815
18.670044000000004,9.178658866878076,0.0727285161364098
18.67244,9.193281768296549,0.0725224730799745
18.674848000000004,9.206182108222324,0.0723168256453469
18.677236,9.222155484081153,0.0720943069852699
18.679632000000005,9.23798909031312,0.0718758686396514
18.682032,9.253031300612172,0.0716553562932175
18.684420000000003,9.269703524605305,0.0714099546933803
18.686824,9.287586453411937,0.0711525982829139
18.68922,9.306121008524624,0.0709026644215399
18.691612,9.321862066957976,0.0706607569506474
18.694016,9.334530089458276,0.0704364574180677
18.696400000000004,9.351062543824543,0.0702000292150763
18.69879600000001,9.370388494870152,0.0699571498978419
18.701200000000007,9.389714445915756,0.0697159479599972
18.703584,9.414255303267694,0.0694476704850955
18.705980000000004,9.44079826136605,0.0691703167483667
18.70837600000001,9.461754226105736,0.0689086934465586
18.710764000000005,9.478566219725728,0.0686697485814719
18.713144000000007,9.497380314092132,0.0684233240505111
18.71554,9.511259041405932,0.0681967472691981
18.717928000000008,9.527000099839285,0.0679664345918152
18.720324,9.541809992712857,0.0677387602186577
18.722728,9.559413382265769,0.0675059836823
18.725112000000003,9.577947937378454,0.0672725643007275
18.727492000000005,9.599555528424196,0.0670246418240295
18.729887999999995,9.62260614170892,0.0667870157957818
18.73227600000001,9.639091374246943,0.0665922286529774
18.734656000000008,9.656507772344751,0.0663962527831071
18.737052,9.674063940069418,0.0661960796964482
18.73944000000001,9.691200798913504,0.0660093911666642
18.741816000000007,9.708477427384452,0.0658184965367076
18.744216,9.719747753616147,0.0656525729590064
18.746600000000008,9.734091115780895,0.06547384293836
18.748984,9.745501211639452,0.0653052072599893
18.751380000000005,9.74983407007212,0.0651671232318109
18.753764,9.755237863691423,0.0650232842363926
18.75616,9.756078377310454,0.0649123083770095
18.758564,9.75999192686254,0.0647874776524938
18.760952,9.76069267085471,0.0646810903444967
18.763332,9.7633955155933,0.0645668721797181
18.765728000000003,9.766517669212464,0.0644397061716734
18.768116,9.769779592458493,0.06430826920036
18.77050000000001,9.771318954211823,0.0641759105064645
18.772904000000004,9.770204588912682,0.0640439263931779
18.775288,9.771232093986818,0.063900863689891
18.777668,9.77388961275503,0.0637350999902238
18.780064000000003,9.780970641896657,0.0635410832787213
18.782452,9.787400044732223,0.0633402957731519
