Time,Force,Position
16.17542,3.413266695192313,0.1758068311603689
16.177804,3.6235229456286224,0.1734748327452319
16.180183999999997,3.8206994481155294,0.1715323489941435
16.182588,4.014062532280446,0.1690102482276292
16.184976,4.191646815473113,0.1668738433970229
16.187355999999998,4.3515899665739735,0.164995285428754
16.189752,4.495240564165516,0.1636054813359667
16.19214,4.621620220859721,0.1626426730965667
16.194519999999997,4.732638489604389,0.1618243644912372
16.196924,4.828854448906956,0.1611005697898607
16.199312,4.914784156939459,0.1603901349255909
16.201691999999998,4.985864333701621,0.1599043266522446
16.204096,5.047821742178972,0.1594281417952904
16.206484,5.098421964199619,0.1589808714728303
16.208859999999998,5.139946639763698,0.1584595153989881
16.237536,5.141672992972134,0.1580516601649634
16.239932,5.151774148644966,0.1580065157407195
16.24232,5.169743937676605,0.1577737479343756
16.244699999999998,5.193347941895158,0.1573698839801914
16.247096,5.218209872755451,0.1568820955439502
16.249484,5.238695515070575,0.1564652423012773
16.251863999999998,5.256667199960083,0.1560872166486687
16.25426,5.272636784103175,0.15575923565497
16.256648,5.289817073059765,0.1553961457233552
16.259027999999997,5.30951131944197,0.1550016838210319
16.261432,5.325433681756819,0.1547320126415912
16.26382,5.347175354855815,0.1543830839449601
16.266199999999998,5.376598669858515,0.1539148166519817
16.268596,5.405834993406111,0.1535183446444271
16.270984,5.434000381767068,0.1531530878182551
16.273363999999997,5.464447410128163,0.1527211913904903
16.275764,5.497036308862534,0.1522364680917264
16.278147999999998,5.518451220879565,0.1519694540797954
16.280531999999997,5.533255426179532,0.1517850150639363
16.282932,5.544382191068628,0.1516220317849898
16.28532,5.5570464218531885,0.1513426217422129
16.287699999999997,5.5645429681596585,0.1511432251570168
16.290104,5.57152765778693,0.1509358782387625
16.292492,5.57464791554823,0.1508105736053975
16.294867999999997,5.573344662936114,0.1508051689654918
16.297276,5.576557468496029,0.1507233215199218
16.29966,5.581492835548641,0.1506174109760771
16.302044,5.586288432974392,0.1505211192234887
16.30444,5.591875426333063,0.1504196132100877
16.306824,5.595739858199037,0.1503428500575375
16.309203999999998,5.605890131557981,0.1501163835060465
16.311608,5.6147371523048095,0.1498864393125833
16.313996,5.620558358946826,0.1496758629293653
16.316375999999998,5.625775161111027,0.1494128501332104
16.318772,5.628897314730194,0.149149646796024
16.321156,5.622707812751579,0.1490497468985739
16.323535999999997,5.615866684466906,0.1489468214490416
16.32594,5.619408146966655,0.1486534017666162
16.328328,5.632168717265569,0.1481575077447188
16.330707999999998,5.643578813124124,0.1477051141303204
16.333104,5.661599615699746,0.147187165656491
16.335492,5.683856937193677,0.1466185649457788
16.337871999999997,5.705415410553309,0.1461069080490396
16.34028,5.733771582085108,0.1454786117343228
16.342664,5.76133635768399,0.1448529765737348
16.345048,5.787597880670755,0.1442253734987244
16.347444,5.811997072537965,0.1436306024130752
16.349828,5.839376752539612,0.1429368052286592
16.352211999999998,5.860937121757112,0.1423045223803011
16.354608,5.881706095041693,0.1416788876752768
16.356991999999998,5.898470866833442,0.1411349235312524
16.359372,5.920031236050942,0.1405196130136448
16.361776,5.943733475641718,0.1398624974302356
16.364164,5.966597097471334,0.1392622638062146
16.366543999999998,5.992346763778903,0.1386579798402192
16.36894,6.033134848669784,0.1378164641548665
16.371328,6.071920832814248,0.137017807896696
16.447788,6.0381269168399845,0.1368911163774793
16.450176,6.047670889863246,0.1367916759140454
16.452555999999998,6.061266286207583,0.1365757144539905
16.454952,6.072068185872586,0.1363948273291076
16.45734,6.0836614814705054,0.136210063077669
16.459719999999997,6.097117108187983,0.1359988086862269
16.462124,6.111643670092099,0.1357665653350172
16.464512,6.131896994981746,0.1354460819493734
16.466891999999998,6.155455673229923,0.1351010813239352
16.469296,6.181947617784297,0.1347086781703484
16.47168,6.20285256898,0.1343924688107758
16.474059999999998,6.222454267563587,0.1340724340093831
16.476467999999997,6.242335505400895,0.1337377940573911
16.478852,6.262915591372504,0.1333628200937076
16.481232,6.286895474359132,0.1328706155664985
16.483639999999998,6.306918377681171,0.1324087677276328
16.486024,6.327500359510649,0.1319172745290978
16.488408,6.344078139847294,0.1314929938697249
16.490812,6.367965475035306,0.1309824315341155
16.493195999999998,6.389990479103762,0.1304992657897156
16.495576,6.41015315205266,0.1300437621655004
16.49798,6.426171853881865,0.1296647363421649
16.500367999999998,6.444844282763543,0.1292653859717725
16.502748,6.474318611310225,0.1287096645039011
16.505143999999998,6.502861774297127,0.1281666922604252
16.507531999999998,6.532755411724389,0.1275937804366815
16.509912,6.563859753965149,0.126999807837804
16.512307999999997,6.594592009153571,0.1263942747368019
16.514695999999997,6.622158680610322,0.1258047614604288
16.517076,6.647211394641458,0.1252342793887392
16.519472,6.679341346098481,0.1245567124719244
16.52186,6.707327326435814,0.1239444482687721
16.52424,6.732100501213229,0.1233871771670707
16.526636,6.755662971177147,0.1228589515349774
16.529024,6.777735197073844,0.1223776727788755
16.531404,6.796175308530046,0.1219739185002994
16.5338,6.81219401035925,0.1216230417979282
16.536188,6.829935273681151,0.121257575635768
16.538567999999998,6.842089543644381,0.1209581080594862
16.540972,6.853452417674694,0.1206613650716382
16.576819999999998,6.718784818741102,0.1204636536870405
16.579203999999997,6.711989016426803,0.1204267253546594
16.581588,6.710128581165115,0.1203265008304857
16.583983999999997,6.706545584410732,0.1202379683525019
16.586371999999997,6.706966789149181,0.1200963753366731
16.588756,6.710833116873022,0.1199319841770716
16.591151999999997,6.714140366089426,0.119797096897047
16.593539999999997,6.720380881612022,0.1196261023692482
16.59592,6.73220839049329,0.1193970111469553
16.598319999999998,6.749343353479507,0.1191252315394456
16.600707999999997,6.769783669824256,0.1188381619067535
16.603088,6.794507726915558,0.1184838432317729
16.605483999999997,6.820954345499558,0.1181157167821145
16.607872,6.848192360016475,0.1177456315609912
16.610252,6.874127121921278,0.1173674930776135
16.612655999999998,6.896476991213827,0.1170210106260468
16.615043999999997,6.916312903080761,0.1166894840730113
16.617424,6.936288584574555,0.1163523261306084
16.619819999999997,6.958917993120826,0.1159998639824648
16.622207999999997,6.979545300920679,0.1156733439584905
16.624588,7.002966105399867,0.1153169135300393
16.626984,7.019169902826305,0.1150618659661344
16.629372,7.028576002080573,0.1148866018413906
16.631752,7.042777698760594,0.1146592802771893
16.634152,7.054046129134421,0.1144685525001421
16.636536,7.060938270963076,0.1143087817047265
16.63892,7.070391592045588,0.1140961092252273
16.641323999999997,7.077982582008545,0.1139014116820614
16.643711999999997,7.083990780105663,0.1137109293914018
16.646092,7.083760358538055,0.1135673962258267
16.648491999999997,7.08180737547775,0.1134346126069476
16.650876,7.078503917977087,0.1133321793228486
16.65326,7.077482100476561,0.1131915980451851
16.655656,7.075249578162535,0.1130735792402902
16.658044,7.070595646221514,0.1130008879583335
16.660424,7.068455671706106,0.1129164000764548
16.66282,7.067107093123616,0.112830290739486
16.665208,7.066969219354626,0.1127218882041179
16.667588,7.060825043346384,0.1126855367538385
16.669988,7.055612032897921,0.1126407418063213
16.672372,7.053611828009373,0.1125497196120513
16.674756,7.057617925360076,0.1123870406367532
16.677152,7.06641962013653,0.1121750500546724
16.679536,7.070425717487234,0.1120126567809055
16.681936,7.07322111002444,0.1118725232792435
16.684331999999998,7.077739064054339,0.1117223935690413
16.686719999999998,7.080254917337822,0.1115966697027983
16.6891,7.082910540248166,0.111463707908937
16.691495999999997,7.087428494278067,0.111314960652006
16.693883999999997,7.099815081666776,0.1110804930251999
16.696264,7.113272604242123,0.1108319266566988
16.698667999999998,7.125147334951633,0.1105860263902847
16.701055999999998,7.136230669728225,0.1103433725012695
16.703436,7.146522608571898,0.1101003660549979
16.705831999999997,7.1641713240951805,0.1097623543332723
16.708219999999997,7.182379118125905,0.1093991333151683
16.7106,7.202728782529906,0.1090089827113597
16.712999999999997,7.220005411000852,0.1086574055595133
16.715384,7.240774384285434,0.1082487102988481
16.717768,7.261822896823736,0.1078269651243537
16.720163999999997,7.279658603802123,0.1074514471966121
16.722548,7.297494310780509,0.107079515583765
16.724932,7.311465585892924,0.1067444274878829
16.727328,7.329161523244449,0.1063798972482119
16.729716,7.34979072690217,0.1059872466296648
16.732096,7.370559700186753,0.1055887018929187
16.734503999999998,7.387184702351642,0.1052375791124096
16.736888,7.407394597128782,0.1048654273227182
16.739268,7.425462621532648,0.1045231508777606
16.741664,7.440317840376595,0.1042264412614169
16.744052,7.455033289593683,0.1039378978537302
16.746447999999997,7.468538033997272,0.1036685668420259
16.748844,7.479761138400725,0.1034337741213931
16.751227999999998,7.495128213923872,0.1031512591510541
16.753612,7.502347116834491,0.1029595614158997
16.756007999999998,7.508075775677889,0.1028016344195262
16.758395999999998,7.509520693774734,0.1026976878561017
16.76078,7.513759108550916,0.1025732605379094
16.763175999999998,7.517438444819655,0.1024753792050451
16.765563999999998,7.52311988183481,0.1023581165294585
16.767944,7.531222728476964,0.1022024842300386
16.770352,7.538254639932479,0.1020609192142863
16.772736,7.551432623254104,0.1018555068958178
16.775119999999998,7.560885944336618,0.1016764661022367
16.777516,7.567405999112935,0.1015236526895225
16.779904,7.577650716128367,0.1013465596937615
16.782283999999997,7.594832900942825,0.1011055209622918
16.784679999999998,7.60801088426445,0.1009034409319881
16.787067999999998,7.622539342026436,0.1006769913737371
16.789448,7.633063598295587,0.1004877822070594
16.791843999999998,7.641725523445182,0.1003114965062631
16.794231999999997,7.6522497797143325,0.1001218937497998
16.796612,7.665707302289679,0.0999073859994634
16.799007999999997,7.676883184864888,0.0997254618951337
16.801396,7.690061168186513,0.0995234135914777
16.803791999999998,7.70230798594836,0.0993273709634743
16.806188,7.72098041483004,0.0990570389493488
16.808576,7.736999116659243,0.0988003093191118
16.810955999999997,7.750364091435972,0.0985558329397286
16.813352,7.761587195839425,0.0983376683736516
16.815739999999998,7.769597494682961,0.0981575957100428
16.818123999999997,7.775885232033802,0.0979838072736666
16.82052,7.780031099011365,0.0978362911825127
16.822907999999998,7.789252102668401,0.097641315979862
16.825287999999997,7.797961249646239,0.0974332179413461
16.827692,7.801874799198324,0.0972618077842665
16.83008,7.805136722444354,0.0970855288035892
16.832459999999998,7.812030760130878,0.096856316131703
16.834856,7.814920596324569,0.0966617109230233
16.837244,7.822233942891674,0.0964136601856883
16.839627999999998,7.831549390205196,0.0961485068934608
16.842024,7.843426016772575,0.0958433110652535
16.844412,7.854139160354699,0.095521033621051
16.846795999999998,7.866202778377182,0.0951761603587153
16.849192,7.881339432332719,0.0948040877402499
16.85158,7.897686791101757,0.0944144226739014
16.853959999999997,7.905746207631406,0.0941046365618496
16.856355999999998,7.911803523414638,0.0938103701724362
16.858743999999998,7.917860839197869,0.0935147383280796
16.861124,7.922055823861544,0.0932294645628628
16.863519999999998,7.923457311845885,0.0929590665944295
16.865911999999998,7.923648095016727,0.0927055083779738
16.868292,7.9199744463215955,0.0924802327360192
16.870692,7.91229659613363,0.092289369068298
16.873079999999998,7.907132703371278,0.0920940865357997
16.87546,7.902108580235788,0.0918923298436055
16.877855999999998,7.894942586727021,0.091713723376238
16.880243999999998,7.886565888404755,0.0915526492369266
16.882628,7.882193391575322,0.0913582271702557
16.885023999999998,7.87768112511903,0.0911701858755354
16.887411999999998,7.872377462729819,0.0909814841416288
16.889795999999997,7.865723325900249,0.0908160492545311
16.892191999999998,7.85608870093624,0.0907075931491252
16.894579999999998,7.847525011158871,0.0905881750077408
16.896976,7.836679681381364,0.0904961214988835
16.899372,7.824903186044078,0.0904086201317819
16.90176,7.819272762572902,0.0902682972076419
16.904139999999998,7.819369102087259,0.0900930598580717
16.90654,7.823469643094447,0.0898870155604453
16.908928,7.830363680780971,0.0896664290196007
16.911308,7.843915647012804,0.0894063784773942
16.913704,7.858538548431275,0.0891345975856704
16.916092,7.8730216802228865,0.0888672469966549
16.918476,7.8880166686936946,0.0886125440552902
16.920872,7.902080491604726,0.0883633894174338
16.92326,7.914933609702258,0.0881301042260345
16.925639999999998,7.92643625335943,0.087919261709243
16.928036,7.936588422576244,0.0877316904411949
16.930424,7.9441794125392,0.087583433570521
16.932803999999997,7.949209223248299,0.087474430555681
16.935195999999998,7.953028329143899,0.0873821019772447
16.937583999999998,7.95456579503936,0.0873170927146226
16.93998,7.959316066494738,0.0872198396668151
16.942376,7.958711662016923,0.0871761033198084
16.944764,7.958247027165969,0.0871264509012177
16.947148,7.960296349740629,0.0870744491620665
16.949544,7.961134967501789,0.0870391959971462
16.951932,7.960111254143395,0.0870133859836533
16.9591,7.952848921120272,0.087007503899825
16.961479999999998,7.956341265933908,0.0869659578971834
16.963884,7.96183571149396,0.0869098694866267
16.966272,7.9686806314943714,0.0868324690500937
16.968656,7.9787383570546995,0.0867258864345959
16.971052,7.995873320040916,0.0865680019371993
16.97344,8.016360858213908,0.0863755089117599
16.97582,8.037127935640621,0.0861721016498807
16.978216,8.063529228254247,0.0859102247351537
16.980604,8.095704505681647,0.0855853406097045
16.982984,8.13081304941524,0.0852439688736519
16.98538,8.167272067589193,0.0848815046372816
16.987768,8.201868754643591,0.0845278150311145
16.990147999999998,8.244473844683654,0.0841211761208492
16.992544,8.287358473977438,0.0837048444947089
16.994932,8.329871016218886,0.0832738278078885
16.997311999999997,8.370521227340777,0.0828514561455542
16.999708,8.413313308835946,0.0824150048064973
17.0021,8.451729101785942,0.0819870309356228
17.004492,8.488422333243241,0.0815609800504948
17.006891999999997,8.522601607274927,0.0811373827640905
17.00928,8.549052017574663,0.0807589443214443
17.01166,8.576992671941621,0.0803570759984622
17.014056,8.603070995189022,0.0799635435416163
17.016444,8.625936512876505,0.0795997814257763
17.018824,8.6429354979516,0.0792711193008605
17.02122,8.658211921533999,0.0789460641870557
17.023608,8.673488345116395,0.0786216017603707
17.025987999999998,8.684481027952241,0.0783342487839176
17.028388,8.68997926522803,0.0780966240957864
17.030776,8.69175284026471,0.0778724179941606
17.033155999999998,8.695668285674664,0.0776321094595313
17.035556,8.706009342204451,0.0773434018825943
17.03794,8.709832239815789,0.0770780897408
17.040324,8.714446533360046,0.0768154620437747
17.04272,8.720783388396997,0.0765535872392816
17.045108,8.730472818620726,0.076263287103532
17.047492,8.736018277724762,0.0760010143336306
17.049888,8.74649910388141,0.0757143331396431
17.052276,8.75977342671739,0.0754191131921061
17.054672,8.77383914548629,0.0751263532565429
17.057076,8.788836029814968,0.074830188971904
17.059459999999998,8.801271734889788,0.0745656124597938
17.06184,8.815709540711024,0.0742909735633274
17.064244,8.827493619479787,0.0740190127681548
17.066632,8.83899815899483,0.0737567622050354
17.069011999999997,8.848872684815792,0.0735226478290933
17.071407999999998,8.856605340263478,0.0733038670284797
17.073795999999998,8.863546599778244,0.0730827512083955
17.076176,8.871419024852791,0.0728586108606735
17.078575999999998,8.882736572912728,0.0726337685263416
17.080963999999998,8.89163271134567,0.0724355774986877
17.083347999999997,8.89275276421842,0.0723025551370818
17.085744,8.89438467377037,0.0721816603316946
17.088127999999998,8.895085417762541,0.0720636544216214
17.090508,8.888848693955683,0.0719791106772029
17.092912,8.877908920521687,0.0719401835477079
17.095299999999998,8.867900312647473,0.0718985286154615
17.09768,8.85547029514626,0.071881921808546
17.100084,8.844111212831688,0.0718573994962283
17.102472,8.835405857569587,0.0718301639419045
17.104851999999998,8.828423063800184,0.0718028049886332
17.107248,8.824513305963835,0.0717580821056521
17.109636,8.817390742567573,0.0717355093707687
17.112015999999997,8.813853071783564,0.071708007688397
17.114416,8.812597040999691,0.0716607213740905
17.116804,8.814553815775733,0.0715913678916628
17.119183999999997,8.82079433129833,0.0714927261090227
17.121579999999998,8.830899278686902,0.0713802040700626
17.123967999999998,8.842634239769552,0.0712412783801903
17.126348,8.852926178613226,0.0710928614028308
17.128743999999998,8.865779296710759,0.0709162484301024
17.131131999999997,8.880122658875507,0.0707171048100218
17.133512,8.898749761786812,0.0704903277430357
17.135907999999997,8.918168260631035,0.0702668786172315
17.138296,8.946526328020704,0.0700048808982159
17.140676,8.977445574664232,0.0697135629781666
17.143072,9.00864436056148,0.0694133511242626
17.14546,9.039191520152668,0.0691056341740381
17.14784,9.071740780490272,0.0687926221258361
17.150243999999997,9.100844917842483,0.0684800780010516
17.152635999999998,9.12915765926178,0.0681658044779434
17.155016,9.157610170307931,0.0678492693573337
17.157411999999997,9.1909980484067,0.0675138264877177
17.159799999999997,9.225456861692107,0.0671735372955992
17.162184,9.261917775723928,0.0668278781081465
17.164579999999997,9.29465402751664,0.0664909086607336
17.166967999999997,9.324177473749431,0.0661752386546596
17.169348,9.347694617742976,0.0658855308286507
17.171756,9.37079245285594,0.065611652218786
17.174144,9.39468168390182,0.0653417319953936
17.176527999999998,9.415218339760925,0.0650969913488278
17.178924,9.438828031553085,0.0648388789690148
17.181307999999998,9.458713061106131,0.0645893752769711
17.183688,9.477015298793342,0.0643345394423792
17.186092,9.487588672748604,0.0641032798993557
17.188475999999998,9.499232981890506,0.0638666977327535
17.190859999999997,9.509526816592048,0.0636454427644344
17.193255999999998,9.524895787973064,0.0634041042792906
17.195639999999997,9.533187521928191,0.0631922656130883
17.19802,9.540268551069818,0.0629906506067771
17.200423999999998,9.546558184278528,0.0627860852317871
17.202811999999998,9.550054320807902,0.0625864566075127
17.205192,9.55317837028494,0.0623716012551027
17.207596,9.552857296776583,0.0621535386510006
17.209984,9.544527820282562,0.0619640262428455
17.212363999999997,9.54127348046801,0.0617545437135149
17.21476,9.540300780653595,0.061529108981872
17.217143999999998,9.544542987145514,0.061279229392786
17.219524,9.548924963264296,0.0610256695313657
17.221932,9.552655313077016,0.0607650447689564
17.22432,9.560529634009429,0.0604870882195339
17.226699999999997,9.565610458262508,0.060213529399264
17.229096,9.570271973635007,0.0599530014951098
17.231484,9.575073258634369,0.0596879541126976
17.233863999999997,9.586672241805896,0.0594070364776167
17.236268,9.597060520163929,0.0591368259719528
17.238656,9.608007877029396,0.0588488191540668
17.241035999999998,9.61201776609584,0.058582052990244
17.24344,9.621242561468613,0.0582926835975058
17.245828,9.636753198334358,0.0579767788636832
17.248207999999998,9.655197101506296,0.0576548025213382
17.250604,9.674572170238012,0.0573323502203237
17.252992,9.6875216278499,0.057041563426058
17.255371999999998,9.702985042887406,0.0567571654916677
17.257768,9.724454760164155,0.0564536328526097
17.260156,9.7397784055748,0.056173437306745
17.262535999999997,9.754031115798805,0.0558994416248888
17.26494,9.765350559716609,0.055633102609545
