Time,Force,Position
15.880904,4.892415453492204,0.1642431167295336
15.883283999999998,4.911269186255378,0.1640378265370649
15.88568,4.934778746817444,0.1637346869116183
15.888059999999998,4.963223674432122,0.163318540219478
15.89044,4.996603969099412,0.1627802695427105
15.892832,5.0324056733937,0.1621571905675135
15.89522,5.068906225822289,0.1614749990326928
15.897595999999998,5.111552850116987,0.1606265566650028
15.899992,5.155549948852046,0.1597318833737342
15.90238,5.203039392400741,0.1587322538711525
15.904759999999998,5.2470837129640415,0.1577994431009814
15.907172,5.292059199087122,0.1568479712311161
15.90956,5.337314224463924,0.155872528753016
15.911955999999998,5.377494113161252,0.1550258827267507
15.91436,5.421817972978273,0.1540781457466644
15.916744,5.467212767981934,0.153097868326567
15.919123999999998,5.507672195932981,0.1522556618740387
15.921528,5.548830472018331,0.1513853530904285
15.923912,5.587102703625728,0.1505396923522473
15.926291999999998,5.621977034075975,0.1497096084354233
15.928688,5.6542448593019925,0.148883958163443
15.931076,5.678271964116864,0.1482129681168936
15.933452,5.702346290759979,0.1475049370549805
15.93586,5.722556185537121,0.1468817612006149
15.938244,5.73825002214223,0.1463298371935028
15.940627999999998,5.751010592441144,0.1458352007468363
15.943024,5.767635594606031,0.1452720981209451
15.945408,5.78412082714406,0.1447269941179225
15.947788,5.799814663749169,0.1441920987455654
15.950192,5.809222658861308,0.1437962386587713
15.95258,5.813136208413393,0.1435298175285795
15.954959999999998,5.820914189831453,0.1431949160635533
15.957356,5.832836142369206,0.1427744380786472
16.038600000000002,5.722101204594,0.1425276625849012
16.040979999999998,5.727081897616985,0.1425249335924093
16.04338,5.738440979931559,0.1424267029434204
16.048144,5.754174454933434,0.1424147028797691
16.050548,5.76855935135282,0.1423101063885515
16.052936000000003,5.791464507437071,0.1420682670701911
16.055315999999998,5.819864109081375,0.1416979546556592
16.057719999999996,5.845470214046346,0.1413734728681199
16.060104000000003,5.874848203078671,0.1409472751239249
16.062483999999998,5.906507832111133,0.1404673930611474
16.064887999999996,5.937655604464398,0.139969618442306
16.067276,5.970153851258023,0.1394326107975395
16.069656000000002,6.000929536558951,0.1389176583577391
16.072048000000002,6.028120329247625,0.1384537668125318
16.074436,6.060665797869492,0.1378814291056307
16.076816,6.092419870558442,0.1373250365402072
16.079212,6.128597453620806,0.1366743473358657
16.0816,6.169058777429724,0.1359422538344192
16.083979999999997,6.205935208626388,0.1352645585893341
16.086384000000002,6.247374919823327,0.1344836801825699
16.088768,6.282016932848096,0.1338141664595563
16.091147999999997,6.312282657327696,0.1331977439814722
16.093548,6.341245129195179,0.1325762225424233
16.095936000000002,6.372629010689661,0.1318993568447184
16.098312,6.395492632519277,0.1313510874529543
16.100712,6.415562757669558,0.1308492993636114
16.103096,6.434701717260061,0.1303644472130399
16.10548,6.453328820171365,0.1298663473067406
16.10788,6.470745218269172,0.1294037814981246
16.110267999999998,6.485600437113121,0.1290058591157012
16.112651999999997,6.504180318196182,0.1285611793836605
16.115048,6.521549494465744,0.1281460992632722
16.117435999999998,6.539198209989028,0.1277154550871867
16.119819999999997,6.558988795885588,0.1272465386367298
16.122216,6.573564475475816,0.1268717716666129
16.1246,6.586789680625683,0.1265354078296379
16.126979999999996,6.59587091465586,0.1262699481459323
16.129376,6.6021586520067,0.1260408916396746
16.131763999999997,6.608446389357541,0.1258123264038236
16.13416,6.609379450775189,0.1256776893721049
16.136564,6.614456483312531,0.1254750598531759
16.138951999999996,6.625400048462263,0.1251936533061642
16.141332,6.635272678425356,0.1249308712596732
16.205835999999998,6.481800464414701,0.1247286568110198
16.208232000000002,6.479845585496527,0.1247137431202422
16.210616,6.482546534377245,0.1246464042158303
16.213012,6.49311611661677,0.124473120749055
16.215415999999998,6.505455482177235,0.1242450856828855
16.217799999999997,6.528736517029561,0.123864789134142
16.22018,6.552157321508749,0.1234771566852479
16.222583999999998,6.578231853040411,0.1230675698812267
16.224972,6.607658959758849,0.1225961356463439
16.227351999999996,6.640298872037204,0.1220723859782845
16.229756000000002,6.666792712449445,0.121646517290119
16.23214,6.694217718421466,0.1212123595651091
16.234519999999996,6.725507156259463,0.1207285725054371
16.236924000000002,6.758286838164676,0.1202039714476217
16.239311999999998,6.782686030031884,0.1197700619613052
16.241692,6.804571264473478,0.1193545580850539
16.244087999999998,6.8244543981686565,0.118966853896392
16.246476,6.848621272610387,0.1185078165549673
16.248852,6.87334722555956,0.1180212796794745
16.251247999999997,6.901658071120986,0.1175091656607986
16.253631999999996,6.9306205429884695,0.1170042238770372
16.256016000000002,6.960002323736534,0.1164835104574306
16.258412,6.983936880752787,0.1160182556434601
16.260799999999996,7.002563983664094,0.1155994405636751
16.26318,7.017978281015483,0.1152318372224316
16.265588,7.027526045754481,0.1149359174524539
16.267972,7.036282414560562,0.1146416914018543
16.270356,7.045597861874083,0.1143215413426825
16.272751999999997,7.054913309187605,0.1140034078848562
16.27514,7.06250619500843,0.113697201367559
16.277520000000003,7.072380720829392,0.1133531935117723
16.279916,7.083465951463855,0.1129891108324303
16.282303999999996,7.0968328220984525,0.1125909016320144
16.284684,7.112853419785527,0.1121780749478185
16.287079999999996,7.135531946017909,0.1116992720632161
16.289468,7.159421177063789,0.1112012423254594
16.291848,7.184381343296307,0.1106875363342496
16.353991999999998,6.907914102743513,0.1105156678690887
16.356372,6.90665807195964,0.1104626990058435
16.358772000000002,6.910477177855238,0.1103491587639948
16.361159999999998,6.917461867482511,0.1102322977949628
16.36354,6.92616911860248,0.1101072073045465
16.365935999999998,6.933945204162669,0.1099897293416697
16.368324,6.949589923081668,0.1097891081760382
16.370708,6.969099073866637,0.1095488443214967
16.373112,6.989539390211387,0.1093023166196412
16.375496,7.012773203235471,0.109030386155171
16.377876,7.0381488866328334,0.1087253508889666
16.38028,7.06524713152289,0.1084115750555977
16.382664,7.09728074346556,0.1080469286085193
16.385044,7.131735765035228,0.1076384822370805
16.387448,7.167261721791534,0.1072210987100714
16.389836000000003,7.2073037367198705,0.1067749249732977
16.392215999999998,7.254003680193517,0.1062769492198825
16.394607999999998,7.296419882920609,0.1058427225438802
16.396991999999997,7.33678676307304,0.1054760668626703
16.399372,7.374360146546136,0.1051306388039013
16.401767999999997,7.409791659645956,0.1048155596031676
16.404151999999996,7.449506913492329,0.104451434305284
16.406548,7.483215865099452,0.104152452754504
16.408952,7.514550628907821,0.1038573475199043
16.411336,7.544162831223492,0.1035713110562403
16.413716,7.574706199098943,0.1032776620650368
16.41612,7.600733508802361,0.1030160377031471
16.418504,7.628902688879058,0.1027307912085496
16.420884,7.656420242649696,0.1024418602575306
16.423288,7.68566035791303,0.1021468285924762
16.425672,7.720115379482697,0.1017964157165775
16.428052,7.754710170679224,0.1014414730460299
16.430456,7.785440530009778,0.1011226612817078
16.432844000000003,7.816031119713471,0.1008122932751206
16.435223999999998,7.843967982364689,0.1005180705102064
16.437620000000003,7.869670426844014,0.1002218264888326
16.440008,7.886712842031613,0.0999961026026226
16.442388,7.904733644607234,0.0997291147081485
16.444784,7.92052002901096,0.0994564164383299
16.447172000000002,7.939519218974604,0.0991474534844835
16.449551999999997,7.957866782632188,0.0988322579404302
16.451948,7.969137108863884,0.0985852307780899
16.454335999999998,7.983480471028634,0.0983081447248455
16.456711999999996,7.997032437260466,0.0980312949359547
16.459116,8.013936978679075,0.0977150750317069
16.461503999999998,8.03018989379163,0.0973925355992517
16.463879999999996,8.0455116433444,0.0970760346970008
16.466276,8.058179665844696,0.0967730475498989
16.468663999999997,8.067123026105882,0.0964926614818044
16.47106,8.075042673008669,0.0961890886471723
16.473456,8.074953916925791,0.0959547848049815
16.475844000000002,8.076355404910132,0.0956923402879463
16.478223999999997,8.079107367334833,0.0954073120471914
16.480620000000002,8.082138869013251,0.0951115103711657
16.483007999999998,8.082097334758616,0.0948430053962224
16.485388,8.081916030877121,0.094581297782801
16.487783999999998,8.08615823736904,0.0942692850970955
16.490172,8.09012090460724,0.0939703483970404
16.492551999999996,8.094083571845436,0.0936709940928837
16.494956000000002,8.096695764643277,0.0933948741884925
16.497344,8.100239123000895,0.0931135075856521
16.499719999999996,8.108997387664843,0.0927839039243089
16.502128,8.116824486769014,0.0924603067058999
16.504512,8.126234377739022,0.0921385552604843
16.506892,8.128427261656281,0.0918811221813994
16.509292000000002,8.133413642252874,0.0916092392164681
16.511676,8.1424042243423,0.0913073294101688
16.51406,8.15018410161823,0.091021851518404
16.516455999999998,8.160617705946633,0.0907265209739633
16.518844,8.169421296580957,0.0904650199087173
16.521223999999997,8.181158153521478,0.0901812228783145
16.523623999999998,8.187260795275083,0.0899625729087627
16.526012,8.188800157028416,0.0897980073740472
16.528391999999997,8.188197648408469,0.0896549806076765
16.530796000000002,8.18931770128122,0.0895072366715963
16.533184,8.186293783034278,0.0893964839429999
16.535559999999997,8.181779620720116,0.0893140379068729
16.537956,8.170979616912982,0.0892897958870843
16.540343999999997,8.162041944225406,0.0892555041058654
16.542740000000002,8.154594515605048,0.0891929845725357
16.545136,8.146076151798052,0.0891409218243672
16.54752,8.132342881684725,0.0891356731207026
16.549903999999998,8.119540777131174,0.0891252181343566
16.552304,8.106738672577626,0.0891144606328913
16.554692000000003,8.09780099989005,0.0890791251888154
16.557071999999998,8.087932161642694,0.0890482073980172
16.559475999999997,8.074850517835424,0.0890478580794859
16.561860000000003,8.063631205147708,0.0890381293051108
16.564239999999998,8.052411892459995,0.0890282472239329
16.566643999999997,8.04333445014556,0.0889976901951472
16.569032,8.037330043764177,0.0889419466754428
16.571412000000002,8.03574914775621,0.0888394977299177
16.573808,8.03873153174852,0.088684450401405
16.576195999999996,8.04450741242016,0.0885161138338482
16.578575999999998,8.054706803465217,0.0883023526672154
16.580979999999997,8.068770626376248,0.0880644648282306
16.583363999999996,8.079901182981082,0.0878455285324113
16.585744,8.099319681825305,0.0875560055898431
16.588147999999997,8.120880051042803,0.0872491605047769
16.590536,8.142160881006586,0.0869557093848501
16.592916000000002,8.17252104914267,0.0866005550954488
16.595312,8.20730472765217,0.0862019560631663
16.597699999999996,8.241297010228752,0.0858041153680338
16.600076,8.277710702432332,0.0853801799821121
16.602472,8.317476969822687,0.0849259331659563
16.604860000000002,8.355520675720346,0.0844759289494389
16.607239999999997,8.39170205049845,0.0840332557313902
16.609643999999996,8.425369467850937,0.0835921964339382
16.612028000000002,8.461318525203561,0.0831296061964447
16.614412,8.499549222556324,0.0826478494994632
16.616816,8.54085295584214,0.0821514926076539
16.619203999999996,8.580294358008402,0.08166464453929
16.621584,8.618804594614883,0.0811847720630021
16.623987999999997,8.65587180898239,0.0806991550524922
16.626376,8.68958644816312,0.0802491988619988
16.628756000000003,8.722649461037792,0.0797939641510532
16.631152,8.758133883539463,0.0793104677441391
16.633539999999996,8.792547370854495,0.0788409820206164
16.63592,8.820023390370498,0.0784117449502764
16.638315999999996,8.845637078766943,0.0779901792812914
16.640704,8.85737583156533,0.07764844144801
16.643084,8.863759908430527,0.0773491870927996
16.645488,8.866931179735808,0.0770745517527902
16.647875999999997,8.865958479921396,0.0768293207857255
16.650256,8.862704140106844,0.0766070373489741
16.652651999999996,8.861312131411848,0.0763786468269221
16.65504,8.862993158649909,0.0761306192962949
16.657420000000002,8.867327912940446,0.0758784968147467
16.659816,8.865656364991732,0.0756598049367442
16.662204000000003,8.85569687480363,0.0754958238380329
16.664583999999998,8.837728981629859,0.0753762471513951
16.666984,8.823485750695202,0.0752445474946247
16.669368,8.810825311626381,0.0751170243806688
16.671751999999998,8.796814398117201,0.0750072113511106
16.674148000000002,8.782943254234883,0.0748921473964235
16.676536,8.770003275912341,0.0747739851319988
16.678931999999996,8.757714923895858,0.0746628702275548
16.681336,8.741422370386541,0.0745725792059
16.68372,8.730716810235894,0.0744655667617105
16.686099999999996,8.721873581204802,0.0743529319051474
16.688499999999998,8.720759215905659,0.0742078879827054
16.690888,8.72458021765913,0.0740389709011518
16.693267999999996,8.731474255345654,0.0738512339508192
16.695664,8.736878048964957,0.0736859133819033
16.698051999999997,8.741071137770765,0.0735337822505276
16.700432,8.742982586576433,0.073402436978905
16.702832,8.744614496128383,0.0732816051203629
16.705219999999997,8.743964765680195,0.0731813002563174
16.7076,8.749693424523594,0.0730671944581757
16.710003999999998,8.76436165191244,0.0729087400878824
16.712387999999997,8.783685707100176,0.0727369160426147
16.714768,8.79779485598158,0.0725990951107045
16.717171999999998,8.809622364862847,0.0724821345903986
16.719555999999997,8.82331220486367,0.0723600940507269
16.721936,8.836722505610776,0.0722483064749517
16.724339999999998,8.850924202290795,0.0721398917850112
16.726723999999997,8.86298402859754,0.0720467890852474
16.729104,8.875835250837202,0.0719558179192741
16.731507999999998,8.889897177890365,0.0718533719661767
16.733896,8.905681666436221,0.0717517850957974
16.736275999999997,8.921466154982078,0.0716512048053307
16.738680000000002,8.934177607594881,0.0715680801930501
16.741068,8.952755592820072,0.071462241425652
16.743448,8.978038728418817,0.0713042846997315
16.745852,9.000668136965086,0.0711479626236674
16.748236,9.02744151663105,0.0709686473133519
16.750616,9.053423500364094,0.0707875452030219
16.75302,9.082897828910776,0.0705761273108753
16.755404,9.113071005591756,0.070343345445337
16.757784,9.141381851153184,0.0701179058388816
16.760191999999996,9.166899200035273,0.0698995910017122
16.762576000000003,9.197771224850555,0.0696476145726987
16.764955999999998,9.22934209780014,0.0693725024978528
16.767359999999996,9.261332279630304,0.069084916016244
16.769748,9.29481270552769,0.0687775689646377
16.772128000000002,9.323357764372462,0.0684900373633757
16.774524,9.35418446321737,0.0681848287332792
16.776908,9.388503506875916,0.0678514118916942
16.779291999999998,9.41816672273557,0.0675296890172736
16.781692,9.443733189303773,0.0672005920281198
16.784079999999996,9.4666459288195,0.0668738608101189
16.786459999999998,9.493190782775724,0.0665149162474227
16.788863999999997,9.512286312253725,0.0661737438038449
16.791252,9.525235769865612,0.0658635368713871
16.793632000000002,9.54340013378383,0.0655265055816535
16.796028,9.557979605089796,0.0651934619567479
16.798415999999996,9.570976284529928,0.0648546683756102
16.800800000000002,9.582110632850505,0.0645207790338614
16.803204,9.588309614118463,0.0642051483273523
16.805588,9.590132306841252,0.0638885800426422
16.807972,9.593445243631262,0.0635523835462025
16.810367999999997,9.591310956689462,0.0632212457206972
16.812751999999996,9.587174569001249,0.0628971877954942
16.815132,9.581175850193471,0.0625762147963255
16.817527999999996,9.577179232132115,0.062249392666491
16.819916,9.578677059630811,0.0618888310417812
16.822296,9.579383491196593,0.0615259044926865
16.8247,9.577948052389091,0.0611755666065508
16.827087999999996,9.57823517507429,0.0608266872572478
16.829468,9.577823449625186,0.0604989678653413
16.831868,9.57727195454922,0.0601752954561375
16.834255999999996,9.571365783540063,0.059879880100645
16.836636,9.566902634769884,0.0595949687930734
16.839031999999996,9.562299716372843,0.0593134945575423
16.84142,9.556206553908584,0.0590518656015116
16.8438,9.552767118496796,0.0587916457626598
16.846204,9.552772806070404,0.0585360541118004
16.848588,9.55464082476357,0.0582791554791932
16.850972,9.558231404949431,0.0580243270306426
16.853367999999996,9.56684989998652,0.0577813724563945
16.855752000000003,9.573046985396614,0.0575579511754712
16.858136000000002,9.582269884911518,0.0573525365779861
16.860532,9.593866972225175,0.0571574729264731
16.862920000000003,9.604904981031396,0.0569799655005075
16.865299999999998,9.609796917971504,0.0568260019660723
16.867703999999996,9.61319861084439,0.0566912313642417
16.870092,9.61632076446356,0.0565654067196242
16.872472000000002,9.618232213269229,0.056449152117151
16.874876,9.622145762821315,0.0563272888123693
16.87726,9.632345153866371,0.0561794595017564
16.879640000000002,9.644406876030985,0.0560303649765372
16.882044,9.662986757114048,0.0558762681011093
16.884431999999997,9.681426868570249,0.0557266029776993
16.886812,9.702660476705784,0.0555747434888879
16.889212,9.724313393721902,0.0554108445722611
16.891596,9.743033044431824,0.0552541243782223
16.893976000000002,9.758028032902631,0.0551005597553272
16.89638,9.770741381373302,0.054961914457893
16.898767999999997,9.783314960217114,0.054827774700527
16.901151999999996,9.790161776075394,0.0547018316908703
16.903548,9.798870923053231,0.0545744668279978
16.905935999999997,9.809861710031209,0.054433751768726
16.908316,9.820340640329984,0.0542812187107074
16.910719999999998,9.83296144100204,0.0541191195756033
16.913103999999997,9.850517608726706,0.0539457485701701
16.915484,9.8642093445854,0.0537788807371705
16.917887999999998,9.876038749324536,0.0536131286488278
16.920276,9.889870254810088,0.0534422540600361
16.922655999999996,9.900768493989446,0.0532777884103484
16.925060000000002,9.90645182686247,0.0531336077601889
16.927448,9.912274929362356,0.0529857159658291
16.929828,9.911719642570654,0.0528371037459813
16.932232,9.91293413909989,0.0526631514105056
16.934620000000002,9.91470771413657,0.0524729912645044
16.936999999999998,9.91419964917311,0.0522962929698966
16.939396000000002,9.91355181458279,0.0521235082652921
16.94178,9.916628642231586,0.0519493665903105
16.944159999999997,9.91891407394746,0.0517713503637959
16.946564000000002,9.921618814543915,0.0515810074400455
16.948952,9.929538461446706,0.0513723917031279
16.951332,9.937877417230077,0.0511516067171463
16.953727999999998,9.940489610027914,0.0509369682703832
16.956116,9.941239471706195,0.0507226784722276
16.958495999999997,9.940266771891784,0.0505048710450146
16.960900000000002,9.93328776983812,0.0503005152247997
16.963284,9.926029228530734,0.050103365301582
16.965663999999997,9.920493248716047,0.0499095974162213
16.96806,9.90801980110233,0.0497289747856427
16.970447999999998,9.894475418301974,0.0495521651625714
16.972828,9.880139639568698,0.049370724678644
16.975223999999997,9.86193942896945,0.04919363771255
