Time,Force,Position
16.055079999999997,4.63008243469573,0.1709543741076454
16.057479999999998,4.645957575182336,0.1706801605831231
16.059875999999996,4.669793896826365,0.1702329806514899
16.062264,4.6958646366422885,0.1697611559244215
16.064644,4.7265912042571046,0.1691799185564899
16.06704,4.761042434111033,0.1685086599620653
16.069428000000002,4.787764800233014,0.1680379006619561
16.071807999999997,4.811693669675662,0.1676341837661934
16.074204,4.838975114305084,0.1671156847935135
16.076588,4.860949104829557,0.1667135637373873
16.078972,4.889768015354442,0.1660714373887976
16.081367999999998,4.921939501066103,0.1653221939600925
16.083756,4.95625285715104,0.1645062528382741
16.086152,4.988983421370141,0.1637179184942839
16.088547999999996,5.021713985589243,0.1629335257799901
16.090936,5.052302679435067,0.1622383249264372
16.09332,5.086196726639424,0.1615033066339576
16.095723999999997,5.118600529776562,0.1608304052289639
16.098107999999996,5.15128387216742,0.1601382519610842
16.100488,5.186900480864473,0.1593899257000721
16.102891999999997,5.216790326575998,0.1587840830020429
16.105275999999996,5.237368516689738,0.1583946522933013
16.107656,5.259576720497557,0.1579444937447505
16.110051999999996,5.279830045387203,0.1574867963517798
16.112436000000002,5.291702880238844,0.1572011571267177
16.11482,5.300270361731952,0.1569622460384574
16.117216,5.317497872516785,0.1565262449314681
16.1196,5.339800519981091,0.1559645840071968
16.121983999999998,5.360892462631899,0.1554496677942831
16.124387999999996,5.384638132335181,0.1548856179000752
16.126771999999995,5.404472148344246,0.1544709402646342
16.129156000000002,5.4180203228603405,0.1542209126506621
16.131552,5.430357792562935,0.1540119662848013
16.133936,5.441764096705752,0.1538214964718294
16.136316,5.453589709729149,0.1536015930100892
16.13872,5.461039034207375,0.1534540445758861
16.141107999999996,5.465043235700209,0.1533607600993304
16.143484,5.471748386073761,0.1531694904621316
16.14588,5.478081449394974,0.152956626089985
16.148268,5.478315662678321,0.1528401093955436
16.150664,5.481762681521583,0.1526401412812629
16.153059999999996,5.484278534805068,0.1524567455429031
16.155448,5.4825106473419964,0.1523860251028373
16.157832,5.484187882864318,0.1522653021735316
16.160227999999996,5.492942355812531,0.1519798306501907
16.162616,5.507283822119412,0.151593444096189
16.164996000000002,5.5186920221200975,0.1512735120197638
16.167392,5.527818582120648,0.1510210867267081
16.169779999999996,5.5356418895090815,0.1507638312112901
16.172164000000002,5.540951239471901,0.1505366659913211
16.17456,5.546028272009242,0.1502773049160568
16.176947999999996,5.559253477159111,0.1498362069965553
16.179327999999998,5.574620552682257,0.1493453354784033
16.181723999999996,5.592129498578681,0.1488034862578375
16.184112,5.607217034848107,0.1483336065956103
16.186492,5.626680859662702,0.1478019333440954
16.188888,5.649869346716412,0.1472118704547117
16.191276000000002,5.6727782945164025,0.1466463121883142
16.193672,5.694988394182092,0.146130088025002
16.196067999999997,5.712355674593786,0.1457445011308851
16.198456,5.729303646124898,0.145391954873282
16.200836000000002,5.749976279895124,0.1449744025601163
16.258179999999996,5.682528217573458,0.1449403111831527
16.260576,5.676011954512879,0.1449061954841539
16.262963999999997,5.67480314555725,0.1447984167929643
16.265344,5.6738266540270965,0.1447223800265414
16.267747999999997,5.673641558429864,0.1446404955519301
16.270136,5.67988207395246,0.1444117897777684
16.272515999999996,5.688264459848335,0.1441344287712387
16.27492,5.699021033542963,0.1438385488792611
16.277304,5.715364600596262,0.1434511817596509
16.279688,5.732918872463059,0.1430369837247896
16.282092,5.751823618770215,0.1425816970750976
16.284475999999998,5.774592796943344,0.1420523316381454
16.286856,5.798804997355449,0.141518233234424
16.289248,5.826741860006669,0.1409278915029168
16.291632,5.847182176351418,0.1405174155694064
16.294012000000002,5.868693427882806,0.1400832519938301
16.296416,5.886712334600558,0.1397427103574003
16.298803999999997,5.913903127289233,0.1392740265869185
16.301184,5.948310927030657,0.1386663723038873
16.303584,5.98392943158558,0.1380334429579109
16.305971999999997,6.020758640954001,0.1373681960916198
16.308352,6.056097606255204,0.1367605860700387
16.310755999999998,6.088922614130791,0.1361827566825729
16.313139999999997,6.121515304580902,0.1355756384843734
16.31552,6.155738008725091,0.1349182410186267
16.317923999999998,6.185816741749587,0.1343495345922236
16.320312,6.21189127328125,0.1338489864203079
16.322691999999996,6.239595818506992,0.1332968269785758
16.325091999999998,6.267719672613314,0.1327291045072029
16.32748,6.291839325226802,0.1322336447317061
16.329859999999996,6.313956877093874,0.131773046586105
16.332259999999998,6.339007695267141,0.1312713990718444
16.334652,6.366479923067406,0.1307151143774972
16.337032,6.390227488628557,0.1302113737379348
16.339436,6.412392262323872,0.1297123381759994
16.34182,6.4362795975118825,0.1292007306692874
16.3442,6.459655076020695,0.1286756535466783
16.346604,6.475441460424421,0.1282622040441802
16.348991999999996,6.48443014665598,0.1279513284201675
16.351371999999998,6.490485566581343,0.1276847878561373
16.353772,6.501336583932457,0.12735606858374
16.356159999999996,6.508323169417599,0.1270800073074592
16.358539999999998,6.514238819716102,0.1268234397321974
16.360943999999996,6.521877031507301,0.1265533922893463
16.363332,6.525091732925086,0.1263693040815877
16.365712000000002,6.529097830275787,0.1261822821093458
16.368111999999996,6.540041395425519,0.1258932054138
16.3705,6.550053795015472,0.1256181672733725
16.372880000000002,6.552849187552677,0.1254599446755814
16.375276,6.55550481046302,0.1253091785412441
16.377663999999996,6.557089498186726,0.1251768815346288
16.380048000000002,6.556811854790874,0.1250677016007859
16.382444,6.554392341021746,0.1249964606084126
16.384828,6.55090189206598,0.1249439195159877
16.387208,6.551555414229907,0.1248237932700623
16.389604,6.5494154397145,0.1247366060491248
16.391992000000002,6.547135695572232,0.1246571081472504
16.394371999999997,6.544855951429964,0.1245774598123359
16.396775999999996,6.544158999153532,0.124491458025339
16.399160000000002,6.546255543556437,0.1243726309728709
16.401539999999997,6.542206016093228,0.1243511642170039
16.403936,6.543231625309493,0.1242518235266018
16.406323999999998,6.544117464898897,0.1241600936801319
16.408707999999997,6.540067937435689,0.1241386858818096
16.411104,6.542164481838592,0.1240205710715487
16.413491999999998,6.541607299189021,0.1239269961903146
16.415872,6.537837310979534,0.1238894941741702
16.418276,6.533648013889466,0.1238751804586261
16.420659999999998,6.5336026879190925,0.1237948247070637
16.42304,6.537282024187832,0.1236721348437986
16.425435999999998,6.548969763442239,0.1234358962783046
16.427824,6.5594467978831466,0.1232264072751256
16.4302,6.572437789749669,0.1230026286677674
16.432595999999997,6.5903641486688045,0.1227129625205706
16.434979999999996,6.606008867587801,0.1224687327347864
16.437364000000002,6.622444982439717,0.1222215795832519
16.43976,6.640463889157468,0.1219692738444839
16.442144,6.662486997368053,0.121662940762012
16.444524,6.687722911138554,0.1213062829219601
16.44692,6.713098594535914,0.1209466113783086
16.449303999999998,6.73675171644058,0.1205956046195106
16.451687999999997,6.760684377598964,0.1202349121850585
16.454099999999997,6.787550305063545,0.1198384548517758
16.456483999999996,6.819491369207597,0.1193696900075662
16.458864,6.848499167045456,0.1189450088875491
16.461280000000002,6.8813713967492856,0.1184756061846976
16.463664,6.915454331266615,0.1179860814618745
16.466048,6.949816805037665,0.1174850370859398
16.468448000000002,6.987112545114912,0.1169534008373939
16.470836,7.02282549332632,0.116431551231829
16.473216,7.050530038552061,0.1160176035024759
16.47562,7.078234583777805,0.1156036557731227
16.478007999999996,7.1047756460182905,0.1151765833118881
16.480387999999998,7.131596247512496,0.114742814010233
16.482791999999996,7.160046862700781,0.1142678975545109
16.485175999999996,7.1897081827025655,0.1137720465602696
16.487555999999998,7.221790912331348,0.1132360514971795
16.489956,7.249078044534379,0.1127515878888449
16.49234,7.271569579311657,0.1123179756572408
16.49472,7.291919243715658,0.1119169917572943
16.497124,7.31813544073205,0.1114530124864498
16.499508,7.341930228121444,0.1110360235269325
16.501888,7.365864785137699,0.1106163153930174
16.504284,7.387005845474619,0.1102227018892566
16.506667999999998,7.403071769132065,0.1098879434072148
16.509048,7.418997923162652,0.1095629789863785
16.511455999999995,7.431990810887044,0.1092696579424257
16.513840000000002,7.445123468238297,0.1089715137005511
16.516219999999997,7.457604499283491,0.1086713227652138
16.518623999999996,7.468083429582268,0.108393507527713
16.521012,7.480564460627462,0.1080929796693105
16.5927,7.188548840670023,0.1078709054833955
16.595079999999996,7.181845586154342,0.1078575498646912
16.597476,7.179006763504633,0.1078076198423379
16.599863999999997,7.17896143753426,0.1077354253402337
16.602244,7.1743528315636125,0.1077330586385864
16.604644,7.172677491899159,0.1077017957282106
16.607031999999997,7.176868684847095,0.107612733864343
16.609412,7.186926410407424,0.107465851081692
16.611815999999997,7.212209546006168,0.1071483390599572
16.614199999999997,7.241496883097746,0.1067884523108351
16.61658,7.271994925002821,0.1064108416045517
16.618983999999998,7.300211326907761,0.1060687907951169
16.621372,7.328008419932121,0.1057489415632827
16.623751999999996,7.365396707807982,0.1053399191534786
16.626156,7.39892056381787,0.1049695678209622
16.628543999999998,7.434678837999654,0.1046071762880339
16.630924,7.4684350114350195,0.1042698126679125
16.633319999999998,7.502191184870386,0.1039331673564078
16.635703999999997,7.531663617559197,0.1036527551575458
16.638087999999996,7.561415589501729,0.103361214024126
16.640492000000002,7.591586870324843,0.1030518339032767
16.642876,7.624319330401813,0.1027009408330126
16.645255999999996,7.654258293799449,0.1023717049797491
16.647660000000002,7.685035874958245,0.1020088297941651
16.650047999999998,7.717583239437982,0.101600366445935
16.652428,7.753343409477632,0.1011589363320584
16.654832,7.786589622091671,0.1007283012555923
16.657220000000002,7.816250942093454,0.1003196040135083
16.659599999999998,7.836972693549796,0.0999985070089336
16.662003999999996,7.857834214632994,0.0996745535291759
16.664392,7.875762469409999,0.0993761100703647
16.666772,7.892899328254084,0.0990763413123884
16.669176,7.910455495978752,0.0987597762744885
16.67156,7.924426771091165,0.0984626654069007
16.67394,7.937466880643799,0.0981705108848665
16.676344,7.948552111278262,0.0978616624578376
16.678728,7.95605244930047,0.0975699906632231
16.681108000000002,7.963832326576398,0.0972666127595319
16.683500000000002,7.971100347173129,0.0969497429263687
16.685888,7.977576971836942,0.0966336660417445
16.688268,7.983262200567836,0.0963183041869944
16.690663999999998,7.981590652619121,0.0960798421975007
16.693052,7.980058874297266,0.0958348644937578
16.695436,7.974755211908056,0.0956498686653039
16.697832,7.973315981384818,0.0954370083735951
16.700215999999998,7.966941383808968,0.0952646710330893
16.702599999999997,7.959356081419619,0.0951095545939811
16.704996,7.95270194459005,0.0949486846640367
16.70738,7.944185476640922,0.0947982850770056
16.709759999999996,7.931804576825823,0.0946756829978449
16.712159999999997,7.921565547383999,0.0945299143112821
16.714543999999997,7.91547048906187,0.0943442912729337
16.716924,7.905371229246908,0.0941918918575277
16.719327999999997,7.900207336484557,0.0940009764029952
16.721716,7.897976710028402,0.0937879396076962
16.724095999999996,7.894116069878168,0.0936097214917127
16.726492,7.895842423086602,0.0933998823855199
16.728879999999997,7.894076431481402,0.093234939477093
16.731263999999996,7.896966267675091,0.0930439505261583
16.73366,7.901578665361478,0.0928492273116752
16.736047999999997,7.906191063047864,0.0926549126033131
16.738428,7.915878597413723,0.0924162582441552
16.740823999999996,7.924495196592943,0.0921880413146456
16.743212,7.932460169466105,0.0919521763739427
16.745607999999997,7.93227696972674,0.0917879742068214
16.748004,7.933956101106932,0.0916135413330254
16.750391999999998,7.936845937300625,0.0914220429670992
16.752772,7.939596003867455,0.0912366401065313
16.755176,7.949143768606455,0.0910042423064858
16.757564000000002,7.960414094838151,0.0907672524716423
16.759943999999997,7.968331845883068,0.0905691362511487
16.762340000000002,7.97368841767413,0.0904114652953037
16.764727999999998,7.9846319828238626,0.0902237966426725
16.767108,7.991431576853901,0.0900751713628164
16.769512,7.997160235697299,0.0899377339367884
16.771900000000002,8.00316843379442,0.0897883244948611
16.774279999999997,8.005451969652425,0.0896590299157313
16.776683999999996,8.014021347003402,0.0894715372537523
16.779072,8.01779512692863,0.0893144836190675
16.781452,8.01863564054766,0.08917793350537
16.783848,8.017846140472612,0.0890750726269678
16.786236000000002,8.016916870770702,0.0889782642485265
16.788615999999998,8.022785299240962,0.0888375843992321
16.791012000000002,8.034380490696751,0.0886639538045145
16.7934,8.054915250697986,0.0884263620050689
16.79578,8.075310241072362,0.0881958105740006
16.798180000000002,8.096217088125934,0.0879787288035075
16.800564,8.118846496672203,0.0877592023298704
16.802943999999997,8.135329833352362,0.0875903299926553
16.805348000000002,8.15167340040566,0.0874272581500183
16.807736,8.170298607459095,0.0872377999130656
16.810116,8.187201253019833,0.0870508764499956
16.81252,8.200379236341462,0.086882756261368
16.814904,8.215559320409502,0.0867010093835281
16.817284,8.231670570037325,0.0865154122905407
16.819688,8.249364611530982,0.0863325773614573
16.822072,8.270783315263753,0.0861335543332365
16.824452,8.2931331845563,0.0859336865483628
16.826856,8.320278651274602,0.0857080872930212
16.829243999999996,8.350217614672237,0.0854707241232928
16.831623999999998,8.38485962769701,0.0851796248512501
16.834020000000002,8.418710244788862,0.0848884815632617
16.836408,8.444692228521907,0.0846483201252132
16.838791999999998,8.470022585948893,0.0844052467829918
16.841187999999995,8.487763849270795,0.0842007821648215
16.843572,8.50271161591336,0.0840080631638049
16.845951999999997,8.519149626623145,0.0837913191273854
16.848352,8.534144615093954,0.0835672064946795
16.850735999999998,8.550629847631981,0.0833170857270711
16.853116,8.569396720170145,0.0830444031831473
16.855511999999997,8.592307563828005,0.0827434509994324
16.8579,8.621364479351975,0.0824006793409565
16.860295999999998,8.65335466118214,0.0820427591888771
16.862699999999997,8.684413677452527,0.0816910444158212
16.865088,8.715752232976635,0.0813308229629885
16.867468000000002,8.749651967754597,0.0809407201284662
16.869864,8.77889587473367,0.080569749170724
16.872251999999996,8.799200213167298,0.0802509491196679
16.874636000000002,8.814988493428894,0.0799454584211346
16.877032,8.828123046638016,0.0796458512580156
16.879419999999996,8.836973859100583,0.0793817659960897
16.881803999999995,8.844893506003373,0.0791210841603266
16.8842,8.859890390332051,0.0788173184153774
16.886587999999996,8.86687887167506,0.0785603326163954
16.888971999999995,8.876660849697405,0.0782928837846533
16.891368,8.888584698093027,0.0780082974858076
16.893755999999996,8.898226906488512,0.0777468841898809
16.896136,8.90693794932422,0.0774889617890558
16.898539999999997,8.919653193652762,0.0772095349471293
16.900928,8.930506106861744,0.0769377086618477
16.903304,8.936144113764396,0.0767029768500697
16.905707999999997,8.93512419212174,0.0764950403774767
16.908096,8.928517277120413,0.0763047076793986
16.91048,8.916183599133557,0.076136666177845
16.912872,8.901847820400283,0.0759793900362799
16.915259999999996,8.87922409942762,0.0758756589594292
16.91764,8.857391774387876,0.0757736087869559
16.920035999999996,8.841845290841103,0.0756278414029458
16.922424,8.829883699906585,0.0754750958916316
16.924804,8.818061878598925,0.0753167918741105
16.927208,8.808381927664543,0.075142363426889
16.929592,8.802426638969276,0.0749566960244669
16.931972000000002,8.791675752848255,0.0747905590394553
16.934376,8.787862334526261,0.0745891449252968
16.93676,8.78418868583113,0.0743827405569448
16.939140000000002,8.779304332322502,0.0741890123882564
16.941536,8.773768352507814,0.0739877652839892
16.943923999999996,8.765950732692987,0.0738063952001675
16.946303999999998,8.754640768064526,0.0736586994857223
16.948704,8.74705546567518,0.0735006825798194
16.951088,8.741472264032247,0.0733323688099461
16.953468,8.7452007179871,0.0731389572205089
16.955864,8.756518266047037,0.0729204679710805
16.958252,8.775564677838924,0.0726715954736335
16.960631999999997,8.795542255190586,0.0724204620605574
16.96304,8.82245730034128,0.072135788070062
16.965424,8.851653985492108,0.0718321268803958
16.967804,8.881642066575857,0.0715336092145604
16.970208,8.906834550233853,0.0712525435394603
16.972595999999996,8.934820530571184,0.0709656995687079
16.974975999999998,8.961735575721876,0.0706875215641225
16.977376,8.986136663446953,0.0704087631550406
16.97976,9.009047507104812,0.0701512591468405
16.982143999999998,9.03316905557617,0.0698846836468706
16.984539999999996,9.060875496659785,0.0696162401591458
16.986924000000002,9.09165497367645,0.0693326352395151
16.989308,9.124948408118728,0.0690533295263094
16.991704,9.165319079986896,0.0687409237925553
16.994087999999998,9.203036024802593,0.068429208928015
16.996488,9.2331638755132,0.0681406352384413
16.998883999999997,9.261569164731114,0.0678524813155727
17.001267999999996,9.280523028724382,0.0675920661335267
17.003648,9.294681295291898,0.0673480729499006
17.006051999999997,9.304835360366582,0.0671224664650473
17.00844,9.314989425441263,0.06689720514174
17.010819999999995,9.324491864209891,0.0666657111788885
17.013216,9.334506159657714,0.0664475503571057
17.0156,9.34251835435912,0.0662386413295502
17.01798,9.35560568574,0.0660067358148935
17.020376,9.367761851561095,0.0657779865540063
17.022764000000002,9.376844981449144,0.0655633416369829
17.02516,9.384717406523688,0.0653599873513413
17.027563999999998,9.400226147531564,0.0651086276056295
17.029947999999997,9.409449047046468,0.064891133078522
17.032328,9.415366593202842,0.0646679393111472
17.034731999999998,9.420492743426296,0.0644429083017028
17.03712,9.423384475477857,0.0642049681661128
17.039499999999997,9.421620379730522,0.0639757610040868
17.041904000000002,9.425071190289522,0.0637208827441742
17.044292,9.433457367901136,0.0634490768571111
17.046672,9.444776811818942,0.0631692362245544
17.049068,9.459960687602724,0.0628790204653597
17.05146,9.47835736894642,0.062572178948734
17.05384,9.500106625476894,0.0622443408400799
17.056244,9.52599985312706,0.0619001869217632
17.058631999999996,9.551893080777228,0.0615581327221926
17.061011999999998,9.57448095506886,0.0612086929880011
17.063415999999997,9.595066728614078,0.0608659591875905
17.065799999999996,9.61257946622624,0.0605370212978886
17.068179999999998,9.629021268651762,0.060214694220297
17.070575999999996,9.653751013316674,0.0598578843612599
17.072964,9.676338887608306,0.0595111149503443
17.075344,9.692501150780108,0.0592001793437746
17.077748,9.711736449884969,0.0588763272924366
17.080135999999996,9.727339634549327,0.0585818406595444
17.082516,9.739590244026916,0.0583084510959908
17.084911999999996,9.75221294055684,0.05805191740181
17.0873,9.764416328206185,0.0578085660161805
17.08968,9.776200406974946,0.0575799914376851
17.092084,9.785563076116713,0.057371269417617
17.094471999999996,9.792923644512058,0.0571697560387489
17.096852,9.799213277720767,0.0569740398283657
17.099247999999996,9.800008465369425,0.0568090481440529
17.101636,9.796519912271524,0.0566651544474608
17.104016,9.786745517680655,0.0565483860713897
17.10642,9.77576041827629,0.0564410295076399
17.108807999999996,9.768080672230456,0.0563431590544402
17.111188,9.7625427965579,0.0562348013262698
17.113591999999997,9.75779631681826,0.0561298359102706
