Time,Force,Position
20.0465,4.933030226777895,0.1617326784964748
20.0489,5.000106202047222,0.1614281072434936
20.051288000000007,5.061411984218516,0.1609881269517548
20.053672,5.123699945493571,0.1601182036363448
20.056072000000007,5.169882344714411,0.1593395351281487
20.058460000000004,5.202146378224688,0.1586857256267462
20.09192000000001,5.218769484531707,0.158154048527191
20.09431200000001,5.2238899471815525,0.1581264862447298
20.096696,5.235296251324369,0.1579312090793304
20.10148,5.249401608490036,0.1577926395323964
20.108652,5.264855544238191,0.1577608706389048
20.111032,5.2812897632322375,0.1575055573931917
20.113432,5.303822832264152,0.1571555612630416
20.115820000000006,5.3291493979754,0.1567534804783045
20.118204,5.356338294806206,0.156307074670348
20.120600000000003,5.38445835719679,0.1558426259902829
20.122992000000004,5.4210061314536215,0.1551644748114767
20.125376,5.461837646457007,0.1543822088316712
20.127772,5.496151002541945,0.1537413382255057
20.13016,5.532234141947822,0.1530133824302121
20.132544000000003,5.566594719861003,0.1522977462003635
20.134944,5.5930866644153765,0.1517607833846829
20.137332000000008,5.624374206395502,0.1511338435165249
20.139720000000004,5.652216625390234,0.150568181694971
20.14211600000001,5.675542986212935,0.1500863211140319
20.14450800000001,5.694865145542803,0.1496957194556993
20.146888,5.712604513006834,0.149321132571948
20.14928800000001,5.730204110844005,0.1489559717089263
20.151676,5.745569290509281,0.1486058077248317
20.154064,5.764287045361334,0.1481654919164675
20.156464000000007,5.783144569840247,0.1477140648837536
20.158852000000003,5.793853921706632,0.1474514061661778
20.16124,5.804842812826738,0.1471760298637187
20.163640000000008,5.810664019468754,0.1469686632821766
20.166028000000004,5.817044304618212,0.1467223735615109
20.168416,5.819560157901695,0.146549479024591
20.177988000000006,5.791957639763916,0.1465312694902479
20.180376000000003,5.787583247076614,0.1464499795119101
20.182764,5.792567731815338,0.1461607217660674
20.185164000000007,5.791313596889335,0.1459639655955125
20.189952,5.77558201774533,0.1458494140492812
20.192352000000007,5.7660399405799385,0.1458356779685508
20.194740000000003,5.756637633041407,0.1458122119696313
20.19714,5.748865339196956,0.1457243823835483
20.20194,5.730991889679672,0.1456584029896239
20.204336000000005,5.721589582141141,0.145633126275377
20.209132000000004,5.703391267399764,0.1454929408451442
20.211532,5.695339434301591,0.1454223071086564
20.213936,5.686868292322839,0.1453800939314684
20.216332,5.684403452583336,0.1452146082474308
20.218732,5.680216051351137,0.1450709401389222
20.221128,5.676820046051857,0.1449209898016487
20.22352800000001,5.674355206312354,0.1447542810147538
20.225928000000003,5.672122683998329,0.144619437922836
20.2331,5.64819760627142,0.1445762896332222
20.235488,5.642193199890039,0.1445554528028306
20.237884,5.644848822800385,0.1443724063448688
20.240276,5.649646316084005,0.1441392217544222
20.242664,5.655235205300545,0.1439004829933667
20.24506,5.660544555263364,0.1436827527770645
20.247464,5.6647829700395445,0.1434897738156623
20.249848000000007,5.672466507801117,0.1432534596610418
20.25222800000001,5.679079110376051,0.1430426256130555
20.254632000000008,5.684341238510627,0.1428783022412562
20.257016,5.695841986309931,0.1426238058001146
20.259396,5.70291922373582,0.14247806783012
20.2618,5.7095771522811285,0.1423595377627919
20.271352,5.723867605044028,0.1423428575987128
20.273736000000007,5.732013881798686,0.1423143883523614
20.276132,5.744396677471656,0.1422402182617352
20.278516000000003,5.761575070570378,0.1420779303215944
20.28089600000001,5.77619228441524,0.141993078274927
20.283304000000008,5.792392290125939,0.1418969093368879
20.285692000000004,5.806729964717083,0.141833257263471
20.288072000000007,5.821859035241144,0.1417665415161203
20.290468,5.836196709832287,0.1417061635750104
20.292856000000008,5.85011507554285,0.1416743492054349
20.295236,5.869760204238943,0.14154842711666
20.29764000000001,5.887543001815478,0.1414520411629596
20.300024,5.905465569018874,0.141346316249857
20.302404000000003,5.922596740289352,0.1412479679042998
20.304808,5.94121815562705,0.1411033316371445
20.307196,5.965985642830858,0.1408399028770454
20.309576,5.997178741154496,0.1404442702567529
20.31198,6.035449076904025,0.139924246047658
20.31436800000001,6.075069887093911,0.139368696594391
20.316744000000007,6.119114207657214,0.1387141143062771
20.31914,6.160644570794901,0.1380872800742055
20.321528000000008,6.200080285387553,0.1374638592328096
20.323908,6.2323462147557,0.136936379637321
20.326304,6.265031453004428,0.1363868381976918
20.328688000000007,6.3002778705070135,0.1357677988940207
20.33106800000001,6.332358704277926,0.1351673132345242
20.333472000000008,6.36471907730256,0.1345541179143467
20.335860000000004,6.395496658461357,0.1339572124741455
20.33824000000001,6.426134469993293,0.1333692533165016
20.340644000000005,6.455049720032535,0.1327980384695341
20.343032,6.475304940780048,0.1323599936283835
20.345408,6.493977369661726,0.1319286747557188
20.347816,6.514931438543543,0.1314498942626678
20.350200000000008,6.530158744439829,0.131052403296749
20.352584,6.539379748096863,0.1307575934577127
20.35498400000001,6.542222362462311,0.1305442669341335
20.357368,6.539198444215368,0.1304240495926409
20.359748000000003,6.529004740743919,0.1303855376522656
20.362144000000008,6.518299180593272,0.1303335884814095
20.364532000000004,6.506010828576788,0.1302882166251189
20.366912000000006,6.495072951000665,0.1302062024514242
20.369308,6.481713663797542,0.1301802243521221
20.371696000000007,6.471147873273756,0.1301185604027822
20.388416,6.366179336880847,0.1300810468149968
20.390812000000004,6.349514696319192,0.130077587073297
20.393196,6.340718689116344,0.1299530757660373
20.395576,6.32978081154022,0.1298677999920402
20.397972000000003,6.325361092882544,0.1297004013641558
20.40036,6.32587674127748,0.1294576441493557
20.402756000000004,6.329837512657809,0.1291833684079376
20.405152000000008,6.334729449597917,0.1288970170262187
20.407540000000004,6.34213534396364,0.1285919395183278
20.409920000000007,6.348050994262142,0.1283323593737355
20.412324000000005,6.350334530120148,0.1281559280131788
20.414708,6.351407361164656,0.1280080286527135
20.417088,6.356763932955719,0.1277811224619656
20.419484000000004,6.35597443288067,0.1276558587017748
20.421872,6.358769825417873,0.1274924367252953
20.424252000000003,6.360354513141579,0.1273569107446451
20.426656,6.364453158290899,0.1272045152778442
20.429044,6.369622738626857,0.1270323253657492
20.43142,6.382241643441041,0.1267670041768765
20.433816,6.396163800867343,0.1265128114258565
20.436204,6.416604117212092,0.1261797713049858
20.438584,6.43797559911662,0.1258351086932177
20.440980000000003,6.452269843595258,0.1256066128835712
20.443368,6.467635023260535,0.1253602686337359
20.445764000000004,6.483559281433252,0.1250856826310967
20.44816000000001,6.496550273299776,0.1248529943159109
20.450544,6.509820804420018,0.1246061015272805
20.452924000000003,6.526024601846456,0.1243217836760515
20.455324,6.539946759272755,0.124082389933692
20.457708000000004,6.554008686325918,0.1238354153909392
20.460092,6.573285519685411,0.1235033294789492
20.462488,6.589349547484989,0.1232244465736823
20.464872000000007,6.602712626403849,0.1230152260452441
20.467268,6.627576453122012,0.1226198403342168
20.469664,6.65071771834748,0.1222426345832524
20.472052,6.675861084319363,0.1218370595196801
20.474436000000004,6.696348622492356,0.1214869552759745
20.476840000000003,6.717907095851987,0.1211206155224425
20.479228,6.740024647719057,0.1207302010156057
20.481608,6.760559407720294,0.1203464368416694
20.484012,6.778719979922775,0.1199753213087948
20.486396000000006,6.798882652871673,0.1195796589071643
20.48878,6.8181141602607935,0.1191913114423517
20.491176000000003,6.840139164329248,0.1187792278514205
20.49356000000001,6.860953463584203,0.1183958531778276
20.495944,6.885492425078272,0.1179770341035743
20.49834000000001,6.9091002210125625,0.1175698288419435
20.500728,6.92977475064066,0.1172011333607799
20.503104,6.954453481761589,0.1167827672419388
20.50550400000001,6.9834159536290725,0.1163050692521082
20.507892000000005,7.0114472599367765,0.1158408413584169
20.510272000000008,7.046835342924092,0.1152733390811405
20.512668,7.086274849232484,0.1146204858809347
20.51505600000001,7.118497348488126,0.1140733206458534
20.517436,7.149788682183989,0.113537467860793
20.519832,7.18443259106663,0.1129565373474766
20.52222,7.220938831068826,0.1123597830768084
20.5246,7.258236467003941,0.1117665813204901
20.526996000000004,7.289527800699805,0.1112455153794806
20.529384,7.321098673649389,0.1107123255885472
20.531780000000005,7.350899763278035,0.1102300794974195
20.53417600000001,7.379909456973761,0.1097536935946066
20.53656,7.414134056975819,0.1092129219840255
20.538940000000004,7.438907231753235,0.1087574156229786
20.54133600000001,7.460607370597596,0.1083389943638831
20.543724000000005,7.476580746456425,0.1079749707314551
20.613012000000005,7.232277408183814,0.1078930253718192
20.6154,7.239399971580076,0.1078851887744306
20.61779600000001,7.250386966842313,0.1078402547024352
20.620192,7.266401876955778,0.1077774523069221
20.622580000000006,7.280973764830269,0.1077099225412126
20.62496000000001,7.300481019757371,0.1075934867967247
20.627364000000007,7.328368764722478,0.107412903794693
20.629748,7.355976970433863,0.1072465149661511
20.63213200000001,7.385075420212469,0.1070458993818342
20.634528,7.419668315551126,0.1067723825743315
20.636916000000006,7.455332146076422,0.106489620312467
20.63929600000001,7.490484119922522,0.1061976029919548
20.641692,7.5252640067162835,0.1058881457908359
20.644079999999995,7.560742741644346,0.1055482301724966
20.64646,7.594126828027374,0.1051995801771466
20.648856,7.63007209366426,0.1048085001207437
20.651244,7.6700215607939795,0.1043823775547634
20.653624,7.709598940871362,0.1039410901687777
20.656028,7.748152607590349,0.1034796627524304
20.658415999999995,7.793271655056027,0.1029380225845686
20.660796,7.838018615469369,0.1023798998763629
20.6632,7.880903244763154,0.101835744098121
20.665588000000007,7.922065312564242,0.10130162464787
20.66796800000001,7.95927040070074,0.1007727096480276
20.670368000000003,7.997825963277596,0.1002218587449712
20.672752,8.028932201376225,0.099724523444204
20.675132,8.05272888462349,0.0992751007430472
20.677536,8.075362084885496,0.0988083267481635
20.679924000000007,8.1009285514537,0.0983208852194245
20.68230400000001,8.121187563916953,0.0978620829932768
20.6847,8.136650978954453,0.0974398528264035
20.687088,8.153185329178594,0.0970090497163567
20.689468,8.167857348283176,0.096589648416603
20.691864,8.181598201827983,0.0961775778044166
20.694252,8.195199285745929,0.0957722614354184
20.696632,8.20558756410396,0.0954029727449457
20.699036,8.211320014663096,0.095063317059574
20.701424,8.218123400408874,0.0947144514016606
20.703804,8.223064455035093,0.0943770722964159
20.706204000000007,8.219997106675645,0.0941054419901036
20.708588,8.218000693502836,0.0938233252032277
20.710968,8.21549242365083,0.0935283618727136
20.713376000000004,8.213263693052543,0.0932220917527021
20.715764,8.20861355282726,0.092948055765726
20.718144,8.20116991592264,0.0926892019150875
20.720540000000007,8.196519775697356,0.0924142005463849
20.722928000000003,8.190658930658573,0.0921545952738539
20.725308000000005,8.180374575246375,0.0919434660095446
20.770720000000004,7.7857890782285955,0.0918358267294837
20.773104,7.793285624535065,0.0917608796566774
20.775484,7.807719638640565,0.0916348446839901
20.777880000000003,7.828951350918232,0.0914644874786783
20.780268,7.858982862114484,0.0912345587581001
20.782648,7.891296013310875,0.0909760166237213
20.785052,7.923609164507264,0.0907174744893427
20.78744,7.957784646823212,0.0904482160834312
20.78981600000001,7.9920998987660195,0.090173431253728
20.792216000000003,8.025204445895326,0.0899146440215099
20.794604,8.057377827464856,0.089660232899874
20.796984,8.0932758712735,0.0893869194615337
20.799380000000006,8.131176015828558,0.0890994823345138
20.801768000000003,8.164001023704147,0.0888529108080848
20.804164000000007,8.192309973407703,0.0886231937500987
20.80656,8.22089846236498,0.0883831935463723
20.808944000000004,8.24776438982956,0.0881459507174814
20.811328,8.271045424681887,0.0879249909410714
20.813724,8.284735264682709,0.0877634517326925
20.816112,8.299263722444694,0.0875676977839938
20.818492,8.309136352407789,0.087396647959109
20.820888000000004,8.310721040131494,0.087298251936808
20.823276,8.308441295989224,0.0872243884696085
20.825660000000006,8.297361752928373,0.0872084645511824
20.828056,8.285490813934599,0.0871904530708304
20.830444000000007,8.277204767553082,0.0871602777763651
20.832828,8.270408965238783,0.0871033154354425
20.835224000000004,8.26496363736484,0.0870253317457355
20.837612,8.259937618371481,0.0869306058498035
20.839996000000006,8.257472778631978,0.0867996800043904
20.842392,8.257708887773196,0.0866272517926245
20.844776000000003,8.258224536168132,0.0864447330621335
20.847159999999995,8.256086457510593,0.0862693362283787
20.849556,8.260653529226607,0.0860257948763731
20.851944,8.272297838368509,0.0857319351044965
20.854328,8.283010981950632,0.0854429806212589
20.856724000000007,8.301220671839225,0.0850902481757133
20.859112000000003,8.317148721727682,0.0847613215063807
20.861508000000008,8.341224944228665,0.0843730738063026
20.863904,8.364742088222208,0.0840078913016291
20.86629200000001,8.390401102589028,0.08362489412636
20.868672,8.421834101769623,0.0831806275974423
20.871068,8.454338036136853,0.0827291166430224
20.873456,8.492476185691,0.0822199455206857
20.875840000000004,8.523676867446115,0.0817559453369398
20.87823600000001,8.551432426215838,0.0812985588255702
20.880624000000005,8.578908445731841,0.0808546219916774
20.883004000000007,8.606384465247844,0.0804133529981629
20.8854,8.635443276629683,0.0799781874238955
20.887788000000008,8.660218347264967,0.0795783519598753
20.890168,8.682292469019535,0.0792186726231765
20.89257200000001,8.700222619654408,0.0788894414194513
20.894960000000005,8.71708183510264,0.0785682118810175
20.897340000000007,8.730308936110381,0.0782911200794488
20.899736,8.740602770811925,0.0780312921514035
20.902124000000008,8.751827771073247,0.0777688722065771
20.904508,8.752483189095043,0.0775869447317077
20.906904000000004,8.758213743796311,0.077373349236215
20.909292,8.761942197751162,0.0771728011361337
20.911672000000003,8.762597615772957,0.0769916010827081
20.914068000000007,8.7601799978617,0.07683031297025
20.916456000000004,8.752267934390387,0.076716075582973
20.918852000000008,8.738349568679824,0.0766359322878695
20.921252000000003,8.726665621141157,0.0765667734513085
20.92363600000001,8.71977727102824,0.0764769082422674
20.92602,8.7155426479678,0.0763830209431564
20.92841600000001,8.711168255280496,0.0762943953528199
20.930804,8.707445488899253,0.0762131939870612
20.933184000000004,8.70265178733137,0.076140185165457
20.93558000000001,8.705726719122296,0.0760289157289897
20.937968000000005,8.707730715726582,0.0759252248788659
20.940348000000007,8.710665877890646,0.0758182454302139
20.942748,8.718396637480463,0.0756918267733831
20.945132000000008,8.726406936323999,0.0755553754698553
20.947512,8.733997926286953,0.0754343563101927
20.94991600000001,8.742240542555967,0.075321172319296
20.952304000000005,8.757560396250872,0.0751671082360305
20.954688,8.766734178079664,0.0750507510831001
20.957084,8.77348655028146,0.0749605074300704
20.959472,8.786524763976225,0.0748280968418691
20.961852,8.805569279910241,0.0746646003890715
20.964256,8.828617997337092,0.0744801237275183
20.96664400000001,8.861537448869166,0.0742483871598685
20.969024,8.88952153334863,0.0740419126817704
20.97142,8.911499315588838,0.0738665939207214
20.973812,8.928401961149577,0.0737199808834695
20.976192000000005,8.945584145964038,0.0735642322203206
20.97858800000001,8.96118353891266,0.073404758850727
20.980976000000005,8.973989435181949,0.0732532980638317
20.983356000000008,8.984001834771902,0.0731115482069169
20.985756,8.998158205481552,0.0729446883069373
20.98814000000001,9.017669252124389,0.0727416349028227
20.990524,9.034386802087894,0.0725474583772186
20.99292400000001,9.054177387984454,0.0723375939992117
20.995308,9.075178678694511,0.0721160911055792
20.997692000000008,9.089661810486126,0.0719109835125256
21.000088,9.102422380785042,0.0717069065266223
21.00247600000001,9.119746231084228,0.071463878454548
21.004856,9.13776892951772,0.0711962767237352
21.007252,9.152858361645016,0.0709425230806278
21.00964,9.161801721906198,0.0707231047718338
21.01202,9.167020419928267,0.0705132083586424
21.01442000000001,9.16609304608423,0.0703371817573589
21.016804,9.16558498112077,0.0701464630645293
21.019200000000005,9.169640196157586,0.0699171828177547
21.0216,9.178118921567815,0.0696544885201903
21.023988,9.185526711791406,0.0693995337235073
21.026368,9.19186356682836,0.0691516924523832
21.028768000000007,9.20141322742523,0.0688830053069571
21.031152,9.207238225782984,0.0686234254313218
21.033536000000005,9.211620201901765,0.0683547458078463
21.035931999999995,9.208133544661736,0.0681172456968094
21.03832000000001,9.203064095555868,0.0678739097792728
21.040704,9.192267883464474,0.0676473547751748
21.043100000000003,9.18082004506702,0.0674133458273909
21.045488,9.17486665222962,0.067139837701869
21.047868,9.16998419457886,0.0668600189075209
21.05026400000001,9.164822197674376,0.0665903328270733
21.052652,9.161242992635731,0.0663265062121209
21.055032000000004,9.158455183530004,0.0660659497778725
21.057432,9.157949014424416,0.0657872400070771
21.059816000000005,9.158374010878603,0.0655060596433317
21.062211999999995,9.159358085840232,0.0652055962712766
21.064608,9.161133556734782,0.0649080494440867
21.066996,9.164352049868304,0.0646221740968225
21.069376,9.168641478188468,0.0643313883914841
21.071772000000003,9.172930906508627,0.0640408652203263
21.07416,9.179362205202066,0.0637382024511856
21.07654,9.182440928708733,0.0634589404022977
21.07893600000001,9.18724221370809,0.0631809122598872
21.081328000000006,9.192415585759786,0.0629206207568842
21.08370800000001,9.204386655983653,0.0626405556541327
21.086108000000003,9.219802849192911,0.0623644229541571
21.088496,9.240806035760835,0.0620802253155576
21.090876,9.258596416768851,0.0618140696129625
21.09327200000001,9.27755028076212,0.0615696835959624
21.095656,9.296084835874808,0.0613403019205288
21.098040000000005,9.314619390987495,0.0611121855166797
21.10043600000001,9.33115184535377,0.0608916771136111
21.102824000000005,9.34768429972004,0.0606721085959343
21.10522,9.36514791964609,0.0604521882403331
21.107616,9.384613640318555,0.0602258130334006
21.110004,9.40445144804336,0.0600166452823505
21.112384,9.424289255768162,0.0598079860865809
21.114784000000007,9.443335667560047,0.0595973173947331
21.117172000000004,9.460100439351796,0.0594037526323352
21.11955200000001,9.475142649650843,0.0592080576063716
21.121948,9.48790321994976,0.0590285502616794
21.124336000000007,9.504156135062312,0.0588235841613514
21.12671600000001,9.522271381294418,0.058617367587368
21.129124,9.539874770847328,0.0583995856585554
21.131508000000004,9.54946975741457,0.0582078332554268
21.133892,9.559204513608671,0.0580127925621179
21.136288,9.56493506830994,0.0578311653877211
21.138672000000007,9.574669824504044,0.0576367166281305
21.141056,9.580959457712751,0.0574374339525416
21.143452000000003,9.584595363868988,0.0572364549476661
21.14584,9.586229169278806,0.0570419226723944
21.14822,9.590284384315623,0.0568282080853581
21.150616000000007,9.59368797304638,0.0566070414253397
21.153004000000003,9.593087360284304,0.0563977480677749
21.155384000000005,9.59155558196245,0.0561896222976891
21.157779999999995,9.591653817334674,0.0559591244538037
21.16016800000001,9.594033692707034,0.0557147312712899
21.162552,9.59254913621342,0.0554773494465716
21.164948000000003,9.59106457971981,0.0552400788372303
21.167336,9.593444455092174,0.0549959499480957
21.169732000000003,9.597966200837812,0.0547419897631685
