Time,Force,Position
17.512231999999997,3.483577788718895,0.196902973055483
17.51462,3.693565875048699,0.1897542978088084
17.516999999999996,3.884981663726919,0.1839017569850485
17.519396,4.055403745126556,0.1796219999811226
17.521783999999997,4.21395678339029,0.1758592844526902
17.524164,4.360174247809298,0.1725867625795779
17.526559999999996,4.494382899465544,0.1696645375248984
17.528951999999997,4.611554823507797,0.1671970955952747
17.531332,4.703122538442954,0.1655240779162158
17.533727999999996,4.78286653621258,0.1641000928201843
17.536116,4.8510663560703975,0.1628594999645145
17.574364000000003,4.866057552825467,0.1621282576016506
17.57676,4.875786621445961,0.1620532790996215
17.579147999999996,4.890590826745928,0.1618375585140893
17.581528,4.906093880180196,0.161566336458313
17.583931999999997,4.9230871776816825,0.1612313551398725
17.586315999999997,4.940452562235508,0.1609174368627557
17.588696,4.961822148282165,0.1605065926801049
17.591099999999997,4.987288483620274,0.1600362279646321
17.593483999999997,5.02006437380975,0.1594114274265126
17.595864,5.055866078104037,0.1587748031829749
17.598259999999996,5.094693596503137,0.1581296723499528
17.600648,5.134312510835155,0.1574886644718276
17.603023999999998,5.178587252966064,0.1567408417766022
17.605427999999996,5.228169449201924,0.1558975010467424
17.607816,5.273887213571809,0.155162967828514
17.610196000000002,5.317742646822139,0.1544762104479406
17.612588000000002,5.357641100407877,0.1538401377476127
17.614976,5.389718142463051,0.1533311609938753
17.617356,5.420259614480631,0.1527914717761649
17.619756000000002,5.45499227944615,0.1521071489451792
17.62214,5.492146354038666,0.1513555640127619
17.624519999999997,5.525947853444406,0.1507052785508731
17.626936,5.5597493528501465,0.1500565719299493
17.629323999999997,5.596716435987559,0.1493900736219211
17.631704,5.634986771737085,0.1487392704009749
17.634104,5.678099926740609,0.1479512477680598
17.636491999999997,5.713344448385325,0.1473298295364815
17.638872,5.745935242977565,0.1467485894453435
17.641275999999998,5.778386267942946,0.1461900352610332
17.643664,5.809394270669351,0.1456473799833128
17.646043999999996,5.837516228917805,0.1451224634121124
17.648448000000002,5.862844690486923,0.1446478269375044
17.650835999999998,5.888452691309761,0.1441585025221005
17.653216,5.910475799520346,0.143723951771961
17.65562,5.931195655118816,0.1432845285967399
17.658004,5.952754128478447,0.1427944130107385
17.660387999999998,5.97324166665144,0.1423267842750836
17.662791999999996,5.997034558182965,0.1418204286838532
17.665176000000002,6.019709292699607,0.141389673270338
17.667555999999998,6.039683078335533,0.141053615022334
17.669959999999996,6.059936403225179,0.1407079405658267
17.672348,6.080189728114824,0.1403609912678158
17.674728,6.103236549683804,0.1399750423796509
17.677124,6.121627543453894,0.1396629054844993
17.679508,6.138994823865588,0.1393308086908589
17.681891999999998,6.152497672411308,0.1390676159059576
17.684288000000002,6.170284261703583,0.1387129506169234
17.686672,6.19328575730219,0.1382591815219591
17.689056,6.209769093982349,0.1379001816400018
17.691451999999998,6.222667538050255,0.1375886482816564
17.69384,6.231561780625326,0.1373481926655875
17.696219999999997,6.240316253573538,0.1371157895033894
17.698624000000002,6.248232108760589,0.1369357394559036
17.701008,6.258289834320917,0.1367123238502212
17.703392,6.27007012137394,0.1364721348182021
17.76074,6.191077881140465,0.1363950312379741
17.763143999999997,6.184002539572446,0.1363874445577167
17.765532,6.192384925468319,0.1361464252372935
17.767912000000003,6.207425239909502,0.1358121921601402
17.770308,6.226097668791181,0.1353875483728226
17.772692,6.240486356926307,0.1350458054774394
17.775076,6.262464139166518,0.1345920331169221
17.777471999999996,6.285373086966507,0.1341244303987667
17.77986,6.302043415101768,0.1337298784858621
17.78224,6.314477224318719,0.1333728903286258
17.784639999999996,6.328121738349168,0.1329883642740735
17.787024000000002,6.339624382006342,0.1326427308267346
17.789403999999998,6.348473298611039,0.1323272597138566
17.791800000000002,6.361605955962292,0.1319274016568503
17.794184,6.369383937380351,0.131630196867002
17.796563999999996,6.375531905104332,0.1313900965539174
17.798968000000002,6.387638953239318,0.1310964117833871
17.801356,6.401189023613281,0.13080294620032
17.82524,6.339140963195183,0.1306372067121204
17.827644,6.331134456067386,0.1306371459710544
17.832411999999998,6.31893865184952,0.1306264868160153
17.834808000000002,6.318381469199949,0.1305312012207709
17.837196,6.319314530617597,0.1303913268794675
17.839576,6.3174540953559095,0.130287008816597
17.84198,6.323741832706748,0.1300473636423027
17.844364,6.3267242166990565,0.1298296668134117
17.846744,6.323607750653498,0.1296703533439085
17.84914,6.321050363115376,0.1294788367361226
17.851523999999998,6.323428342629869,0.1292137279007351
17.853907999999997,6.331393315503033,0.128878444136488
17.856304,6.332840129457746,0.1286239825583007
17.858691999999998,6.34136418083835,0.1282590653693743
17.861072,6.357756865577761,0.1277748914288973
17.863472,6.381738644422259,0.1271887191423003
17.865859999999998,6.406372049572814,0.1266128614978132
17.868256000000002,6.429282893230673,0.1260554781040889
17.870652,6.45354421132889,0.1254710529051728
17.873039999999996,6.473801327934275,0.1249484488214826
17.87542,6.494989610099437,0.1244188959796506
17.877816000000003,6.517528366704959,0.1238570429895948
17.880204,6.541277828123978,0.1232714211326208
17.882584,6.56409612398322,0.1227048158054302
17.884988,6.586495110961882,0.1221634160720344
17.887375999999996,6.61061665943324,0.1216100096294402
17.889756,6.636740308651015,0.1210405700380502
17.892151999999996,6.66765955529454,0.120413848846807
17.89454,6.701884155296599,0.1197682453978562
17.89692,6.735689446418078,0.1191498787143786
17.899316,6.761206795300168,0.1186560741362583
17.901704000000002,6.78700368343598,0.1181529518246089
17.904083999999997,6.816245694557184,0.1176207196310414
17.906480000000002,6.835057893065723,0.1172497422295628
17.908868,6.852938926014483,0.1168920841371665
17.911251999999998,6.8678866926570485,0.1165740193026544
17.913652,6.883905394486254,0.1162429314954607
17.916040000000002,6.902577823367932,0.1158937579358363
17.918419999999998,6.9151041803835,0.1156312085938644
17.920823999999996,6.930284264451544,0.1153476285566219
17.923208000000002,6.944672952586668,0.1150683903642214
17.925587999999998,6.96064443258763,0.1147885876364434
17.927991999999996,6.976848230014068,0.1145379033910225
17.93038,6.991561783373287,0.1143269667029262
17.932760000000002,7.007066732665424,0.1141149867952791
17.935164,7.024434013077118,0.1138877702876602
17.937551999999997,7.033513351249424,0.11377415252251
17.939932,7.042173380541149,0.1136830391455484
17.942327999999996,7.050973179459734,0.1135854566425637
17.944716,7.059121352072261,0.113482775768178
17.947096000000002,7.075277927670455,0.1132834341839907
17.9495,7.090084028828292,0.1131154157908664
17.951887999999997,7.108102935546043,0.1129028597135325
17.954268,7.133338849316544,0.1125946385737417
17.956671999999998,7.156432892713769,0.1123178429127052
17.95906,7.182320432790327,0.1120184948266353
17.961439999999996,7.203272605814275,0.1117757419738526
17.963836,7.220360346972248,0.1115741340302138
17.966223999999997,7.240893211115614,0.1113519332990863
17.968604,7.263567945632257,0.1111021501224422
17.971007999999998,7.283169644215845,0.1108906485189901
17.973391999999997,7.297044579813902,0.1107352398687186
17.975775999999996,7.310687197986482,0.1105548910305773
17.978172,7.322886793920087,0.1103703140237161
17.980559999999997,7.335226159480553,0.1101798054739773
17.98294,7.344632258734822,0.1100212214727935
17.985335999999997,7.35618022836237,0.1098313967931521
17.987724,7.3629326005641635,0.1096883108164797
17.990104000000002,7.370336599072016,0.1095516142359005
17.992496000000003,7.377461058326149,0.1094287320147335
17.994884,7.382443647207004,0.1093362814048938
17.997268,7.384632739408524,0.1092673966432004
17.999664000000003,7.383748795676988,0.1092358831593973
18.002048000000002,7.3828648519454525,0.1092044830443677
18.004444,7.38677650563967,0.1091282878972099
18.006839999999997,7.385892561908133,0.1090970046725157
18.009228,7.3870107189230145,0.1090437079094746
18.011608000000003,7.390270746311173,0.1089618860109883
18.014004,7.396231722580051,0.1088259492257051
18.016392,7.400470137356232,0.1086995698356826
18.018772,7.407641818438607,0.1085442245611053
18.021172,7.420540262506512,0.108337918659376
18.023556,7.432088232134061,0.1081594778019434
18.02594,7.44722109437386,0.1079594090863815
18.02834,7.464495826986935,0.107734207860269
18.030728,7.482981264413512,0.1074897202512941
18.033112000000003,7.503608572213364,0.1072184032000981
18.035516,7.52824008150605,0.1069042779244551
18.037904,7.55170810781348,0.1065741574582077
18.040288,7.577318004494187,0.1062187545399133
18.042692,7.60027417412242,0.105877794133087
18.045076,7.62523244449707,0.1055151266228677
18.047456,7.651401419685219,0.1051337096933903
18.04986,7.673426423753673,0.1048002169110813
18.052248,7.688002103343902,0.1045235649638412
18.054628,7.702577782934131,0.1042450063704954
18.057024,7.71636206659144,0.1039671189376511
18.059412,7.727213083942554,0.1037169881647594
18.061792,7.733780360547115,0.1035220264871547
18.09524,7.515032113695491,0.1034678188783309
18.09762,7.496457920186036,0.1034548611629981
18.100024,7.481748158542556,0.1034091061030174
18.102412,7.473184468765186,0.1032979729857699
18.104792,7.46727450604029,0.1031735142634262
18.107196,7.463506413688674,0.103023035339864
18.109584,7.460157630217637,0.1028531950870395
18.111964,7.458950717119876,0.1026572027014291
18.11436,7.458814739208755,0.1024481663982837
18.116748,7.463753897977105,0.1021889115991988
18.119128,7.467761891185678,0.1019353852160621
18.121524,7.482711553686113,0.1015806023669873
18.123912,7.507811489545492,0.1011242396950522
18.126292,7.537846792457484,0.1006236132322919
18.128692,7.566671390555976,0.1001441956780726
18.131076,7.592562722348273,0.099690851164656
18.133456,7.622458255633404,0.0992009505897326
18.135872,7.653564493732035,0.0986909140767838
18.13826,7.681457926270749,0.0982227307903247
18.14064,7.709351358809463,0.0977558041162071
18.143036,7.736173856161539,0.0973020624495892
18.14542,7.76034262646114,0.0968645691658646
18.1478,7.783440461574102,0.0964394214632214
18.150204,7.800531994447814,0.0960711545179585
18.152592,7.815900965828829,0.0957102177720951
18.154972,7.832852729075681,0.095351794021715
18.157372,7.851527053815229,0.094988956751004
18.159756,7.872063709674333,0.0946166869263354
18.16214,7.892460595906578,0.0942512016555139
18.164536,7.904988848780015,0.0939502148967798
18.16692,7.9203105983327875,0.0936325418494154
18.1693,7.929626045646309,0.0933699129179134
18.171704,7.932283564414521,0.0931528180444115
18.174092,7.93200781687654,0.0929581999737588
18.176472,7.930800903778779,0.0927687316008264
18.178868,7.934249818479911,0.092553228844286
18.181256,7.93234405724785,0.0923936524660296
18.183636,7.930950152694987,0.0922465486899718
18.18604,7.928485312955484,0.0921105231822056
18.188428,7.928022573962399,0.0919584743800503
18.190808,7.928211461275371,0.0918129763687457
18.193204,7.925699399707627,0.0917133038407571
18.195592,7.926260374072936,0.0915863701071298
18.197972,7.928823449184662,0.0914429374840975
18.200372,7.9303155891097505,0.0913105516037889
18.202756,7.929154001982364,0.0911878527321376
18.205152,7.923988213362143,0.0910972862022781
18.207556,7.912955892129532,0.0910492284061451
18.20994,7.904205210897059,0.0909728465667829
18.212324,7.900250127090339,0.0908648592864153
18.21472,7.895084338470118,0.0907738720928414
18.217108,7.888987384290119,0.0906877526875547
18.219488,7.882610890856402,0.0906131711122061
18.221888,7.877165562982462,0.090533372622901
18.224272,7.874933040668438,0.0904207542292372
18.226656,7.869767252048218,0.090329166106718
18.229052,7.871166844174689,0.0901668269972459
18.23144,7.874987845928158,0.0899718439392194
18.23382,7.882161422868403,0.0897395017915926
18.236216,7.889195230181788,0.0895146993847987
18.238604,7.896368807122032,0.0892841680693666
18.240984,7.910107764808968,0.0889858900269167
18.243388,7.922636017682405,0.0887056409886987
18.245776,7.93595566648876,0.0884273749675664
18.248156,7.950346250481753,0.0881388127954581
18.25056,7.964317525594168,0.0878668846856447
18.252948,7.984155333318971,0.0875562727919935
18.255332000000003,8.008788738469526,0.0872156124186056
18.257728,8.029929798806446,0.0869188086380452
18.260116,8.049860154329867,0.0866389478348138
18.262496,8.073003315413203,0.0863302741917563
18.264896,8.096658333175736,0.0860340683342238
18.26728,8.12468963948344,0.0857273643547442
18.26966,8.154303737656983,0.085424703482291
18.27206,8.180425491016889,0.0851651358995724
18.274448,8.209620280309847,0.0848833476175075
18.276828,8.235043185535453,0.0846562077937083
18.279224,8.260046781880476,0.0844485149852688
18.281612000000003,8.281558033411864,0.0842823645150801
18.283992,8.300136018637055,0.0841350960670088
18.286388,8.319645169422028,0.0839842505655932
18.288776,8.335661975393363,0.083875295930289
18.29116,8.350747615804918,0.0837708190065238
18.293556,8.367695587336033,0.0836593680954471
18.295944,8.385574724426924,0.0835446926809635
18.298324,8.40773760226437,0.0833932276395011
18.30072,8.426827444168762,0.0832654027871789
18.303108,8.447919386819569,0.0831258689820047
18.305488,8.475297170963346,0.0829382946710777
18.307888,8.502674955107123,0.0827507203601507
18.310272,8.52376689775793,0.0826127965562266
18.312668,8.545138379662458,0.0824641422530665
18.315064,8.564135673768229,0.0823115854998262
18.317452,8.582201802314225,0.0821634821566356
18.319836,8.602409801233495,0.0819973101597535
18.322232,8.616331958659798,0.0818801108746495
18.32462,8.631744360153318,0.0817381479440294
18.327,8.644083725713783,0.0816180724412856
18.329404,8.659635896834162,0.0814713659803078
18.331792,8.678772960566796,0.0813159142878666
18.334172,8.698049793926291,0.0811561138429726
18.336568,8.717606166539504,0.0809865942081174
18.338956,8.739304409525994,0.0808006071159793
18.341336,8.756346824713596,0.0806328764313339
18.343732000000003,8.775111801393892,0.0804647520936871
18.34612,8.788801641394716,0.0803301108003344
18.3485,8.803841955835896,0.0801770297279101
18.350896,8.816088773597745,0.0800351993078361
18.353284,8.823260454680119,0.0799267039240998
18.355664,8.831642840575993,0.0798049733231091
18.358064,8.847521772778336,0.0796250720146295
18.360452,8.865822114607678,0.0794196403407172
18.362848,8.884401995690741,0.0792049033128986
18.365244,8.89967652341527,0.0789875586267567
18.367632,8.917232691139937,0.0787505568194187
18.370012000000003,8.942564944424792,0.0784475838987021
18.372408,8.968316506590229,0.0781317165466932
18.374792,8.993835751330188,0.077793159830129
18.377176,9.015770103457896,0.0774626956734112
18.379572,9.031605605547735,0.0771384255633246
18.381956,9.047860416518157,0.0768009455776332
18.38434,9.059599169316543,0.0764727278061751
18.386744,9.068544425435595,0.0761543042402893
18.389132,9.080050860808509,0.075805211324362
18.391512,9.087320777263107,0.0754564415020476
18.393912,9.098083038531346,0.0750744803548875
18.3963,9.106191572747107,0.074696337984213
18.39868,9.11485918547031,0.0742992446988693
18.401084,9.121292380021618,0.0738898794741609
18.403472,9.125211617147311,0.0734788697718964
18.405852,9.123404091287474,0.07309022736078
18.408248,9.11852352949458,0.0727199340399522
18.410636,9.11364296770169,0.072349886581609
18.413016,9.11369777296141,0.0719574423822076
18.415412,9.110167685608875,0.0715712601885295
18.4178,9.101422691950011,0.0712178114089398
18.42018,9.087462791984814,0.0708944972602755
18.422576,9.079369424632006,0.0705481687610256
18.424968,9.074209323585396,0.0701899937145057
18.427348,9.070911553658338,0.0698253474498519
18.429744,9.064261208544508,0.0694865597113048
18.432132000000003,9.059333424923372,0.0691462512205832
18.434512,9.0533347061156,0.0688121340845711
18.436912,9.044774808053967,0.0685061618880709
18.439296,9.037797701858176,0.0682049951464726
18.441696,9.027607790102463,0.0679245593100003
18.444088,9.019931835772365,0.067647177351933
18.446476,9.011417263681109,0.0673988586513979
18.44886,9.00206407382869,0.0671782920667315
18.451256,8.996295776588523,0.0669543030833033
18.45364,8.989968400840917,0.066748941559342
18.45602,8.982430320279812,0.0665547662498691
18.458428,8.971399894905069,0.0663905496844386
18.460816,8.956877124716693,0.0662566967337888
18.463196,8.937511535274323,0.0661694110380964
18.465592,8.915864305831812,0.0661004620978843
18.46798,8.897941738628417,0.0660231374561172
18.47036,8.872382855491692,0.065998939993139
18.47276,8.846264893847525,0.0659938158307797
18.475148,8.823731824815612,0.0659851463804434
18.477528,8.804132022089892,0.0659654663863779
18.479924,8.79333201828276,0.0659135599987418
18.482312,8.787187842274516,0.0658522979601502
18.484692000000003,8.782766227758971,0.0657921020269023
18.487092,8.781277879549622,0.065721741959468
18.48948,8.783653963206245,0.06563945503587
18.491860000000003,8.788032147609284,0.0655493742359716
18.494256,8.793760806452685,0.0654433844057115
18.496644,8.803633436415778,0.0653158891965015
18.499024,8.812435131192231,0.065195678395041
18.501424,8.827382897834799,0.0650469789692815
18.503812,8.845124161156697,0.064893348135078
18.506208,8.872224301904627,0.0646930080543815
18.508604,8.901885621906409,0.0644665822874004
18.510988,8.939974653774442,0.0641935873078426
18.513372,8.98099695194867,0.0639101525757209
18.515768,9.02243855900348,0.0636137024017587
18.518156,9.070445546804978,0.0632751374363285
18.52054,9.118220217181,0.062916285853376
18.522936,9.167205592370522,0.0625505225893535
18.525324,9.21139537013429,0.062196610826989
18.527704,9.246785348979476,0.0618739825726864
18.530108,9.277519500025768,0.0615597629174978
18.532496,9.311745995885698,0.0612201942945139
18.534876,9.341316663946731,0.0608891433669327
18.537272,9.369956166447992,0.0605617250586351
18.53966,9.393800071523495,0.0602466743497165
18.542044,9.416852580666086,0.0599297849142577
18.54444,9.440184629062394,0.0596054054116702
18.546828,9.461002720033088,0.0592760680470745
18.549208,9.477025213578033,0.0589591147244786
18.551608,9.495608886376834,0.0586195701923599
18.553996,9.504182055443549,0.0583148305216157
18.556376,9.511404750069904,0.058025476794286
18.558772,9.515833948016928,0.057740551647947
18.56116,9.520822224471392,0.0574381985985943
18.56354,9.530606098351605,0.0571290109991622
18.565944,9.537596475552483,0.0568242187460565
18.568332,9.544307313499644,0.0565287990073171
18.570712,9.548084885140607,0.0562414748169553
18.573116,9.558939694207464,0.0559314748666967
18.575504,9.570865438460956,0.0556159107694416
18.577888,9.58572444902064,0.0552939880828837
18.580284,9.597789962900992,0.0549762052331059
18.582672,9.608644771967844,0.0546666168176569
18.585052,9.621501681781114,0.0543533128115421
18.587452,9.636360692340803,0.0540343420191114
18.58984,9.65094016364677,0.0537246908902457
18.59222,9.665379865325876,0.0534207239049229
18.594616,9.681262589243955,0.0531285372492876
18.597004,9.696074377975402,0.0528408797659582
18.599388,9.704600325213876,0.052578430730328
18.601784,9.71699070431832,0.0523089434255066
18.604172,9.729101544169046,0.0520482742101338
18.606552,9.74186401032583,0.0517965728631079
18.608952,9.75513833316181,0.0515582252860546
18.611336,9.761055879318183,0.0513493429989967
18.61372,9.764132706966976,0.051170914551157
18.616124,9.763996729055853,0.0510060453592273
18.618512000000003,9.761579111144597,0.0508545083911864
18.620892,9.757671249166116,0.0507211312950062
18.623292,9.756137574986392,0.0505996982935813
18.625680000000003,9.752462030433394,0.0504874022960016
18.62806,9.745014601813036,0.0504054465810053
18.630456,9.741012296178072,0.0503307100004312
18.632844,9.732586480169694,0.0502784628251566
18.635228,9.724812290467376,0.0502343752139898
