Time,Force,Position
22.627224000000005,3.681093049063914,0.1842608229448646
22.62961600000001,3.8903255861418273,0.1812314017026612
22.631996000000008,4.089691180830256,0.1785285663510508
22.634392,4.27946937238292,0.1759620573708535
22.63678000000001,4.45984715225492,0.173359702885334
22.639164,4.621233325594755,0.1711663986000414
22.641563999999995,4.759344151655872,0.1695950174249702
22.64395200000001,4.884235460140728,0.1681646653861896
22.646332000000008,4.995999798847938,0.1670242742540754
22.689344,5.238961967351048,0.1665258227132696
22.696508,5.253856824591763,0.1665081655455437
22.698912,5.26759009470509,0.1663253246768202
22.7013,5.283185695937974,0.1660997140333423
22.703684000000003,5.299480145305162,0.1658209113638429
22.706080000000007,5.318475543553066,0.1654370026367525
22.708464,5.339053733666806,0.1650365837614189
22.71084800000001,5.369036127176947,0.164490303885678
22.713244,5.4003217732992015,0.1639467134675975
22.715632000000006,5.431514871622841,0.1633532046436021
22.718016,5.460892860655168,0.1627455979816916
22.720412000000003,5.484544086701963,0.1622794365280097
22.7228,5.508986708681676,0.1618063724132511
22.72518,5.535663748833284,0.1613254169572358
22.72757600000001,5.55945474450694,0.1608572537741275
22.729964,5.579056443090528,0.160403188181127
22.732344000000005,5.598006515368057,0.1599556757805366
22.734744,5.618539379511424,0.1594957498016924
22.73712800000001,5.640143178841429,0.1590111925736538
22.739512,5.665751179664267,0.1584398651097134
22.741908,5.691266632688488,0.1578250212510605
22.744296,5.711334861980901,0.157310364201007
22.746692000000003,5.730332156086674,0.1568304455243673
22.749088000000008,5.754916443551116,0.1562518594128106
22.751476000000004,5.776287925455644,0.1557526462886383
22.75386,5.792072414001502,0.1553575893126315
22.756256,5.807764354748741,0.1549264455435284
22.758644,5.81307370471156,0.1547004960267463
22.761024,5.823318421726991,0.1543736876559642
22.763424000000008,5.835425469861978,0.1540127464483786
22.765812000000004,5.847672287623825,0.153641788172593
22.76819200000001,5.856893291280861,0.1532889943024896
22.770596000000005,5.8643917334452,0.1529610146123384
22.772984,5.865092477437371,0.1527715442220275
22.775364000000003,5.868958805161214,0.1525516030105134
22.777764,5.872405824004476,0.1523595024484279
22.780152000000008,5.86947445355615,0.1522787048107179
22.789700000000003,5.842385687955439,0.1521621069021368
22.796864000000006,5.813387369406928,0.1521243091553989
22.799264,5.803612974816059,0.1520872243307809
22.801652,5.799984652091301,0.151912823419306
22.804036000000004,5.793562832687208,0.1517877048170278
22.806432000000008,5.791564523656532,0.1515490671153365
22.808820000000004,5.781557811640185,0.1514796188007039
22.811200000000007,5.771271560370119,0.1514284631039321
22.8136,5.763499266525667,0.1513468838887379
22.815988,5.75810116047997,0.1512449975674074
22.818368,5.756148177419665,0.1510972973326043
22.820768000000008,5.761924058091307,0.1508014081486695
22.823156000000004,5.766768773203172,0.1505222737605779
22.825536000000007,5.775989776860206,0.1501820736719346
22.827936,5.792008478689411,0.1497099523615375
22.830324,5.801461799771923,0.1493989787698222
22.832704,5.81370861753377,0.1490403517853258
22.83510400000001,5.828469392721233,0.1486537774055181
22.837492000000005,5.846675290894088,0.1482248230810611
22.839876,5.86525327611928,0.1478199877928144
22.842272,5.884762426904252,0.1474013273324782
22.844664,5.904783434368421,0.1469940023760457
22.847048000000008,5.925456068138647,0.1465946991277104
22.84944000000001,5.941565421908599,0.1463134641109043
22.851828000000005,5.960328502731025,0.1459970411423477
22.854208000000007,5.97373690762026,0.1458016831647514
22.856612000000005,5.99007857881569,0.1455478003681856
22.859,6.00385907075726,0.1453695806357206
22.861380000000004,6.013076282698557,0.1453099116776787
22.863784000000003,6.026297696132687,0.1451703393804758
22.868552,6.04091490997755,0.1450779029921429
22.87094800000001,6.04854933005301,0.1450345502520121
22.873332,6.058744929382329,0.1449190319451151
22.875716000000004,6.066938427965231,0.1448438865979251
22.87811200000001,6.085421969533936,0.144562101059428
22.880500000000005,6.103905511102642,0.144283753955154
22.882880000000007,6.123180448604267,0.1440038309769398
22.885276,6.142734925359612,0.1437124221738073
22.887664000000008,6.164291502861375,0.1433887725271775
22.890044,6.187710411482692,0.143042506747445
22.89244800000001,6.2111293201040105,0.1426954617007156
22.894836000000005,6.23291821503125,0.1424060449069299
22.897216000000007,6.260573642570879,0.142020047841259
22.89962000000001,6.283153933431036,0.1417254037484414
22.902004,6.3126716920902215,0.1413090087925042
22.904388000000004,6.340978745935908,0.1409210667567959
22.90678400000001,6.373569540528149,0.1404422300366901
22.909172000000005,6.411934319934164,0.1398266806243654
22.911552000000007,6.444851875608369,0.1392899236157601
22.913948,6.477769431282573,0.1387512955005332
22.91633600000001,6.512689087703196,0.1381762018696407
22.918716,6.546537808937178,0.137630369229431
22.921112,6.571167422371995,0.1372582863118531
22.9235,6.593934704687257,0.1369137097141912
22.925884000000003,6.60855381438999,0.136720666252809
22.928280000000008,6.622101988906083,0.1365503863561678
22.930664,6.634718997862398,0.1363951055466945
22.933048000000007,6.644402740512518,0.1362880341546068
22.937828000000003,6.651013447229585,0.1362360122923258
22.940224000000008,6.654598339841838,0.1361942912322829
22.94262,6.661303490215389,0.1360566241093667
22.94500800000001,6.662701186483991,0.1359770684576492
22.947388,6.668522393126008,0.135808369557116
22.949784,6.672481268648467,0.1356654186259371
22.952172,6.680584115290621,0.1354510934233221
22.954552,6.688966501186495,0.1352231276679258
22.956956,6.698280052642147,0.1349876204760946
22.95934400000001,6.709316165590496,0.1347361459386413
22.961728,6.725939271897514,0.1344183558430208
22.964124000000005,6.74470424857781,0.1340659636848102
22.966512,6.758953167086076,0.1337616810868503
22.968892000000004,6.776414891154255,0.1333961666996881
22.971292,6.793876615222436,0.1330296076761853
22.97368000000001,6.817344641529867,0.1325727143110691
22.97606,6.839229875971461,0.1321234338986044
22.978460000000005,6.859951627427799,0.1316615609562641
22.980848,6.878950817391443,0.1312138989362297
22.983232000000008,6.895947906608669,0.1307941925997296
22.985628,6.916529888438147,0.13033452298044
22.98801600000001,6.935249539148068,0.1299022334489783
22.990396,6.950616614671215,0.1295386815272857
22.99279600000001,6.969708352433474,0.1291313498627586
22.99518,6.989451716501791,0.1287318565327556
22.997564000000004,7.009195080570109,0.1283346552730635
22.99996000000001,7.025493321653033,0.1279687273357909
23.002348000000005,7.038858296429762,0.1276441247784807
23.004732,7.044634177101405,0.1274137222090076
23.007128,7.052551928146324,0.1271484755325393
23.00952,7.055022455459434,0.126940852407417
23.011900000000004,7.054699486093209,0.1267653796151326
23.01429600000001,7.059731192660176,0.1265017830335594
23.016684000000005,7.06769616553334,0.1262009174077394
23.019064000000007,7.078314865458977,0.125877396065411
23.021464,7.082135867212445,0.1256403546277147
23.023852,7.089961070458748,0.1253497304952123
23.026232,7.094573468145135,0.1251102875978282
23.028628000000005,7.104633089563332,0.1248192193394229
23.031016,7.118277603593781,0.1244943950256648
23.033400000000007,7.131130721691313,0.1241731492003468
23.035796,7.141981739042427,0.1238792893891161
23.038184000000008,7.152832756393543,0.1235857645423777
23.040568,7.159819341878683,0.1233396298226018
23.042964000000005,7.163081265124712,0.1231332925028277
23.045352,7.164900166131765,0.1229254017965248
23.04774800000001,7.17044372937793,0.1226795971097678
23.050144,7.177849623743652,0.122414608838969
23.052532000000006,7.190562972214323,0.122104946646941
23.054916,7.198992579938442,0.1218631365573915
23.057312000000003,7.207282418035698,0.1216280387717852
23.0597,7.212359450573039,0.1214427716928158
23.06208400000001,7.215015073483383,0.1213066309338511
23.06448,7.216599761207089,0.1211879582869013
23.066868000000007,7.214739325945401,0.1210932342697689
23.06924800000001,7.214880991430131,0.1209717273941908
23.071648000000003,7.211018455422026,0.1209029729528632
23.074036,7.21381384795923,0.1207608352646314
23.076416,7.210882477510904,0.1206826939149961
23.078816,7.211163912622493,0.1205560171036889
23.081204000000007,7.210514182174305,0.1204384807487464
23.08358400000001,7.21535889728617,0.1202340125963578
23.085984000000003,7.220203612398033,0.120029715503201
23.088372,7.228772989749011,0.1197892653284578
23.09075600000001,7.240135863779323,0.1195213948997793
23.093152,7.254524551914448,0.1192536407077114
23.095540000000007,7.265420895235937,0.1190489760632404
23.09792000000001,7.276457008184286,0.1188386331994986
23.100316,7.283908228520382,0.1186569193348878
23.102704,7.295503419976171,0.1184193555407932
23.105084,7.309612568857576,0.1181695220296945
23.107488,7.32972801997823,0.1178463928156709
23.109876000000007,7.347561831098747,0.11756013017142
23.11226,7.364464476659488,0.1172837091146782
23.114656000000004,7.3848122452056195,0.1169862264878545
23.117044,7.407953510431087,0.1166635433956241
23.119424,7.430815236402832,0.1163532496251933
23.121820000000007,7.448601825695106,0.1161094048158618
23.124208000000003,7.469321681293575,0.1158321789257076
23.126591999999995,7.486688961705269,0.1156113887562385
23.128988,7.507641134729216,0.1153642916457728
23.131376,7.519746287006335,0.1152535510009019
23.133756,7.534644935962787,0.1151185703523917
23.136152000000003,7.552337081598576,0.114961380769409
23.13854,7.569889457607505,0.1148117803149737
23.140924000000005,7.585067645817679,0.1146681533102114
23.14332,7.602667243654849,0.114482630082712
23.14570800000001,7.617193805558966,0.1143346035437878
23.148092,7.63730736082175,0.1141391609318903
23.150488000000003,7.656489750524757,0.1139538611838255
23.152876,7.673158182802149,0.1137798021809824
23.15526000000001,7.686474039892766,0.1136565011472341
23.157656,7.703933868103077,0.1134820044859938
23.160048,7.723395797059805,0.1132866768041745
23.162428,7.742066330083614,0.1130941726440831
23.164828000000007,7.758734762361007,0.1129245535754972
23.167216000000003,7.780897640198453,0.1126802361349415
23.1696,7.802269122102981,0.1124354558535386
23.171996,7.821918042514811,0.1122002849321867
23.174384,7.842265811060944,0.1119347767101795
23.176764,7.8611705573681,0.1116679703493608
23.179160000000003,7.886640684421946,0.1113100635159958
23.181548,7.90945708442332,0.1109711151565578
23.183928,7.928968131066159,0.1106476066957749
23.18632400000001,7.947967321029801,0.1103138482807922
23.188712,7.966686971739724,0.1099929841708464
23.191108000000007,7.984475456889868,0.1096817478162488
23.193504,8.008270244279263,0.1093107833126438
23.195896,8.027688743123484,0.1089656903975705
23.198276,8.04589653715421,0.1086408665927919
23.200672000000004,8.06638597118507,0.1082846964490524
23.20306,8.088784958163734,0.1078800469421291
23.205444000000007,8.112674189209613,0.1074490378295685
23.20784,8.136703189882354,0.1070160205681161
23.210228000000008,8.159009629062398,0.1065911242408866
23.212612,8.181875146749883,0.1061431657793855
23.215008000000005,8.198454822944399,0.105767167495768
23.217396,8.219318239885466,0.1053418562103498
23.219776000000003,8.241112822386313,0.1049102562455004
23.222176,8.257412959327105,0.1045458346078941
23.224560000000004,8.271710995521483,0.1042013179605067
23.226944,8.284006930969444,0.1038774478505607
23.22934,8.295371700857626,0.103560112918166
23.231728,8.302732269252973,0.1032801975572506
23.234112000000003,8.312886334327656,0.1029830751768592
23.236508000000008,8.322528542723141,0.1026744695689107
23.238896000000004,8.328166549625795,0.1024023621302498
23.24128,8.330731520595391,0.1021627239276012
23.243676,8.332225556378349,0.101934610236151
23.246064,8.334138901041886,0.1016889922496511
23.248448000000003,8.335772706451703,0.101455999448754
23.250844000000008,8.33819790779444,0.1012240931236194
23.253232000000004,8.338341469137037,0.1010227922460557
23.255616,8.332618497867244,0.10086809451451
23.258012,8.331691124023205,0.1006788946490974
23.2604,8.333417477231642,0.1004790063899626
23.26278,8.339148031932908,0.1002449250542112
23.265176000000004,8.34259694663404,0.100040191040114
23.267568000000004,8.348839358014505,0.0998196579392123
23.269948000000007,8.361367610887944,0.0995366174610459
23.272348,8.375897964507798,0.0992374068509755
23.274732000000007,8.390428318127654,0.0989387813335192
23.277116,8.404818902120647,0.0986454113234581
23.279512000000004,8.422654609099034,0.0983405748603327
23.2819,8.435554949024809,0.0980758169754526
23.284284000000007,8.44910691525664,0.097817015053929
23.286684,8.467873787794806,0.0975082686273702
23.289072,8.485989034026915,0.0971948517859589
23.291452,8.506758007311497,0.0968707936876025
23.293852000000008,8.528318376528995,0.0965484105943901
23.296240000000004,8.54680570981344,0.0962533962485135
23.298620000000007,8.56100930235133,0.0960030323847634
23.301016,8.572559167836745,0.0957633715315476
23.303404000000008,8.58969602668083,0.0954911785202849
23.305784,8.596962151419692,0.0952946165585456
23.308184000000004,8.603157340971915,0.0951106134701591
23.310572,8.60870090421808,0.0949217997729358
23.312952000000003,8.616526107464383,0.0947069209935875
23.315356,8.620486878844712,0.0945187055068825
23.317744,8.621654153545705,0.094346135007563
23.320124,8.6228214282467,0.0941741625723714
23.32252400000001,8.622917767761056,0.0940125408781584
23.324912000000005,8.626087143208467,0.0938255097911805
23.327292000000007,8.629815597163319,0.0936173234513695
23.329692,8.637548252611003,0.0933790958182978
23.332076000000008,8.647422778431968,0.0931213625880165
23.33446,8.657437073879791,0.0928604805504306
23.336856000000004,8.665589038208058,0.0926089232185727
23.339244,8.678164512909738,0.0923148570071926
23.341628000000007,8.690879757238278,0.0920168406000393
23.344024,8.709089447126871,0.0916657148228998
23.346412000000008,8.73065171220224,0.0912801518286573
23.348792,8.75673003544964,0.0908791139048002
23.35119600000001,8.784298602764261,0.0904567662180873
23.353584000000005,8.823228148251324,0.0899453771157515
23.355964000000007,8.859503966685912,0.0894439810418145
23.358364,8.894429310680142,0.0889646697689501
23.360752,8.926141849114455,0.0885157198297388
23.363132,8.958133926802489,0.0880561371611139
23.365528000000005,8.994921601916277,0.0875742517131284
23.367916,9.027565305910368,0.0871240848600029
23.370296000000003,9.06235088027774,0.0866563265238169
23.372692000000008,9.093272022779136,0.0862115091576153
23.375080000000004,9.124984561213449,0.0857713189832754
23.377464,9.15176173259515,0.0853618656274323
23.37986,9.178678673603711,0.0849509608184588
23.382248,9.19917000349244,0.0845940132777732
23.384632000000003,9.221383894873869,0.0842343113784106
23.387028000000008,9.237311944762324,0.0839260666638178
23.389416000000004,9.251377663531224,0.0836262158708634
23.3918,9.263021972673126,0.0833563397627885
23.394200000000005,9.274246972934447,0.0831026579642483
23.396588,9.282678476516434,0.0828611337301052
23.398972000000008,9.28575530416523,0.0826630616728043
23.401368,9.284129082186888,0.0825150586437704
23.40375600000001,9.28515658726102,0.0823617946242446
23.406136,9.284321761215596,0.0822152029916921
23.408536000000005,9.286559971103229,0.0820486919068421
23.410924,9.288658411364002,0.0818869301841748
23.413308000000008,9.283819383825747,0.0817639428795812
23.415708,9.28591782408652,0.0816028022606377
23.418096,9.288016264347291,0.0814422082238059
23.420480000000005,9.29276843166054,0.0812764888841878
23.422875999999995,9.291234757480815,0.0811547881293238
23.42526400000001,9.2975697166599,0.0809925353301701
23.427644000000008,9.300552100652206,0.0808598704459327
23.430044,9.312474053189955,0.0806788993850884
23.432432,9.325978797593546,0.0805017813944009
23.434812,9.341345873116692,0.0803184419752699
23.437211999999995,9.359226906065455,0.0801358612174034
23.43960000000001,9.375897234200718,0.0799665477567181
23.441980000000008,9.393778267149475,0.0797856313274506
23.44438,9.41044859528474,0.0796174206925399
23.446768,9.431123124912837,0.0794274034205235
23.449148,9.449283697115318,0.0792371295096832
23.451547999999995,9.465581938198245,0.0790539733157669
23.45393600000001,9.48574461114714,0.0788541378312224
23.45632,9.502834248162982,0.0786737077399594
23.458716000000003,9.5225776122313,0.0784895679243406
23.461104,9.546045638538727,0.0782931383694023
23.463488000000005,9.566720168166825,0.0781077695799101
23.465888,9.58725492816806,0.0779282442990431
23.468276,9.61100249372921,0.0777278937121132
23.47066,9.641967066343112,0.0774839068939232
23.473056000000007,9.666785567090905,0.0772775803090268
23.475448000000007,9.69388570783883,0.0770521111702997
23.477832,9.714048380787728,0.0768613807953441
23.480228000000004,9.734770132244064,0.0766536592304423
23.482616,9.753629552580849,0.0764516486773399
23.485000000000007,9.770766411424932,0.0762512918242185
23.4874,9.7883225791496,0.0760374940861796
23.489788,9.800803610194794,0.0758509380080117
23.492168,9.815566281240129,0.0756455573127838
23.494568000000008,9.826324750792622,0.0754601476199289
23.496956000000004,9.84280998333065,0.0752552524847317
23.499336000000007,9.8571533454954,0.0750644800608787
23.501736,9.870705311727232,0.0748728616288326
23.504124,9.8882614794519,0.0746627439599555
23.506504,9.908099287176704,0.0744361056252471
23.508900000000004,9.931010130834563,0.0741949105605655
23.511288,9.94991677299959,0.0739724837856447
23.513668000000003,9.969754580724391,0.0737488603086302
23.516064000000007,9.982654920650166,0.0735561999116968
23.518452000000003,9.991690828709968,0.0733782513079816
23.52083200000001,10.002077211210128,0.0731846522873904
23.523228,10.01232382408343,0.0729962460455542
23.525616000000007,10.026993947330142,0.0727769262235004
23.52799600000001,10.03845126501694,0.072578348666516
23.530392,10.053121388263657,0.0723604459838915
23.532776000000005,10.069933381883644,0.0721303877481603
23.53516,10.087676541063416,0.0718990199356994
23.537556,10.113567872855713,0.0716296581731958
23.539944,10.138388269461371,0.071367817592549
23.542328000000005,10.167632176440446,0.07107652672411
23.544723999999995,10.193151421180405,0.0707958211500986
23.54711200000001,10.22188347148028,0.0704960982215807
23.549508,10.252757392153434,0.0701863604164672
23.551904,10.27590244909464,0.069901283419353
23.554292,10.294112138983232,0.0696363129526669
23.556672,10.305663900326518,0.0693900184055299
23.559076,10.323361733535917,0.0691156979631882
23.561464000000008,10.337334904506196,0.0688494193609731
23.563848,10.354101572155813,0.0685768217635706
23.566244000000005,10.371939174992068,0.0682983339727152
23.568628,10.388845612268549,0.0680220966861534
23.571008,10.402167156932776,0.0677489775361909
23.573404000000004,10.41320706159686,0.0674933923589249
23.575792,10.42452650551467,0.0672291379310994
23.578172,10.43398361831292,0.0669695839332404
23.580576,10.440227925551255,0.0667285139756708
23.582964,10.445261527976092,0.0664980370861648
23.585344,10.4433576626019,0.0662928808248592
23.587740000000004,10.44080217092165,0.0660809507499091
23.590128,10.435033873681483,0.0658867285408096
23.592512000000006,10.4272634756949,0.0656995876391384
23.594904000000007,10.416420041775265,0.0655254076231481
23.597296000000007,10.398499370429738,0.0653786839321215
23.599675999999995,10.385374296509964,0.0652192019804432
23.602072,10.373459927403688,0.0650494786643735
23.60446,10.36247672385719,0.0648774214127085
23.60684,10.348140945123914,0.0647269500296803
23.609240000000007,10.33487610157728,0.0645702460189589
23.611628000000003,10.323101502097863,0.064395273340386
23.614008000000005,10.3143999385515,0.0642078823756218
23.616404,10.310633742057751,0.0640055727332899
23.618792000000006,10.311523373362895,0.0637962194892513
