Time,Force,Position
18.361012,3.5484554052814605,0.1819131938222371
18.363408,3.709594094332864,0.1816865314234927
18.365812,3.869153783234173,0.1808970147471377
18.3682,4.018661434148759,0.1799509324715493
18.37058,4.154951463344955,0.1789635222452018
18.372976,4.276486404927296,0.1780522159366246
18.375364,4.384522289679656,0.17738061269847
18.377748,4.48557727652048,0.1766187821141779
18.380144,4.584354415076906,0.1755630111314493
18.382528,4.674335546430486,0.17446369987696
18.384912,4.743927374983298,0.173673720358628
18.387308,4.803325500064661,0.1729750272309253
18.389696,4.863005060257613,0.1721176897443883
18.392072,4.923897221121933,0.1710725106465346
18.394476,4.976318240007502,0.1700654384113641
18.396864,5.014122045048206,0.1692568451257701
18.399244,5.042708638147613,0.1685720503249267
18.401648,5.065568468261491,0.1680452771972039
18.404036,5.092245508413098,0.1674738976283848
18.406416,5.120505340430542,0.1668788100741044
18.408812,5.143457718343037,0.1664016582380579
18.4112,5.164268225882254,0.1659919991703794
18.413584,5.179816605286896,0.165801435326542
18.41598,5.200857534393722,0.1656031328402065
18.418372,5.228322178762509,0.1653791624739471
18.420752,5.263236147609523,0.1649937570173651
18.423152,5.298848964590838,0.1645599449812815
18.42554,5.335160629706453,0.1640794197322132
18.42792,5.372915317061045,0.1636144044486904
18.43032,5.411181861094836,0.1631709394578787
18.432708,5.4592265914352325,0.1624491229958491
18.435088,5.505363664685698,0.1616824982385835
18.437488,5.538232102673791,0.1611550413295795
18.439876,5.563511446556796,0.1607955295002927
18.442256,5.588603798984699,0.1605006739796264
18.44466,5.622216411077466,0.1600331380422822
18.447048,5.6607643902228455,0.1594579970363707
18.449428,5.699359591196468,0.1588293813824081
18.451832,5.738466648849288,0.1582178575906344
18.454216,5.7815306861667,0.1575745343326674
18.4566,5.824827040909589,0.1569544787854886
18.458996,5.869101783040498,0.1562641780823551
18.46138,5.91384305588023,0.1554898393546223
18.463764,5.950251060510201,0.1548359785373183
18.466168,5.981351611035223,0.1542808989107771
18.468552000000003,6.005514693761216,0.1538810039759302
18.49722,6.072592564888415,0.1535704746857251
18.4996,6.076409774926145,0.1535458426976841
18.502004,6.077201170859063,0.1535392544660116
18.504388,6.0845579475386735,0.1533788940507509
18.506768,6.098712422390451,0.1531009015808329
18.509164,6.112215270936171,0.152821128891803
18.511552,6.126928824295391,0.152507206000243
18.513932,6.140059585788774,0.1522051666787849
18.516332,6.158125714334767,0.1518110233638015
18.518716,6.180288592172214,0.1513757822691507
18.521096,6.2038944922486365,0.1509356264750516
18.5235,6.236719500124224,0.1503059697102046
18.525888,6.264097284268,0.1497568793812649
18.528268,6.300182319531746,0.1490176467219973
18.530668,6.33868876442249,0.1482175350210355
18.533056,6.377195209313235,0.1474202512721004
18.535436,6.413187696778364,0.1466495044626184
18.537832,6.439077132712792,0.1460391392520545
18.54022,6.46114935860949,0.1454532376073492
18.5426,6.492440692305354,0.1446843340307932
18.545004,6.516515018948469,0.1440631342959966
18.547392,6.535886295964448,0.1435583423976539
18.549772,6.551393141114454,0.1431181617541834
18.552172,6.560474375144629,0.1428194053402046
18.55456,6.560336501375639,0.1427010617213096
18.55694,6.562433045778543,0.1425749596010039
18.559336,6.565320986114363,0.142443327132958
18.592784,6.444530218636697,0.1423202448615419
18.59518,6.443461179307928,0.1422168963393477
18.597568000000003,6.4483984422184095,0.1420104187877529
18.599948,6.449890582143498,0.1418381787475663
18.602344,6.451522491695446,0.1416564137005098
18.604732,6.449289969381422,0.1415370745636519
18.607112,6.4478488430003145,0.1414127164035604
18.609508,6.447199112552126,0.141283447945765
18.611896,6.452276145089467,0.1410649798246805
18.614292,6.457445725425426,0.1408829099137032
18.616696,6.462707853560001,0.1407379491533097
18.619084,6.470483939120192,0.1405701721718059
18.621464,6.477189089493744,0.1404249278799965
18.623864,6.481752369494018,0.1403217944007738
18.626252,6.48710704542721,0.1402127648004319
18.628632,6.492973578039601,0.1401162577922366
18.631028,6.501261520278989,0.1399601358206463
18.633416,6.5093171450929,0.1397757615472484
18.635796,6.518351157294831,0.1395340377462795
18.638196,6.525430290578589,0.1392829778942753
18.640584,6.532229884608627,0.1390508866916696
18.642964,6.535025277145831,0.1388883488138043
18.645368,6.5318143674437845,0.1388264595313839
18.647756,6.537403256660324,0.1386260150344389
18.650136,6.545925412183058,0.1383790414010563
18.652532,6.5624559706914605,0.1380017510252429
18.65492,6.578334902893804,0.1376222519001351
18.6573,6.592491273603452,0.1372604298866813
18.6597,6.603574608380044,0.1369530614653285
18.662088,6.614146086477438,0.1366331665421754
18.664468,6.624065938268775,0.1363098845877687
18.666864,6.633473933380913,0.1359774063255746
18.669252,6.641950762933274,0.135657268813558
18.671636,6.655362959538246,0.1352595855614085
18.674032,6.6721277313299945,0.134794673382566
18.67642,6.687169941629045,0.1343477501913573
18.678800000000003,6.701280986368319,0.1339153902300312
18.681196,6.714693182973293,0.133521731000222
18.683584,6.726195826630465,0.1331959814314511
18.685964,6.7379307877131165,0.1328978034976861
18.688368,6.748594813609127,0.1326214767983108
18.690756,6.758607213199079,0.132341421297666
18.69314,6.77076148316231,0.1320196102984822
18.695536,6.781193191632846,0.1317187754469805
18.697924,6.793766770476656,0.131382484622631
18.700304000000003,6.797820089655602,0.1311591109982295
18.702708,6.800011077714991,0.1309580599501834
18.705096,6.802202065774383,0.1307566492060987
18.70748,6.809468190513244,0.1304771629742543
18.709876,6.819015955252244,0.1301530185026977
18.71226,6.83005396405846,0.1297884908918816
18.714644,6.836156605812067,0.1294937386967948
18.71704,6.845052744245007,0.1291668458423497
18.719428,6.850875846744893,0.1288891078831231
18.779148,6.673244341723983,0.1287988662988789
18.781548,6.676829234336236,0.1287642873603279
18.783936,6.683579710680162,0.1287175279346562
18.786316,6.692751596651084,0.1286194757077438
18.78872,6.703273957062366,0.12848871036389
18.791108,6.7148672526602855,0.1283390372517248
18.793488,6.736471051990291,0.1280458533061023
18.795888,6.765943484679102,0.1276474256513793
18.798276,6.794764291061858,0.127248222327847
18.800656,6.8206518311384166,0.1268866226321501
18.803052,6.849612407148031,0.1264775472215747
18.80544,6.884207198344559,0.1259672215563928
18.807824,6.924156665474278,0.1253690087057886
18.81022,6.962802879991883,0.1247645423060591
18.812608,6.997724432270374,0.1242051060744862
18.814988,7.033577150108643,0.1236402082593575
18.817388,7.076227566119081,0.1229905654257653
18.819776,7.119017751756378,0.1223400496375457
18.822156,7.161248858886236,0.1217306117309113
18.824552,7.200826238963618,0.121151495730568
18.82694,7.2354682519883875,0.1206370301599731
18.829324,7.2639641931470464,0.1202112324900994
18.83172,7.295672939865622,0.1197411012292293
18.834104,7.328312852143976,0.119266313970097
18.836488000000003,7.35988182923569,0.1188099643995973
18.838884,7.393872215954404,0.118310174757622
18.841272,7.423578861926562,0.1178810315019963
18.843668,7.449421076032747,0.117500327913555
18.846064,7.475123520512072,0.1171289004317563
18.848452,7.504690396857371,0.1167154371885366
18.850832,7.535328208389307,0.1162901701756868
18.853228,7.561682279174691,0.1159307273983124
18.855616,7.584823544400157,0.1156196432228188
18.858,7.61075830630496,0.115286583434724
18.860396,7.638555399329318,0.1149375107090938
18.862784,7.667563197167176,0.1145719624826652
18.865164,7.691263540900083,0.1142445490276169
18.867568,7.713101553513434,0.1139349666648951
18.869956,7.728141867954617,0.1136939820685557
18.872336,7.739829607209024,0.1135027672701823
18.874736,7.757663418329542,0.1132390307308269
18.877124,7.778570265383115,0.1129378017522561
18.879508,7.791608479077881,0.112720116847732
18.881904,7.801573656839591,0.1125398941828286
18.884292,7.8123302305342195,0.1123586948702866
18.886672,7.816940732362738,0.1122505393959335
18.889072,7.8188975071387805,0.1121594525214109
18.89146,7.820062885981905,0.1120699946497244
18.89384,7.820297099265251,0.1119885604172053
18.896236,7.819088290309621,0.1119035980773276
18.898624,7.814806445420936,0.1118548562575771
18.901008,7.810524600532251,0.1118061144378265
18.903404,7.809315791576622,0.1117215318019095
18.905792,7.805453255568517,0.1116536029233558
18.910572,7.787298370939642,0.1116442367112029
18.912964,7.779663950864183,0.1116430968938132
18.915344,7.773100465975361,0.1116279231205747
18.917744,7.772543283325789,0.1115488958956497
18.920128,7.777340776609411,0.1114010521691017
18.922508,7.776783593959839,0.1113224159039049
18.924908,7.773153375377213,0.111278472519582
18.927296,7.779393890899811,0.1111360026529505
18.929676,7.787496737541964,0.1109788498271586
18.932072,7.796670519370757,0.1108090285718549
18.93446,7.812781768998578,0.1105691620348768
18.936844,7.83410792493273,0.1102691355566466
18.939248,7.856085707172941,0.1099753509130163
18.941636000000003,7.87992582053271,0.1096687479190384
18.94402,7.902275689825259,0.1093941164428017
18.94642,7.926627659864225,0.1090991552313678
18.948808,7.953401039530188,0.1087672901060568
18.951192,7.976449756957038,0.1084658762404794
18.953588,8.000150100689945,0.1081712542512515
18.955976,8.025992314796131,0.1078503544315636
18.958356,8.058911766328203,0.1074572344551781
18.960752,8.091970987487139,0.1070640117367779
18.963140000000003,8.127172079019351,0.1066500334160418
18.96552,8.162373170551561,0.1062404109303867
18.96792,8.190636794284742,0.1058953657858255
18.970308,8.219179957271646,0.1055370424686108
18.972688,8.252286400258823,0.1051172801896367
18.975088,8.275941418021358,0.1047719880301139
18.977472,8.298293183171776,0.1044167447084578
18.979856,8.318410530150299,0.1040589324219392
18.982256,8.337876250822765,0.1036996619871714
18.98464,8.354408705189037,0.1033679395630173
18.987024,8.37056907250297,0.1030201990233434
18.989420000000003,8.384215482391289,0.1026803735516632
18.991808,8.402285402653023,0.1022886185195788
18.994192,8.416910199929363,0.1019091670817561
18.996588000000003,8.428182422018928,0.101572175109406
18.998976,8.440525579295132,0.1012236033314821
19.001356,8.447141973585806,0.1009153490690358
19.003752,8.451523949704583,0.1006020504354496
19.00614,8.449247997278054,0.1003370252276555
19.00852,8.438032476306077,0.100148253949165
19.010916,8.418668782721577,0.1000360426993002
19.013304,8.397302988390654,0.0999411254061377
19.015684,8.382083265925846,0.0997869500148578
19.01808,8.369005413834314,0.0996090520708631
19.020468,8.351504051369368,0.0994832589952155
19.022864,8.338658516703314,0.0993276689248199
19.02526,8.326324838716458,0.0991832560165391
19.027648,8.3132923125953,0.099067447275941
19.030032,8.300120016847282,0.0989570660391904
19.032428,8.287739117032181,0.0988464286720002
19.034816,8.272005642030305,0.0987755418800786
19.037196,8.25492169258807,0.0987275081787103
19.039596,8.233833541653002,0.0987127577852117
19.041984,8.218472153703463,0.0986577431195053
19.044364,8.204321470567423,0.098585498683449
19.046768,8.19203311855094,0.0985016914762958
19.049156,8.18961550063968,0.0983399203560625
19.051536,8.190643005713813,0.0981679212106433
19.053936,8.195255403400202,0.0979796158137057
19.05632,8.20573433369898,0.0977453131674494
19.058704,8.224081897356564,0.0974488997467208
19.0611,8.242709000267869,0.0971416761407178
19.063488,8.263198434298731,0.0968279108185311
19.065868,8.282616933142954,0.0965265990474664
19.068268,8.306039633480012,0.0961930147443364
19.070656,8.327180693816931,0.0958873100448869
19.073036,8.3543280563931,0.0955372375896029
19.075432,8.385479620462105,0.0951567915574496
19.077820000000003,8.413418378971192,0.0948100137881238
19.0802,8.437352935987448,0.0944944409210017
19.082604,8.468876587108788,0.0941334730463081
19.084988000000003,8.507337706029158,0.0937227501528617
19.087368,8.547661156069084,0.0933031728999767
19.089776,8.585702966108872,0.0929145876384796
19.092164,8.627469438387777,0.0925101249910601
19.094544,8.666814501039681,0.0921393638071443
19.096948,8.702946758131674,0.0918050146015071
19.099332,8.739590871902859,0.0914857126224853
19.101716,8.776374755300905,0.0911629384367901
19.104112,8.817023070564927,0.0908193905597194
19.106496,8.855017658776474,0.0904873600036694
19.108876,8.893663873294077,0.0901630817149814
19.111272,8.928817742998046,0.0898819014574264
19.11366,8.963692073448295,0.0896117330118898
19.11604,8.998566403898543,0.0893443548397018
19.118444,9.036653539908706,0.0890489915234076
19.120832,9.067663438492977,0.0888077295760739
19.123212,9.095740070771058,0.0885860998906655
19.125608,9.12674996935533,0.088347263864226
19.128,9.163346861298274,0.0880831707169589
19.13038,9.194356759882549,0.0878463045208036
19.132776,9.220431291414211,0.0876427979478143
19.135168,9.246226283692154,0.0874504192098905
19.137548,9.26880847041018,0.0872849931602746
19.139948,9.285663894142676,0.0871498097463639
19.142336,9.300936526009336,0.0870121679177767
19.14472,9.316209157875996,0.0868755588780547
19.147116,9.32868829306332,0.0867514966980353
19.149504,9.341027658623789,0.0866330555450492
19.151884000000003,9.349502592318276,0.0865361097992831
19.154284,9.359420548251745,0.0864467704790484
19.156672,9.37040943937185,0.0863492516989737
19.159052000000003,9.37995530825298,0.0862446200028048
19.161448,9.390711881947608,0.0861265983770945
19.163836,9.40067705970932,0.0860082674814468
19.166216,9.41092177672475,0.0858812173548255
19.168624,9.420514867434122,0.0857477310097757
19.171008,9.43224982851677,0.0855977800031869
19.173392,9.443472932920224,0.0854378771794987
19.175788,9.450599288032224,0.0852770733062715
19.178172,9.46200938389078,0.0850835354294993
19.180556,9.473838788629916,0.0848759815507789
19.18296,9.486227271876494,0.084650079982331
19.185348,9.50732300624304,0.0843552591112889
19.187728,9.533773416542775,0.0840210217133071
19.190124,9.565298963521986,0.0836569662660411
19.192512,9.590446121209608,0.0833110407991469
19.194896,9.614150256658256,0.0829572402770497
19.197292,9.638273700987485,0.0825908843734746
19.19968,9.663887389383932,0.0822037505946087
19.20206,9.68819782516826,0.0818059132430491
19.20446,9.705850332407282,0.0814348098762717
19.206844,9.719778177407193,0.0810748695155296
19.209224,9.73412533128768,0.0807023660987591
19.211628,9.74754131960839,0.0803342102064782
19.214016,9.758163811249766,0.0799768407355479
19.216396,9.77078840363756,0.0796082576984137
19.218796,9.780619499346017,0.0792500483519884
19.22118,9.7883087246812,0.0789079345188374
19.22356,9.798791446695716,0.0785570664692623
19.225964,9.806480672030895,0.0782172059076313
19.228352,9.814169897366076,0.0778780294940047
19.230736,9.82092795714148,0.0775427610077567
19.233132,9.817815282811656,0.077255545490728
19.23552,9.806414666242448,0.0770179292152357
19.237904,9.79035822187435,0.0767940961613491
19.240308,9.77923714455886,0.0765462203947237
19.242696,9.773051434295985,0.0762757157689991
19.245076,9.760859421793851,0.0760343029982488
19.247472,9.744523438172031,0.0758168440976748
19.24986,9.728047684923348,0.0756036557889842
19.25224,9.720651269846972,0.0753435028099081
19.254636,9.72312558887582,0.0750392481873867
19.257024,9.721316167158117,0.0747633008047711
19.259404,9.716433709507356,0.0745035481244413
19.261808,9.710992173349156,0.0742617438529806
19.264196,9.708483903497148,0.0740085826013712
19.266576,9.70583586401828,0.0737596433743607
19.268972,9.70397922047233,0.0735126354367088
19.27136,9.699840936926243,0.0732843643596891
19.27374,9.6919307693128,0.0730948932808968
19.27614,9.683461523191918,0.0729236611087978
19.278524,9.673641802630677,0.0727683291527808
19.280904,9.670060701734164,0.0726050998370616
19.283304,9.674208464569595,0.0724132105073784
19.285688,9.678588544830506,0.072241397953024
19.288068000000003,9.684411647330393,0.0720791262806663
19.290468,9.685811239456864,0.071949564955165
19.292852,9.69587086087506,0.071789946136418
19.295252,9.710446540465286,0.0716233243854455
19.297648,9.72674478154821,0.0714575138416491
19.300036,9.73847974263086,0.0713291149212094
19.302416,9.74257838778018,0.071252836981756
19.304816,9.750401695168613,0.071167632249596
19.307204,9.760227103303462,0.0710732447996469
19.309588,9.774615791438586,0.0709437517790869
19.311988,9.78500027808088,0.0708325900299264
19.314376,9.80032013177578,0.0707027666269747
19.31676,9.81405719360485,0.0705682392464892
19.319156,9.83179845692675,0.0704171846015086
19.321544,9.852100899502506,0.0702390172180962
19.323928,9.87175171577221,0.0700540095578992
19.326324,9.890750905735851,0.0698619274935234
19.328712,9.905373807154325,0.069671814500798
19.331092,9.918413916706957,0.0694782167767319
19.333488000000003,9.93401520551345,0.0692587096777462
19.33588,9.949104637640746,0.0690291188340453
19.33826,9.964613378648622,0.0687860649114796
19.340656000000003,9.9783995581638,0.0685446808170236
19.343044,9.988600845066728,0.0683067319469517
19.345428,9.993215138610982,0.0680798402843936
19.347824,9.99852828028954,0.0678313048136756
19.350212,10.00989494603559,0.0675305569737858
19.352592,10.02275185584886,0.0672120694008598
19.354992,10.038821571222044,0.066876316487301
19.35738,10.04939684103518,0.0665761896464151
19.35976,10.059040945288531,0.0662772394259173
19.36216,10.063098056183216,0.0659895879783166
19.364544,10.070367972637818,0.0656843374064357
19.366928,10.075123931666802,0.0653767700637851
19.369324,10.081881991442206,0.0650622278317697
19.371712,10.089990525657967,0.064733525419076
19.374092,10.104105362112978,0.0643843825438454
19.376488,10.121013695247324,0.0640310907179331
19.378876,10.136059697262114,0.0636816566982046
19.38126,10.14938313778421,0.063331812773437
19.383656,10.159773312000109,0.0629907413960937
19.386044,10.171374191029509,0.0626402616199754
19.388428,10.183114839685766,0.0622877841471224
19.390824,10.201141329834993,0.0619083116554609
19.393212,10.225174122223471,0.0615089160814038
19.395596,10.246785504984954,0.0611288547266289
19.397996,10.261831506999744,0.0607864269368199
19.400384000000003,10.274735638641255,0.0604561339393765
19.402764,10.285358130282631,0.0601418015066034
19.405168,10.299472966737644,0.0598036036364883
19.407556,10.316660839125714,0.0594541712971895
19.409936,10.334360568192976,0.0591156627078589
19.412332,10.348428182819744,0.0588055080419219
19.414720000000003,10.360865783752434,0.058517255064411
19.4171,10.371021744684988,0.0582438551733897
19.419496,10.3806186271101,0.05798740685455
19.421884,10.3845812943483,0.0577655739440882
19.424268,10.387193487146138,0.0575573157748086
19.426664,10.392179867742732,0.0573589230565864
19.429052,10.400331832070998,0.057173862493737
19.431432,10.410997753824876,0.0569943383252878
19.433828,10.421756223377376,0.0568387629465883
19.436216,10.427951412929598,0.0567112184535169
19.438596,10.42837261766805,0.056620743721823
19.441000000000003,10.4268842694587,0.056559552697867
19.443388,10.430191518675102,0.0564904107684297
19.445772,10.440948092369728,0.0564151290135993
19.448168000000003,10.450354191623996,0.0563527405983126
19.450556,10.462693557184462,0.0562844908647047
19.452936,10.473263139423988,0.056241200593279
19.455332,10.483273643156071,0.0562140876841586
19.45772,10.493796003567352,0.0561981161939187
19.460104,10.50818279584461,0.0561753065309095
19.4625,10.522569588121865,0.0561524367485781
19.464884,10.539749877078457,0.0561275535613758
19.46728,10.559723662714385,0.0561007805072537
19.469676,10.579837217977165,0.0560698770650877
19.472064,10.601161478053449,0.0560305227897942
19.474444,10.61755037107712,0.0560026094000595
19.476848,10.62993506260796,0.0559855210073135
19.479236,10.64138858857902,0.0559692490367551
19.481616,10.652330257870885,0.0559418640982166
19.484012,10.665553567162885,0.0559011906403811
19.4864,10.68119828608188,0.0558434134002056
19.48878,10.6966106875754,0.0557666577030028
