Time,Force,Position
25.050324,5.817491178274394,0.1639102752881473
25.052724000000005,5.971244827396639,0.1626448226711167
25.055119999999995,6.110430380360131,0.1613570827286893
25.057512,6.226527577500009,0.1602446515420214
25.059896,6.330523414078506,0.1591808962324379
25.062292000000006,6.427258813491751,0.1581567683285999
25.064684000000007,6.512637026448291,0.1571853495819625
25.138764,6.626771761238516,0.1567834835845536
25.141160000000006,6.632730841649524,0.1567140661067578
25.143548000000003,6.649818582807496,0.1563897301156896
25.145928000000005,6.6640202794875165,0.156078512192463
25.148332000000003,6.683017573593291,0.1556909502514722
25.15072,6.703969746617237,0.1553182683956362
25.1531,6.735117518970502,0.1548429014236396
25.155504,6.779022069906941,0.1541942864493975
25.157892,6.833588750881526,0.1533656311740838
25.160276000000003,6.883359834430358,0.1526260467670708
25.162672000000008,6.929126716486357,0.1519694439337135
25.165060000000004,6.981271987833944,0.1512218124946485
25.167440000000006,7.037561230301223,0.1503989648700828
25.169836,7.086216052693044,0.1496194445770092
25.172220000000003,7.133754613927851,0.1487976389393573
25.174603999999995,7.187067159976433,0.1478588736520631
25.177,7.235304569345539,0.1470084915223825
25.179388,7.287685949834342,0.146082268161132
25.181768,7.346632711069835,0.1450276897849525
25.184164000000003,7.401994579693073,0.144024673644269
25.186552,7.455586664995374,0.1430869138629846
25.188932,7.505918722909517,0.1422675002166246
25.191332,7.556435876420895,0.1415323814294735
25.19372000000001,7.605882094745634,0.1408203436857301
25.19610000000001,7.650719707099726,0.1401393104549096
25.198496,7.687456368669531,0.1395532394920612
25.200888,7.7156727705744705,0.1390873540279162
25.203268,7.735508682441405,0.1387294720567637
25.205668,7.746731786844856,0.1384498186843565
25.208056000000006,7.754929077143497,0.1381790283033485
25.21043600000001,7.759960783710464,0.137925007327665
25.212832,7.769136461397125,0.137609398674476
25.215219999999995,7.778032599830067,0.1373102144241596
25.217604,7.788231990875122,0.1370148444768162
25.265392,7.654406801418432,0.136900095367725
25.267776000000005,7.654826110299012,0.1368794420164522
25.270171999999995,7.658318455112647,0.1368134170124256
25.27256000000001,7.660926856194749,0.136721607521741
25.274940000000008,7.662511543918454,0.1366106519765113
25.27734,7.668519742015571,0.1364259009089549
25.279728,7.672106530485694,0.1362874252889853
25.282112000000005,7.680209377127845,0.136106037045796
25.284507999999995,7.694411073807866,0.1358753951214923
25.28689600000001,7.713128828659917,0.1356027441701936
25.28928,7.739807764669392,0.1352607964292022
25.291676,7.774308112209433,0.1348528374603025
25.294064,7.821752229787753,0.1342751902256065
25.296448000000005,7.8697554258735165,0.1336796259016426
25.298848,7.916175830093442,0.1330901004378603
25.301236,7.960733903193811,0.1325223367928333
25.303616,8.006362911480817,0.1319363095413188
25.306016000000007,8.05217891122293,0.1313100092749303
25.308404000000003,8.100603312047141,0.1305968333024748
25.310784000000005,8.14064722283335,0.1299770209826302
25.313184,8.170960169141193,0.1294738064707422
25.315572,8.204066612128369,0.1289472759034563
25.317956,8.234659097689931,0.1284392619728426
25.320352000000007,8.261387151385524,0.1279788519850583
25.322740000000003,8.283691694707699,0.127588567639933
25.325123999999995,8.299663174708659,0.1273223312853589
25.32752,8.323503288068428,0.1269629837450301
25.329908,8.343386421763608,0.1266218138711075
25.332292,8.353585812808664,0.1263559601293448
25.334688000000007,8.356475649002359,0.1261568964427666
25.337076000000003,8.354058031091101,0.1260003966343097
25.339459999999995,8.349545764634808,0.1258397232846579
25.341860000000004,8.33842279146145,0.1257128455966576
25.344248,8.321712824929422,0.1256380302334983
25.346628000000003,8.307796355076727,0.1255365015822714
25.349032,8.294811050783812,0.1254259610345697
25.35142,8.283036451304396,0.1252941454351427
25.353804000000004,8.271401621451838,0.1251557287763797
25.356196000000004,8.257065842718564,0.1250708533041149
25.358584,8.246687043649878,0.1249742050519469
25.360968000000007,8.242686633872783,0.1248234334469274
25.363364,8.233239000363877,0.1247179857406876
25.365752000000008,8.222999970922057,0.1246146868994219
25.368132,8.212760941480234,0.1245111291364554
25.370528,8.20852821427766,0.1243376088744854
25.372916,8.208346910396166,0.1240817696037058
25.375300000000003,8.200995821290162,0.1238822340780396
25.3777,8.190292156997383,0.1237326511935116
25.380084000000004,8.18810875236947,0.1234995788842969
25.382468,8.191093032219644,0.1232329644803197
25.384868000000004,8.195660103935657,0.1229613461208475
25.387256,8.197945535651531,0.1227253150352649
25.389640000000007,8.197902105539026,0.1225606864919047
25.392036,8.199301697665494,0.1223970790203499
25.394428,8.200421750538245,0.1222466108234197
25.396808,8.200191328970636,0.1221234523831289
25.39920800000001,8.19823834591033,0.1220111516477842
25.401596000000005,8.194934888409668,0.1219262413805831
25.40398,8.192562596468782,0.121832783762688
25.40638000000001,8.186884951169363,0.1217542731632402
25.408768,8.182977089190887,0.1216298043128565
25.411148000000004,8.182002493518603,0.1214738648321793
25.413548,8.183029998592735,0.1212951491219204
25.415932000000005,8.184848899599787,0.1211142593892644
25.418316,8.181173355046786,0.1210124080290887
25.420712,8.176938731986343,0.1209353782112023
25.4231,8.181224368590767,0.1207790231377415
25.425484000000004,8.189374437061165,0.1205834575684929
25.42788000000001,8.19724496627784,0.1204025053259556
25.430268000000005,8.203392934001819,0.1202315004035252
25.432652,8.2095409017258,0.1200606438216632
25.435048,8.219832840569476,0.1198398454125023
25.437436,8.232034332360948,0.1195679769826078
25.439820000000005,8.246517464152559,0.1192622679705171
25.44222,8.260209200011252,0.1189593126453476
25.444607999999995,8.278324446243358,0.1185959351448357
25.446992,8.297091318781524,0.1182370854575959
25.44938800000001,8.316649587252606,0.1178772708424685
25.451776,8.337278790910329,0.1175048116697597
25.454156000000005,8.36335521829986,0.1170925113348157
25.456556,8.387522092741591,0.1167334167864618
25.458943999999995,8.411269658302743,0.1163942545711644
25.461328,8.434737684610173,0.116069118711191
25.463724000000006,8.457414314984684,0.115745626351836
25.466116000000007,8.483443520545976,0.1153749748023586
25.4685,8.508960869428066,0.1149939960389331
25.470896000000003,8.523676318645153,0.1147208976354174
25.473284,8.537600371929324,0.1144501612740099
25.475664,8.549662094093938,0.1141963467274696
25.478060000000006,8.564796852191606,0.1139097284304878
25.480448000000003,8.580071379916134,0.1136176708935245
25.48283200000001,8.593064267640528,0.11335902720685
25.485228,8.609642047977173,0.1130802679612527
25.487616,8.626731684993016,0.1128136627497087
25.49,8.647685753874832,0.1125160029678117
25.492396000000006,8.66635818275651,0.112252089622321
25.494784000000003,8.685961777197969,0.1119821160555313
25.497164000000005,8.702632105333231,0.1117377680873331
25.499564,8.720233599028273,0.1114884173776377
25.501952,8.736252300857474,0.1112433171188021
25.504332,8.749477506007343,0.1110176647678202
25.506728000000003,8.760840380037655,0.1108054179461737
25.509116,8.772203254067968,0.1105940072316792
25.511496,8.787290790337392,0.1103572189416808
25.513895999999995,8.80251809623368,0.1101162131309971
25.51628400000001,8.821050755488498,0.1098671149202625
25.51866400000001,8.844099472915348,0.1095885919719316
25.52106,8.869010521461755,0.1092987054492799
25.523452,8.891639930008022,0.1090388774937087
25.525832,8.916131669673849,0.1087699672772508
25.52822800000001,8.941275035645734,0.1085066190154737
25.530616,8.9656270056847,0.1082438415830982
25.53300000000001,8.985043608671054,0.1080257396108967
25.535396,9.001154858298873,0.1078166836097169
25.53778400000001,9.00646420826169,0.1076983177632354
25.540168,9.008980061545174,0.1075987826542531
25.54256400000001,9.01070451889574,0.1075002069539301
25.544952,9.014990155500165,0.1073613109720927
25.547332000000004,9.015411360238614,0.1072530739018008
25.549732,9.014761629790428,0.1071567565517045
25.552119999999995,9.015602143409458,0.1070318577353375
25.554504,9.01979523221526,0.1068665969218375
25.55690000000001,9.023196925088152,0.1067023501979483
25.559288,9.023805121281706,0.106557138257272
25.56167200000001,9.023342382288618,0.106423710083791
25.564068,9.017432419563724,0.1063210610913537
25.566455999999995,9.01208153534627,0.1061965736114113
25.56884,9.003005988889702,0.1060960161182569
25.57123600000001,8.991416485007521,0.1060024625660604
25.573624,8.97302928295317,0.1059617705753736
25.57600800000001,8.953199058659843,0.1059163860004293
25.578404,8.933508603993376,0.1058653634387341
25.580791999999995,8.911816048580492,0.1058321413264399
25.583172,8.890914889100527,0.1057980625905394
25.58557200000001,8.879884463725787,0.1056811506210301
25.58796,8.869645434283965,0.1055634704215238
25.590340000000005,8.86033757040192,0.1054395806100328
25.59274,8.854754368758988,0.1052917450218081
25.595127999999995,8.851033498235616,0.1051316747067426
25.597508,8.84638146215246,0.1049774448498502
25.599908000000006,8.843871296442584,0.1048003664402473
25.602296000000003,8.837356929239874,0.1046578358080428
25.60468000000001,8.82790929573097,0.1045381154823521
25.607076,8.817810035916006,0.1044129919585047
25.60946000000001,8.807059149794986,0.1042824240167467
25.611844,8.801523169980298,0.1041005308726467
25.61424,8.794916254978972,0.1039297248977732
25.616628,8.793244707030258,0.1037193455026618
25.619012000000005,8.798650396507433,0.1034470514008013
25.621407999999995,8.8082000571043,0.1031352636205951
25.62379600000001,8.817749717701167,0.1028233460544506
25.62618,8.834376615723924,0.102453400417621
25.628580000000007,8.857289355239653,0.1020237727548937
25.630968000000003,8.883275130688437,0.1015685922067668
25.633348000000005,8.90940067576408,0.1011134063884048
25.635748,8.938087400093583,0.1006218597748061
25.638136,8.964399936624329,0.1001314054601419
25.64052,8.984194314236628,0.0996804536765926
25.642916000000007,9.002545669609953,0.0992238554830609
25.645304000000003,9.021036794610136,0.098761672691018
25.647684000000005,9.040179545916375,0.0983080761527638
25.650084,9.060393232409256,0.0978431795968481
25.652472,9.085961594835329,0.0973267717832401
25.654852,9.113112749127236,0.0968120799802264
25.657252000000007,9.139704824911703,0.0963181602145459
25.659640000000003,9.162013159949616,0.0958670686950586
25.662023999999995,9.189396631667,0.0953783621055402
25.66442,9.213846837078192,0.0949132377569546
25.666808,9.238297042489386,0.0944538093506329
25.669188,9.257672111221105,0.0940331882459417
25.671588000000007,9.279980446259016,0.0935948985791692
25.673976000000003,9.293209443124622,0.0932273445456641
25.676359999999995,9.300571907377842,0.0928987639905369
25.678756,9.30565273163092,0.0925957967950783
25.681144,9.303935857711831,0.092334886393865
25.683528000000003,9.301148048606104,0.0920840464115712
25.685924000000007,9.30059465767227,0.0918400484715959
25.688312000000003,9.30334662009697,0.0915932103890862
25.690696,9.312616741440118,0.0913169876215616
25.693096000000004,9.3246803594626,0.0910286450413293
25.695484,9.334881646365528,0.0907501919523785
25.697868000000007,9.34694526438801,0.090463826157804
25.700264,9.356587472783495,0.0902072803216764
25.702652000000008,9.363436184499648,0.0899632951428148
25.705036,9.373637471402573,0.0896875867096088
25.707432000000004,9.387051563865413,0.0893847717363004
25.70982,9.39632168520856,0.0891151897605968
25.712204000000007,9.40438110173821,0.0888595568538887
25.714604,9.408017007894449,0.0886454219225378
25.716992,9.418310842595991,0.0883984365406042
25.719376000000004,9.424181166924118,0.0881921402949182
25.72177200000001,9.43298475755844,0.0879685067630655
25.72416400000001,9.44523347117816,0.0877386680062619
25.726548,9.457621954424736,0.0875041973341954
25.72894400000001,9.475737200656845,0.0872410749350884
25.73133600000001,9.49250197244859,0.0869969972141354
25.73371600000001,9.510617218680697,0.0867358737911567
25.736112,9.529803400099444,0.0864674140458065
25.738504,9.54219188334602,0.0862369729678591
25.740884,9.552718035473042,0.0860151177225612
25.743284,9.561753943532844,0.0858162694577162
25.745676,9.570650081965786,0.0856230754749882
25.748056,9.581408551518283,0.0854233171415435
25.750456000000007,9.59682284886967,0.0852060075959329
25.752848000000007,9.613168311780838,0.0849873421227317
25.755227999999995,9.631236336184704,0.0847682882273779
25.757624,9.650235526148348,0.0845465238524164
25.760012,9.669514255365709,0.0843152422768408
25.762396000000003,9.688141358277012,0.0840773291800684
25.764796,9.70411473413584,0.0838464620281734
25.767184000000007,9.723440685181448,0.0835864110531085
25.769563999999995,9.741695701040417,0.0833345668610188
25.771964000000004,9.759019551339604,0.0830866687501687
25.774352,9.775552005705874,0.0828377327178834
25.776736000000007,9.79115329451237,0.0825936936413616
25.779132,9.811969489625191,0.0823161195740624
25.781524,9.827431008804826,0.0820782991416268
25.783904,9.841030196864905,0.0818479272407306
25.78630400000001,9.856351946417677,0.0816155149792943
25.788692000000005,9.871254387089866,0.081397376543614
25.79108,9.888578237389057,0.0811544285989152
25.793479999999995,9.906973022874883,0.0809051237730909
25.795872,9.923645246868013,0.0806586613325579
25.798252,9.938734678995308,0.0804109891475778
25.800652000000007,9.949540370376049,0.0801947514569635
25.803040000000003,9.958343961010376,0.0799903872756861
25.805423999999995,9.964354054965364,0.0797950284715436
25.80782,9.975951142279024,0.0795831924257271
25.810212,9.991412661458655,0.079355601108142
25.812596000000006,10.005663475824788,0.0791400836310965
25.814992,10.02191639093734,0.0789159999362591
25.817384,10.03830907567675,0.0786872296324848
25.819764,10.056843630789436,0.078444803432044
25.822164000000008,10.0780319129546,0.0781993234638549
25.824552000000004,10.099080425492902,0.0779594989200073
25.826936,10.11570542765779,0.07775440002744
25.829332,10.139547436875429,0.0775088524516013
25.831724,10.164600150906566,0.0772529245000848
25.834108000000008,10.19165496568412,0.0769883280905838
25.836504,10.220200024528888,0.0767044677132473
25.838896,10.244880651507687,0.0764356005519391
25.841276,10.26662801218029,0.0761798883171742
25.84367600000001,10.285162567292977,0.0759446150806371
25.846064000000005,10.29941338165911,0.0757371265769216
25.848448,10.310730929719048,0.0755406278778116
25.850868,10.318184045913014,0.0753587344144887
25.85325600000001,10.32656832766676,0.0751739224506397
25.85564,10.327083976061695,0.0750234474480883
25.858044,10.325317984456497,0.0748916060720507
25.860432,10.325554093597708,0.0747503413553116
25.862812,10.320715066059453,0.0746349790466835
25.865212000000007,10.31894907445425,0.0745035159693881
25.867600000000003,10.316391686916132,0.0743705452359628
25.869983999999995,10.30875916269854,0.0742626758891899
25.87238,10.296051501801475,0.0741798356078221
25.874772,10.282692214598356,0.0740905528210841
25.877152,10.261464294036426,0.0740334242624299
25.879552,10.236092402354805,0.0739985778191367
25.881940000000007,10.208858179553625,0.0739680083799403
25.884324,10.182415352685362,0.0739385620811597
25.886720000000004,10.162630454362413,0.0738880899678706
25.889112000000004,10.144707887159017,0.0738327387742997
25.891492000000007,10.134002327008366,0.0737396864808883
25.893888,10.128371903537191,0.0736222855070919
25.896276000000007,10.130238026372488,0.0734589433991994
25.89866,10.136108350700615,0.0732778757209801
25.901060000000008,10.14584310689472,0.0730842993245222
25.903448000000004,10.158790668648738,0.0728708047288799
25.905832,10.172297308910196,0.0726404323506439
25.908228,10.187154423612013,0.0723963855861765
25.910616,10.204293178313968,0.0721351834325696
25.912996,10.221431933015923,0.0718759071615891
25.91539600000001,10.239362083650798,0.0716203544514218
25.917784000000005,10.26693065096542,0.0713102348830332
25.920164000000007,10.301716225332784,0.0709650415188482
25.922564,10.335570634140378,0.0706214803512651
25.924952,10.376502280373858,0.0702477799714883
25.927332,10.422648832913673,0.069848151108096
25.92973200000001,10.466421197654729,0.0694420568057796
25.932120000000005,10.50847100090309,0.0690381086585747
25.934504,10.546796141912338,0.0686447843496631
25.93690400000001,10.58432988698867,0.0682505815529843
25.939292,10.615857329825747,0.0678820579433155
25.941676000000008,10.643799880050576,0.067517754728275
25.944076000000003,10.67146289102168,0.0671654725469799
25.946464,10.699405441246508,0.066806912455909
25.948848000000005,10.723623329232222,0.0664566541021712
25.951244,10.748912152404571,0.0661019951964599
25.953636,10.775271910763564,0.0657433029878037
25.95602,10.796276993189364,0.0654132243472596
25.95842,10.817002536361436,0.0650919996141162
25.960808000000007,10.836657144346876,0.0647781009421816
25.963192,10.851655924533429,0.0644720888414523
25.965588000000004,10.85515395692067,0.0642193790480378
25.967976,10.8537166222553,0.063982383391522
25.970360000000007,10.857354424269404,0.0637267120979177
25.972756,10.855917089604032,0.0634904759266226
25.975144000000007,10.852989510871446,0.0632722422638186
25.977528,10.85322751587053,0.063064302370095
25.979924000000004,10.85011294568284,0.062875846607941
25.982312,10.844204878815814,0.0626909293468191
25.984696000000007,10.837225876762153,0.0625111511543671
25.987092,10.832109205828043,0.0623284961820223
25.989480000000007,10.829646261946412,0.0621459151879615
25.991864,10.823318886198804,0.0619726521779275
25.994260000000004,10.81349916563756,0.061822737214712
25.996648,10.807543876942292,0.0616642333032343
25.999032000000007,10.799446717873746,0.0615159527585281
26.001428,10.79093024992462,0.0613796382147563
26.003816000000008,10.786977061975769,0.0612149319918703
26.0062,10.783163643653776,0.0610463306516539
26.00860000000001,10.778279290145145,0.0608829156205985
26.010988000000005,10.776979829248768,0.060718882687093
26.013368000000007,10.787041346524834,0.0605122129936248
26.015768,10.799104964547316,0.0602994879491237
26.018156,10.806884841823244,0.0601072452535391
26.020540000000004,10.820531251711564,0.0599019318007538
26.02294,10.831523934547407,0.0596957134479442
26.02532800000001,10.844006861450472,0.0594739848784361
26.027708,10.862775629846508,0.059227612187632
26.03010800000001,10.885269060481654,0.0589776658593564
26.032496,10.908042030370526,0.0587201782963372
26.03488000000001,10.929092438766697,0.0584607009801474
26.037280000000003,10.950282616789726,0.0581985886501326
26.039668,10.9683997588797,0.0579460461655303
26.042055999999995,10.99201134652973,0.0576669109984907
26.044452,11.010827336754009,0.0573968027676313
26.046844,11.030854031791783,0.0571185533341252
26.049232,11.048226999777086,0.0568390767803578
26.051628,11.064109723695168,0.0565767290526323
26.05402,11.078130116493693,0.0563159158902153
26.056408,11.090427947799522,0.0560526491162249
26.058804,11.103005318359076,0.0557826469394074
26.061196,11.10557218518654,0.0555394958301197
26.06358000000001,11.111631396827638,0.0552765790121325
26.065980000000003,11.121322722909236,0.0549898459251096
26.068368,11.124216350818664,0.0547153368930502
26.070756,11.13018301466115,0.054431659220166
26.073152,11.133216412197438,0.0541540578029463
26.075544,11.130383277121338,0.0538873016960926
26.077932,11.128621077231877,0.0536171717814864
26.080328,11.12979214364861,0.0533424650669005
26.08272,11.135619037864233,0.0530660895552068
26.085108,11.143168493572556,0.0527939033110499
26.087504000000003,11.156864021146983,0.0525045107964068
26.089896000000003,11.166275807974865,0.0522324245795393
26.092292000000008,11.17554782517588,0.0519634382556676
26.094692,11.185471468682952,0.0517020952915114
26.09708,11.19418440737653,0.0514476177260375
