Time,Force,Position
22.479676,5.80415194926041,0.165089655215312
22.482064,5.83789864340643,0.1649990639350012
22.484448,5.8716510251260585,0.1644832327515963
22.486844,5.885480634753741,0.1640804618696233
22.489232,5.884319047626355,0.1639341563057607
22.491616,5.8850651175889,0.1638420239828528
22.494012,5.904387276918768,0.163471540874427
22.496396,5.928457811846144,0.1630454070465709
22.498776,5.957044404945552,0.1625329131221309
22.501172,5.979345156551987,0.1621651566538041
22.503556,6.003321247822877,0.1618277656338675
22.505952,6.038004795102282,0.1613739121020605
22.508352,6.0799506754048105,0.1608362678846412
22.51074,6.12352656940142,0.1602259452366572
22.51312,6.164356188546936,0.1596274995982785
22.515516,6.206116973252231,0.1590348693987858
22.517904,6.253929386167152,0.158403394109906
22.520284,6.3039762172539655,0.1577541676830286
22.522676,6.353650961288441,0.157074401685536
22.525064,6.409658768644132,0.156180501131568
22.527444,6.4567270074543766,0.1554838670651024
22.529836,6.502025462943681,0.1548778742776988
22.532224,6.5384296758579135,0.1545521951816414
22.5346,6.570130839145012,0.1543476386125212
22.536996,6.600575971648239,0.154095130518462
22.54176,6.6339505787419215,0.1540469130886963
22.544172,6.652662646020366,0.1540303344183261
22.54656,6.673424035873472,0.1539320707016304
22.54894,6.699215236435676,0.1536499260363648
22.551352,6.722260162146787,0.1533734631481573
22.55374,6.74381484379068,0.1531568628980078
22.55612,6.76644046062121,0.1529211200980751
22.558524,6.793070278944574,0.1526154713334233
22.560908,6.816534513536266,0.1523336898430685
22.563288,6.829755926970396,0.1522067693462644
22.565692,6.84274502297905,0.1520564924847409
22.568076,6.858899702719375,0.1518841671062381
22.570456,6.879290901378013,0.1516671167458809
22.572852,6.899030473730593,0.1514490870194895
22.57524,6.927617066830001,0.1510466939096975
22.577616,6.957414364742906,0.1506235349424082
22.580008,6.990424468215731,0.1501370916755791
22.582396,7.026787146875328,0.1495706209686214
22.584776,7.05942516329581,0.1490565735696099
22.587172,7.093832963037236,0.1484849349381967
22.589556,7.13015031572646,0.1478437059568828
22.591936,7.158971122109214,0.1473552246053064
22.594336,7.18360073554403,0.1469834689689799
22.59672,7.204738004165213,0.1466917879782633
22.5991,7.2227096890547235,0.1464232340298464
22.601496,7.230997631294112,0.1462710766394207
22.60388,7.243010235772616,0.1460706047069553
22.60626,7.251018638758283,0.1459378653858434
22.608656,7.257956106557312,0.145824458906487
22.61104,7.266803127304144,0.1456420927753056
22.613424,7.269131989132523,0.1455516952029126
22.61582,7.270437137602509,0.1454419021481847
22.618212,7.275466948311606,0.1452824202864408
22.620592,7.28263862939398,0.1450837983752913
22.622988,7.281429820438352,0.1449987390730081
22.62538,7.274913557377773,0.1449725689357544
22.62776,7.267605898384273,0.1449508540209314
22.630172,7.26853895980192,0.1448284031391443
22.63256,7.275478323458818,0.144613035278967
22.63494,7.28004349931696,0.1444122616207346
22.637356,7.284888214428824,0.1441979876694685
22.63974,7.297089706220299,0.1438601612764538
22.642124000000003,7.316647974691382,0.1433986625450751
22.64452,7.341421149468796,0.1428527469621291
22.646904,7.369035042753789,0.142236813422038
22.649284,7.397487553799944,0.1415718792423634
22.65168,7.418071431487291,0.1410254736639689
22.654064,7.443403684772146,0.1404556765093718
22.656444,7.474742240296255,0.1397981101386894
22.65886,7.5094333710071375,0.1390801306468694
22.661248,7.547616846531657,0.1382893047439387
22.663628,7.584961704295016,0.1375454754798677
22.66604,7.61709165575204,0.1368930841461932
22.668428,7.650013003141986,0.1362459960941207
22.670808,7.682702033106453,0.13557214732829
22.673212,7.711806170458665,0.1349290073465432
22.675596,7.743703804490213,0.1342599001077221
22.677976,7.771737006655788,0.1336540702110602
22.680372,7.796045546582251,0.1330952971115621
22.682756,7.817560589829377,0.1325661732216768
22.685152,7.834000496397031,0.1321085287264568
22.687548,7.84750713665849,0.1316947603382434
22.75444,7.552199434347594,0.1316491427156215
22.75682,7.5612787725199,0.131527142443991
22.759212,7.567564614012872,0.1314351291349844
22.7616,7.573850455505843,0.1313439153691317
22.76398,7.588888874089156,0.1311819344726114
22.766396,7.604019840471087,0.1310496375498567
22.768784,7.623993626107012,0.1308258983157362
22.771164,7.648018835064013,0.13051349881026
22.77356,7.670693569580656,0.1302280268169519
22.775948,7.700538089321805,0.1298767120824452
22.778328,7.735597515369288,0.1294492521825102
22.780732,7.768422523244875,0.1290288573830204
22.783116,7.797290551455871,0.1286252856543712
22.785496,7.82601881004001,0.1282300034507131
22.7879,7.859263126796179,0.1277927279370117
22.790288,7.893438609112127,0.1273460158055464
22.792668,7.926171069189095,0.1269007269543068
22.795072,7.953688622959735,0.1265319726800608
22.79746,7.979204075983957,0.1261911268317451
22.79984,8.007001169008316,0.1258112544735305
22.80224,8.028000563860505,0.1255108033677316
22.804624,8.038477598301416,0.1253299403770401
22.807008,8.049234171996044,0.1251362524942262
22.809408,8.057988644944258,0.1249679867767808
22.811796,8.066650570093852,0.1247718203968448
22.81418,8.078852061885325,0.1244813208529271
22.816576,8.087468661064547,0.1242225471977773
22.81896,8.090730584310576,0.1240397393718743
22.821344,8.10106974498249,0.1237706544613301
22.823748,8.11075727934835,0.1234998869054442
22.826132,8.119001791475233,0.1232295213694068
22.828516,8.126454907669197,0.1229622697909612
22.830916,8.139075708341252,0.1226648471258135
22.833304,8.152348135319363,0.1223723010545249
22.835684,8.161895900058362,0.1221130443675651
22.83808,8.174144613678077,0.1218022967590583
22.840472,8.187324492857575,0.1214844298393192
22.842848,8.203856947223846,0.1211175643997588
22.845252,8.222671041590253,0.1207181871463175
22.84764,8.24269584077016,0.1203013009148798
22.85002,8.272219287002955,0.1197672804583467
22.852424,8.304815769168803,0.1191976470139905
22.854808,8.33834341689443,0.1186223941355184
22.857188,8.371731294993193,0.1180523260226696
22.859592,8.399484957905049,0.1175642749988199
22.861980000000003,8.426120463802022,0.1171293519530626
22.864356,8.45526992712461,0.1166872018332086
22.866752,8.490285923059586,0.1161877433462127
22.86914,8.52264819194209,0.1157114726718704
22.87152,8.550214863398837,0.1152787324741496
22.873916,8.57522035560173,0.1148913773002969
22.876304,8.600086078177762,0.1145111338512908
22.878684,8.61671108034265,0.1141917022118587
22.88108,8.631893060268562,0.1138697855235164
22.883468,8.652289946500806,0.1134887213075552
22.885852,8.66640099124008,0.1131818843393797
22.888248,8.680372266352492,0.1128822635310031
22.890636,8.69285329739769,0.1126142558370675
22.893016,8.702912918815887,0.1123851080180329
22.895412,8.711901605047444,0.1121703075464652
22.8978,8.712462579412755,0.1120529782130153
22.90018,8.70901935228523,0.1119747420167282
22.90258,8.703853563665009,0.1119044965878835
22.904968,8.700410336537486,0.1118261988523373
22.907344,8.700319684596739,0.1117038306346001
22.921688,8.61140759257193,0.1116547014373399
22.924092,8.597069917980786,0.1116469317239273
22.926476,8.589902028614148,0.1115955040752875
22.928856,8.587529736673265,0.1115039824022768
22.93126,8.584086509545738,0.1114252473214829
22.933648,8.582645383164634,0.1113270592604272
22.936024,8.582414961597026,0.1112111021366229
22.93842,8.58181245297708,0.1110789240949208
22.940804,8.579487382864437,0.1109541181014959
22.943184,8.573018341632102,0.1108730519144736
22.945588,8.5712523500269,0.1107251592262262
22.947976,8.572419624727896,0.1105510874998115
22.950356,8.573307360175168,0.1103882539270297
22.952752,8.573823008570105,0.1102094511828059
22.955136,8.577551462524957,0.1099947417652689
22.957516,8.588077614651977,0.1097238461763219
22.959932,8.605401464951168,0.1093962814620733
22.96232,8.629942322303105,0.1089957999956084
22.9647,8.65746366778948,0.1085365594613614
22.967104,8.687546192529716,0.1080393718757486
22.969488,8.714043824657697,0.1075619530683247
22.971868,8.736025398613647,0.1071112187816044
22.974272,8.754049992905005,0.1066655062031392
22.976660000000003,8.765137119397336,0.1062819491513454
22.97904,8.772639353277414,0.105918475761467
22.981436,8.785636032717544,0.1054932142272285
22.983824,8.794116653985643,0.1050932126664241
22.986204,8.804459606373298,0.1046821353155341
22.988608,8.818294903574591,0.1042257801613857
22.990992,8.835902084843239,0.1037115744792688
22.993372,8.850296460551974,0.1032341380045969
22.995776,8.864039209954646,0.1027519050282403
22.998164,8.881414073797817,0.1022210162724321
23.000548,8.901861973574043,0.1016659376758161
23.002952,8.918585211111155,0.1011369370590117
23.005336,8.92893005935668,0.1006436880834103
23.007716,8.934898619057034,0.1001687229366296
23.010112,8.936583438010834,0.0997388048049618
23.012496,8.937709178457192,0.0993309577690798
23.014876,8.936413509276553,0.0989564188656905
23.01728,8.940192976775387,0.0985398409534719
23.019664,8.947836876140194,0.0980968059242137
23.022048,8.95613240181106,0.0976586565221612
23.024444000000003,8.966569797855199,0.0971978256764764
23.026828,8.978729755392036,0.0967318317759665
23.029212,8.985535036995682,0.096320913402975
23.031608,8.994994045651802,0.0958994068324706
23.033992,9.003102579867564,0.0954999902028334
23.036372,9.008649934829467,0.0951378544261529
23.038776,9.01605962091093,0.0947677920977767
23.04116,9.018533939939775,0.0944304979283011
23.04354,9.020728719714906,0.0941034989602973
23.045936,9.019151615422675,0.0938289533586103
23.048324,9.00928656889106,0.0936246153828041
23.05072,8.99485824235917,0.0934707023573644
23.053116,8.978660132506338,0.0933530824981631
23.055504,8.963765275265624,0.093246558484857
23.057884,8.94887041802491,0.0931396801350221
23.06028,8.933975560784196,0.0930325069245338
23.062668,8.91828930761056,0.0929244315050255
23.065052,8.897900004809795,0.0928727856206381
23.067448,8.872156026075835,0.0928720536691495
23.069836,8.850136709580989,0.092850956653876
23.086564,8.700281443147876,0.092835537286678
23.088956,8.687619108221186,0.0928246376144453
23.091344,8.678262126653028,0.0928110264688786
23.093724,8.669696541017789,0.0927981884316354
23.096124,8.66657817911436,0.0927628519323193
23.098508,8.67398217762221,0.0926656317218123
23.100892,8.691256910235289,0.0925012484347312
23.103288,8.709183269154423,0.0923431204959226
23.105676000000003,8.729623585499173,0.0921823041036816
23.108056,8.74964459296334,0.0920375294598819
23.11046,8.769897917852989,0.0919145543607931
23.112848,8.797088710541663,0.0917445937260192
23.115228,8.832008366962285,0.0915274506354878
23.117632,8.861433577822854,0.0913652368641872
23.12002,8.889228774989345,0.0912344439827238
23.1224,8.919677699208307,0.0910947838471509
23.124796,8.949707314546691,0.0909707652925992
23.127184,8.978246685817854,0.0908730520671036
23.129564,9.004783956342601,0.0907898612926274
23.13196,9.03760706836032,0.0906539289706211
23.134348,9.07029041075118,0.0905226153412114
23.136732,9.096967450902786,0.09043578795703
23.139128,9.12113053362878,0.0903525323221842
23.141516,9.148366652287828,0.0902462890153683
23.143896,9.177884410947014,0.0901169583088067
23.146292000000003,9.200744241060892,0.0900245373039954
23.14868,9.21531612893538,0.0899977568184423
23.15106,9.233100822369783,0.0899436375241652
23.153464,9.249162954311494,0.089893250188012
23.155852,9.265364855880064,0.0898377087433641
23.158232,9.287061203008683,0.0897320364701647
23.160628,9.302891017524916,0.0896621358354659
23.163016,9.316858500921592,0.0896013611148231
23.165392,9.334178559505045,0.0895081843686502
23.167808,9.35513073252899,0.0893738662781726
23.170192,9.376502214433517,0.0892252932057769
23.172572,9.397501609285706,0.0890607168401435
23.174976,9.419571939324534,0.0888872847488095
23.177364,9.44485507492328,0.0886877150880387
23.179744,9.46613400902919,0.0885156248897794
23.182148,9.489974122388958,0.0883118417825125
23.184532,9.515164710189085,0.0880899191223617
23.186912,9.542497168362488,0.0878517615012418
23.189304,9.568386604296917,0.087608961195667
23.191692,9.592553478738647,0.0873710663160839
23.194072,9.619933158740295,0.0871082807875991
23.196476,9.65215565799594,0.0867923991475
23.198864,9.677859998333131,0.0865038038028974
23.20124,9.705706209043608,0.0861997125090051
23.203644,9.736113599007933,0.0858662102999107
23.206032,9.759443751546373,0.0855789715300514
23.208412,9.78398460889831,0.0852785997767912
23.210816,9.805080343264857,0.0849837029841401
23.2132,9.82552445132534,0.0846838372384896
23.21558,9.840893422706358,0.0844167402510665
23.217984,9.856262394087372,0.084150708810788
23.220372,9.87577533658808,0.0838583100802726
23.222752,9.897709688715793,0.0835424243129727
23.225148,9.9196440408435,0.0832289074984697
23.227532,9.943999802598205,0.0828919664794368
23.229912,9.967564168419988,0.0825559823261897
23.232312,9.990476907935715,0.082215376875973
23.234696,10.012598251518526,0.0818756071280152
23.237076,10.03150678954142,0.0815592586351311
23.239472,10.046550895698342,0.0812599034644432
23.241860000000003,10.056659634802651,0.0809853052219412
23.24424,10.06569743872032,0.0807198888076751
23.246636,10.074735242637992,0.0804531364388826
23.249024,10.082702111369024,0.0801951472438077
23.251404,10.087595944167,0.0799559517450062
23.25382,10.094771416965113,0.0796969477379856
23.256208,10.102226429016945,0.0794293334934039
23.258588,10.11061260662856,0.0791583957659399
23.260984,10.12006971942681,0.0788808569247004
23.263372,10.133810572971615,0.0785743186677895
23.265752,10.147319109090946,0.0782494629769153
23.268156,10.154821342971022,0.0779555380668213
23.270544,10.15552587867893,0.077690096916532
23.272924,10.151574586587948,0.077438378919094
23.275324,10.14347932337727,0.0772110002108004
23.277708,10.13151962830062,0.0769984321710435
23.280092,10.120491098783749,0.0767831932443677
23.282488,10.106389533333823,0.0765844313698687
23.284876,10.095780312697531,0.0763553077255613
23.287256,10.089826919860132,0.0761129968365617
23.28966,10.091090534075482,0.0758309536295733
23.292048,10.089281112357776,0.075565354134783
23.294428,10.09212751843896,0.0752870206434409
23.296832,10.093391132654313,0.0750051634144499
23.29922,10.09558591242944,0.0747208360995627
23.301604,10.097780692204568,0.0744368012383503
23.304,10.099835702352836,0.0741574986825364
23.306388,10.101750942874244,0.0738823047365638
23.308768,10.10245547858215,0.0736187839149304
23.311164,10.100738604663064,0.0733781271420287
23.313552,10.095110077049757,0.073178925684329
23.315932,10.09492877316826,0.0729702357048628
23.318328,10.099403297085656,0.0727495417782193
23.320716,10.106391778428666,0.0725302632328636
23.323096,10.115242590891237,0.0723061968386467
23.3255,10.129680396712471,0.0720689083032983
23.327884,10.141696792906714,0.0718540281767868
23.330264,10.152502484287456,0.0716492472316703
23.332668,10.15874489566792,0.0714798758126666
23.335056,10.16326474555569,0.0713111467602858
23.337436,10.16042781876385,0.0711843627865403
23.339832,10.16238648939776,0.0710425606614124
23.342216,10.163833303352478,0.0708904535500266
23.3446,10.164860808426612,0.0707512244975699
23.346996,10.16868181018008,0.070606322967103
23.34938,10.170360941560272,0.0704740536679782
23.351764,10.172971238500242,0.0703400316235736
23.35416,10.179306197679326,0.070198361878884
23.356548,10.186712092045047,0.0700507898960986
23.358944,10.194397525664488,0.0698948474780503
23.36134,10.2083688007769,0.0697059211157072
23.363724,10.223038924023616,0.0694974989583802
23.366104,10.237057420964272,0.0692832183209244
23.368508,10.25107591790493,0.0690691107661576
23.370896,10.266305119659084,0.0688454401769498
23.373276,10.28060315585346,0.0686252566849181
23.375672,10.294249565741778,0.0683979628715367
23.37806,10.316044148242623,0.0681363281587289
23.38044,10.341982701863165,0.0678547968267353
23.382836,10.367781485856844,0.0675781780298379
23.385224,10.39772424097022,0.0672817683524866
23.387604,10.421800463471204,0.0670048320266838
23.39,10.445457377091609,0.0667419566840542
23.392388,10.471256161085288,0.0664678725824333
23.394768,10.493190513212994,0.0662058636573659
23.397168,10.51833767090062,0.0659267800327366
23.399556,10.544555763774875,0.0656437625893553
23.401952,10.569191064783302,0.0653576531578657
23.404348,10.59275543060509,0.0650781673365887
23.406736,10.617250961986652,0.064798208368001
23.409116,10.64067555818158,0.0645261300326704
23.411512,10.6538101113907,0.0642969158682384
23.4139,10.66652535571924,0.0640803373282802
23.416284,10.682593175234558,0.0638443371561261
23.418684,10.698381455496152,0.0636174364863249
23.421072,10.712167635011332,0.0633981954956086
23.423452,10.730889181579125,0.0631648604766095
23.425848,10.744675361094302,0.0629479800136141
23.428236,10.75832177098262,0.0627358867464623
23.430616,10.771037015311162,0.0625251764867249
23.433016,10.783752259639703,0.0623153031692114
23.4354,10.801123331767135,0.0620991797732125
23.43778,10.81770300796165,0.0618809783437021
23.440184,10.833211748969529,0.0616685822530108
23.442572,10.846578619604124,0.0614658889944314
23.444952,10.859665950985002,0.0612719301552732
23.447348,10.867538376059548,0.0610996995123088
23.449736,10.873129161133956,0.060941848902355
23.452116,10.87592644952903,0.0607871371826957
23.454516,10.873788370871493,0.0606456776233937
23.456904,10.865504220347844,0.0605265759895505
23.459284,10.868953135048976,0.060377969960985
23.46168,10.874823459377104,0.0602118064257643
23.464068,10.876689582212398,0.0600584121652789
23.466452,10.878555705047694,0.0599053914987986
23.468848,10.877768100830515,0.059751259484177
23.471236,10.87404723030714,0.0596045591531304
23.473616,10.869255424597128,0.0594626636086776
23.476016,10.865953862954331,0.0593045861652537
23.478404,10.863723236498176,0.0591415869186488
23.4808,10.860561444482242,0.0589797161980497
23.483204,10.85837803985433,0.0587914231258361
23.485588,10.860198836719247,0.0585928276243073
23.487968,10.864441043211167,0.0583778767691228
23.490372,10.87496909119606,0.0581392104041456
23.49276,10.882843412128477,0.0578992052852824
23.49514,10.89607240899408,0.057636314747142
23.497544,10.912793750673323,0.0573528990462211
23.499928,10.935661164218676,0.0570506543790038
23.502308,10.963603714443506,0.0567331695730099
23.504708,10.998111645415024,0.056384854867174
23.507092,11.027451891908452,0.0560319182978994
23.509472,11.051577232095548,0.0556979526442689
23.511868,11.075842341909503,0.0553604817636807
23.514256,11.097733263924706,0.0550140585783218
23.516636,11.12320907855216,0.0546690362164147
23.519032,11.148824662806476,0.0543211477864011
23.52142,11.173788620754731,0.0539661163076556
23.5238,11.195400003516214,0.0536291086624441
23.526204,11.217290925531415,0.0532854985461163
