Time,Force,Position
21.433624,4.439557756834324,0.1782450650393594
21.436012,4.711029137501179,0.1754272507423061
21.438392,4.972913115032269,0.1727404577945969
21.440788,5.224465515322919,0.1700867685527351
21.443176,5.460054019044085,0.1673732623691415
21.445556,5.673392784702795,0.1649046272704925
21.44796,5.863595972709646,0.1629367734210945
21.450348,6.033222866460625,0.1614407284114133
21.452728,6.188838846702428,0.1601675104899556
21.455124,6.332121148957372,0.1588826437416277
21.457512,6.44779903721667,0.1578874521779852
21.495736,6.625094301866279,0.1571564883583571
21.498132,6.63449850526268,0.1570427856926746
21.50052,6.641248981606607,0.1569661583894055
21.5029,6.648511314629731,0.1569005750805635
21.505304,6.664713216198298,0.1566683026970021
21.507692,6.677330225154612,0.1564822947116782
21.510072,6.687573046312173,0.1563175610887636
21.512476,6.697955637096594,0.1561495364031558
21.514864,6.718813366464054,0.1558504163510052
21.517244,6.741206665869106,0.1555799529209812
21.519648,6.766253692326633,0.1552664948016191
21.522036,6.799448891396691,0.1547811781738346
21.524416,6.83241177304127,0.1542804119196313
21.526812,6.85964789170032,0.153883036337319
21.529196,6.887395867038568,0.1534982663673389
21.531576,6.912909424204919,0.153117658131832
21.533984,6.9287864605493965,0.1528221694959069
21.536368,6.938611868684246,0.1525674414373336
21.538748,6.940056786781089,0.1524445878889416
21.541144,6.941641474504795,0.1523144933413903
21.543532,6.952445270027665,0.1520109338766548
21.545912,6.963528604804256,0.1516930542434378
21.548312,6.974751709207708,0.1513679425435025
21.5507,6.987837144730715,0.1510195272659822
21.55308,7.001015128052343,0.1507080045049812
21.555476,7.02485524141211,0.1502251962159067
21.557864,7.047811411040344,0.1497155627821784
21.560248,7.058941967645181,0.149363745267427
21.562644,7.059038307159536,0.1491654012428753
21.565032,7.059414185927613,0.1489509808492643
21.567412,7.061931935068967,0.1486929282098216
21.569808,7.063193653426445,0.1483896919047442
21.572196,7.062081183985171,0.14810508932012
21.57458,7.062970815290314,0.1477866999935643
21.576972,7.062509972155096,0.1475044008656637
21.579356,7.066425417565052,0.147170006935795
21.58174,7.077790187453234,0.1467279195425384
21.584136,7.08570983435602,0.1463233126600553
21.586524,7.093769250885669,0.1459099897556909
21.58892,7.102060984840798,0.1455254695118719
21.591316,7.104858273235871,0.1452549656051475
21.593704,7.104210438645551,0.1450203190809053
21.596084,7.101747494763919,0.1447700584456928
21.59848,7.089181499351585,0.1446538298039035
21.600868,7.075032712073412,0.1445474841860266
21.605648,7.031696718933758,0.1445429687360289
21.608032,7.015685600536028,0.1444609697816196
21.610412,7.003538914004275,0.1443196297749453
21.612808,6.996699681577472,0.1441158601551591
21.615196,6.9931658025092,0.1438842292819733
21.617576,6.991726571985963,0.143653534090562
21.619976,6.987074535902809,0.1434837663783033
21.622364,6.9790699246328805,0.1433827856100214
21.62476,6.9745104363483446,0.1432468412037938
21.627156,6.974606775862699,0.1430491631263351
21.629544,6.97083868351108,0.142908807255444
21.631924,6.966511512652021,0.1427983980756813
21.634324,6.9625564288453,0.1427061829931628
21.636712,6.955668078732382,0.1426592569425246
21.639096,6.952783930112299,0.1425470990923852
21.641488,6.953344904477608,0.1424003907166736
21.643876,6.952647952201175,0.1423223167517011
21.646256,6.962705677761502,0.1421162378908411
21.64866,6.974578512613142,0.1419274282744201
21.651044,6.991199723062292,0.1417112799147855
21.653428,7.01447886205675,0.1414026379316718
21.655832,7.040411728103683,0.1410689358467881
21.65822,7.071652048255565,0.1406812500015374
21.6606,7.097817231727976,0.1403799320722198
21.662996,7.124261954454106,0.1400693202678186
21.66538,7.144700374940987,0.1398510386377973
21.66776,7.163928090614367,0.1396565661973736
21.670156,7.18902233890014,0.1393764553303537
21.672544,7.21411658718591,0.139099720040496
21.674924,7.238559209165624,0.1388277854948262
21.67732,7.266726493384451,0.1385114036382897
21.679704,7.300201231708226,0.1381410911266994
21.6821,7.337680171524836,0.1377139885060302
21.684496,7.382608435819674,0.1372028192372952
21.686884,7.425115290487515,0.1367478466432861
21.689264,7.468413541088274,0.1362940585876929
21.69166,7.516135302062447,0.1357599728555457
21.694044,7.559480774491448,0.1352719677560898
21.69644,7.601942303188913,0.134759681510505
21.698844,7.643519888154845,0.1342286281613885
21.701232,7.678299774948607,0.1337884939721841
21.703612,7.708795920995813,0.1334199980221924
21.706016,7.735427635177047,0.1331038640675225
21.7084,7.764480758985279,0.1327405980716442
21.71078,7.789389911673817,0.1324407756425492
21.713184,7.82309886328094,0.1320302105782256
21.715572,7.864396908993151,0.1315328011894465
21.717952,7.906626120265138,0.1310354841229239
21.720356,7.947552078925013,0.130535721665891
21.722744,7.980609404226079,0.1301360705917122
21.725124,8.010733463220948,0.1297743275632196
21.72752,8.038203795163344,0.1294371722952475
21.729908,8.061018299306848,0.1291503709216921
21.732288,8.076942557479567,0.1289173519238355
21.734684,8.093845203040306,0.128640307027153
21.737072,8.10702318636193,0.1284011302642422
21.739452,8.119921630429836,0.1281768462630943
21.741848,8.1346824056173,0.1279349202921378
21.744236,8.148512015244984,0.1277032412387181
21.746616,8.159128819312752,0.1275194254609414
21.749012,8.173190746365915,0.1273112578502655
21.7514,8.189254774165493,0.1270779297068447
21.75378,8.206017650099374,0.1268137063571265
21.756176,8.223339604540696,0.1265271059731482
21.758564,8.243362507862734,0.1261853385624781
21.760944,8.257379108945523,0.1259184974585113
21.76334,8.267159191109997,0.1256791279267547
21.765728,8.270980192863467,0.1254767173780211
21.768112,8.272287237191318,0.1252877188925692
21.770508,8.275596382265588,0.125073797804015
21.772892,8.280628088832556,0.1248488475324882
21.775276,8.28766189614594,0.1246011060207704
21.777672,8.294835473086183,0.1243465088574311
21.78006,8.301729510772708,0.1241040841786945
21.78244,8.307924700324929,0.1238939439519261
21.78484,8.316913386556486,0.1236579229754501
21.787228,8.322456949802651,0.1234439213858163
21.789624,8.324695159690284,0.1232456397770466
21.79202,8.328004304764555,0.1230331799335375
21.794408,8.331033910585107,0.1228327217289213
21.796792,8.331689328606904,0.1226389228807543
21.799188,8.331321033270303,0.1224249529901602
21.801572,8.329090406814144,0.1222280228092597
21.803952,8.323646974798072,0.1220749563384362
21.806356,8.314850967595223,0.1219712990659999
21.808744,8.305263564459457,0.1218696733934509
21.811124,8.295536391696832,0.1217739591932374
21.81352,8.284179205240127,0.1217175115367369
21.815908,8.273985501768678,0.121675293005302
21.818288,8.266585294976563,0.1216077871789497
21.820688,8.25988393631875,0.1215090280762423
21.823072,8.249597685048684,0.1214371477031277
21.825456,8.241453304151895,0.1213360997167512
21.827852,8.237452894374798,0.1211836756970636
21.83024,8.23014713123917,0.1210452254669088
21.83262,8.21911670586443,0.1209394012838923
21.835016,8.207806741235967,0.1208458449998758
21.837404,8.201432143660117,0.1206984135469081
21.8398,8.190913574964572,0.1206021046074311
21.842196,8.180395006269027,0.1205057877425801
21.84458,8.173740869439456,0.1203701746527492
21.84696,8.168389985222001,0.1202428975830984
21.84936,8.162759561750827,0.1201277714815811
21.851748,8.157780764585711,0.1200167939276566
21.854128,8.156666399286568,0.1198670668697092
21.856528,8.15955623548026,0.1196726582737056
21.858912,8.160443970927533,0.119500325423505
21.861292,8.168548713427555,0.1192409265336524
21.8637,8.182008131860771,0.1189132134077044
21.866084,8.194955693614787,0.118576292265284
21.868468,8.209206507980923,0.1182510450762867
21.870864,8.230255020519223,0.1178623416040075
21.873252,8.250512137124609,0.1174773693757794
21.875632,8.264762951490741,0.1171569151888101
21.878028,8.282738428095989,0.1168062072159659
21.880416,8.308722307686905,0.1163738693325702
21.882796,8.338850158397513,0.1158944281773919
21.885192,8.365625433921345,0.115465087648406
21.88758,8.398686550938148,0.1149632438995411
21.889976,8.436310947955226,0.1144002843109995
21.892372,8.474075114599165,0.1138376506528726
21.89476,8.512258590123684,0.1132610555893907
21.897144,8.554725806394755,0.1126369835243137
21.89954,8.592816734120658,0.1120322985212785
21.901924,8.627182999607445,0.1114572900711928
21.904308,8.659407394720958,0.1109110508605451
21.906704,8.69284249464797,0.1103447762623639
21.909092,8.720411061962588,0.109835364236192
21.911472,8.739179830358625,0.1094071303775608
21.913868,8.760742095433994,0.1089620612737846
21.916256,8.774994805657995,0.1085645446020203
21.918636,8.780447716963412,0.1082457460168303
21.921036,8.785481319388248,0.1079445888607609
21.923424,8.790514921813088,0.107641400432259
21.925808,8.794337819424424,0.1073570987023072
21.928204,8.790943709983015,0.1071488996398779
21.930592,8.786106578302626,0.1069370907642848
21.932976,8.78154898587596,0.1067139141830556
21.935372,8.7728474223296,0.1065337095278679
21.937756,8.763726549902659,0.1063708436547797
21.94014,8.751672411169523,0.1062319774161492
21.94254,8.738267797996027,0.1061157388719475
21.944928,8.720439674449118,0.1060512510786678
21.947308,8.711271580193932,0.1059207313887153
21.949708,8.703965817058302,0.1057778315720663
21.952092,8.697079362803255,0.1056181958919122
21.954476,8.69377780116046,0.105440439395352
21.956872,8.68833436914439,0.1052848327525364
21.959264,8.688245613061511,0.1050709535515339
21.961644,8.681079619552744,0.1049211364696485
21.96404,8.678429684216006,0.1047461465857827
21.966428,8.677642079998826,0.1045579739150498
21.968824,8.677785641341424,0.1043639802817126
21.97122,8.68072269936336,0.1041511407705642
21.973608,8.683659757385293,0.1039384082019613
21.975984,8.689669851340282,0.1036960167436287
21.97838,8.69563272346703,0.1034876346568594
21.980768,8.69810325078014,0.1033249195626399
22.011824,8.627298821555959,0.1032457046120563
22.014224,8.63549232013886,0.1032318266928322
22.016608,8.647550250587733,0.1031900747119491
22.018992,8.665474713649,0.1031046218186966
22.021388,8.684190572643184,0.1030193247886097
22.023776,8.699693626077453,0.1029671970147357
22.026156,8.71547621876544,0.102904489376183
22.028552,8.736613487386622,0.1027864312660089
22.03094,8.76003239600794,0.1026415612381627
22.033336,8.788666210935592,0.102445067563456
22.035732,8.821863305863516,0.1021940665089857
22.03812,8.85506040079144,0.1019421137035839
22.0405,8.88639516459981,0.1017041982594389
22.042904,8.918149237288759,0.1014511246600361
22.045292,8.955909612216958,0.1011514256959895
22.047672,8.995300000839238,0.1008183522680106
22.050068,9.037903195021432,0.100452772304246
22.052456,9.081205237337928,0.1000657489527195
22.054836,9.124135192602086,0.099664708352513
22.057232,9.164318873015151,0.0992532891693392
22.05962,9.200266034509909,0.0988538507053128
22.062,9.23290784264613,0.0984631633503954
22.0644,9.25730893037121,0.0981152196375485
22.066784,9.275191859177838,0.0978060685466769
22.069168,9.294704801678549,0.097468088511231
22.071564,9.323856160859004,0.0970433154297099
22.073952,9.356360095226238,0.0965879376171283
22.076332,9.387932864033692,0.0961406210943755
22.078728,9.418714236908226,0.0956959341429394
22.081116,9.453779350529317,0.0952169304456268
22.0835,9.485119801911292,0.0947589960016558
22.085896,9.521163302920405,0.0942510599307159
22.088284,9.5534821416904,0.093760876163929
22.09068,9.5840784189677,0.0932758847567548
22.093076,9.610298407699831,0.0928078630675351
22.095464,9.640010741245597,0.0923059655815617
22.097844,9.669862844418224,0.0918019846738782
22.10024,9.695850515724878,0.0913228599529259
22.102628,9.718393064046138,0.0908507811166367
22.105008,9.736512101993982,0.0904197016212456
22.107404,9.757564406248024,0.0899720049930742
22.109792,9.777545775315426,0.0895339074717072
22.112172,9.799109936248664,0.0890949131724842
22.114576,9.82146549311482,0.088657031463302
22.116964,9.840748014047923,0.0882429103833482
22.119344,9.847878160875664,0.0879126104358144
22.12174,9.845928969531094,0.0876420018278012
22.124128,9.841046511880334,0.0873878818608889
22.126508,9.834301723110018,0.0871416244207275
22.128912,9.819129222473451,0.086959915724832
22.1313,9.805027657023524,0.0867691162414101
22.13368,9.786223041946464,0.0866268632751333
22.136076,9.772214024295153,0.0864605662977605
22.138464,9.755131970710789,0.0863145064517118
22.140848,9.73641990343234,0.0861957903907402
22.143244,9.710071520220566,0.0861411266878516
22.145628,9.682232892941574,0.0861087734893831
22.148012,9.65877055420775,0.0860665830665607
22.150408,9.641826374392377,0.085998146741071
22.152792,9.627815460883197,0.0859138620377501
22.155188,9.612454072933655,0.0858471347796596
22.157588,9.597884080917035,0.0857812385514226
22.159972,9.588528995206747,0.0856784076936352
22.162356,9.57931367912332,0.0855707070683384
22.164752,9.57182092453259,0.0854605996071686
22.167136,9.566981896994337,0.0853440808327415
22.16952,9.570011502814884,0.0851848818195849
22.171916,9.575834605314771,0.0850151228795433
22.174304,9.580586772628015,0.0848533449962703
22.176684,9.591485011807375,0.0846511556123282
22.179084,9.601963942106153,0.0844636609873224
22.181472,9.613001950912372,0.0842569860237746
22.183852,9.616171326359783,0.0840919008510073
22.186248,9.630142601472196,0.0838706491772785
22.188636,9.641599919158992,0.0836491255461893
22.191032,9.658551682405845,0.0833810878977326
22.193428,9.677133459346772,0.0830866489264786
22.195816,9.68719497662284,0.0828279242665491
22.1982,9.691389961286516,0.082600109229981
22.200596,9.695864485203913,0.0823631150670498
22.202984,9.704762519494722,0.0820907189850614
22.205364,9.712729388225757,0.0818216395504079
22.20776,9.714410415463815,0.0815960221967753
22.210148,9.7151602771421,0.081373651535437
22.212532,9.715258512514325,0.0811455051120616
22.214928,9.72178235900638,0.0808710311491128
22.217312,9.721788046579988,0.0806185693272966
22.219692,9.721281877474398,0.0803556998058595
22.222096,9.724779909861642,0.080071519202484
22.224484,9.728557481502609,0.0797796717390827
22.226864,9.732894131651012,0.0794697158881652
22.22926,9.740815674411673,0.0791537368508337
22.231648,9.758747720904411,0.0787853729104772
22.234032,9.770161608478704,0.0784409604199374
22.236428,9.788512963852028,0.0780636225776015
22.238816,9.809518046277825,0.0776858349323755
22.241196,9.829172654263264,0.0773257117878527
22.243596,9.85590449967459,0.0769283563230835
22.245984,9.884498676205476,0.0765254424052812
22.248364,9.913744479042418,0.0761304542207736
22.250764,9.934702339639973,0.0757845806779417
22.253152,9.960595567290142,0.0754188306749485
22.255532,9.993705801993055,0.0750140585529238
22.257928,10.025605331882474,0.0746202342761401
22.260312,10.055083452144894,0.0742493245192747
22.262712,10.07920689647412,0.0739157280494389
22.265108,10.10677546378874,0.0735802115644179
22.267496,10.134716118155696,0.073261457239261
22.26988,10.161585837336014,0.0729518254725654
22.272276,10.186034146889336,0.0726663008276144
22.274664,10.20899221237544,0.0724013531495505
22.277044,10.228085845995569,0.0721513894955998
22.279444,10.243035508496003,0.0719255561020487
22.281832,10.256494926929218,0.0717197810584571
22.284216,10.27060597166849,0.0715226743484257
22.286612,10.27964187972829,0.0713503299735809
22.289,10.288677787788092,0.0711782312005894
22.291384,10.297294386967314,0.0710200943741426
22.293788,10.304840050959896,0.0708683325219834
22.296172,10.314527585325754,0.0707048852121916
22.298552,10.331152587490644,0.070514423092018
22.300956,10.34070035222964,0.070355657597249
22.303344,10.344893441035447,0.0702287459136319
22.305724,10.353882127267006,0.0700879974346089
22.30812,10.3680857198049,0.0699210038375822
22.310508,10.384151643462348,0.0697502839645916
22.312888,10.404221768612627,0.0695645940688261
22.315284,10.423360728203129,0.0693812196785615
22.317672,10.440078278166634,0.0692185774135912
22.320052,10.45586466257036,0.0690578268668721
22.322448,10.473513378093646,0.0688934818633653
22.324836,10.49102232399007,0.0687332477672115
22.327216,10.508111961005913,0.0685856688055715
22.32962,10.52692415951445,0.0684386278060907
22.332008,10.5386591205971,0.0683216533555799
22.334388,10.550394081679748,0.0682045541881126
22.336784,10.5609183379489,0.0680976777222993
22.339172,10.56636745753858,0.0680125471046405
22.341552,10.572747742688035,0.0679255557066538
22.343956,10.575915222277576,0.0678569711822267
22.346344,10.57694083149384,0.0678006100777059
22.348724,10.58304157738958,0.0677228972898953
22.35112,10.590492797725677,0.0676309781442962
22.353508,10.596221456569078,0.0675389759999131
22.355888,10.596874978733002,0.0674681680930738
22.358288,10.59780804015065,0.0673893104889532
22.360672,10.59087246820949,0.0673362463193959
22.363056,10.586218536268468,0.0672675615857967
22.365452,10.583054848394664,0.0671807688436899
22.36784,10.583103966080774,0.0670768992384193
22.37022,10.585434723767024,0.0669580641914828
22.372616,10.590978287013192,0.0668225534462469
22.375004,10.59936256876694,0.0666560578420545
22.3774,10.605372662721926,0.0664820594799286
22.379796,10.61487510149055,0.0662828162315973
22.38218,10.625588245072674,0.0660739938903678
22.384564,10.635789531975597,0.0658541223907186
22.38696,10.65041432925194,0.0656076106666979
22.389348,10.666529370595498,0.0653441316585483
22.391728,10.683994886379416,0.0650677558519886
22.394128,10.698155048804802,0.0647850722098546
22.396516,10.713525916043686,0.0644949598865156
22.398896,10.727965617722797,0.0642065519829292
22.401292,10.738540887535928,0.0639276437593958
22.40368,10.7501870925357,0.0636427793022303
22.40606,10.761041901602551,0.0633560805724301
22.408456,10.779113717722154,0.0630400180237984
22.410844,10.79518343309534,0.06273194143134
22.41324,10.811392918095388,0.0624205667623696
22.415636,10.824669136789238,0.0621179487934346
22.418024,10.833149758057337,0.0618263494641927
22.420404,10.8388368826461,0.0615391536964981
22.4228,10.84238213686159,0.0612632437804126
22.425188,10.850071362196768,0.0609714616361292
22.427568,10.856689652345311,0.0606849149097016
22.429964,10.864378877680492,0.0603940469197541
22.432356,10.876863700441424,0.0600947179264344
22.434736,10.890279688762131,0.0597958317441858
22.437132,10.900482871522929,0.0595119423123903
22.439516,10.906681852790888,0.05923968009516
22.4419,10.916605496297962,0.0589635821312761
22.444296,10.918520736819367,0.0587104635991547
22.44668,10.92029620771392,0.0584609969149963
22.449076,10.925144714541524,0.0582006108850762
22.451472,10.93413719248882,0.0579258705941481
22.453864,10.942058735249478,0.0576560950274381
22.456244,10.94811794689058,0.0573895183160305
22.45864,10.952314827412124,0.0571244078082428
22.461028,10.95730310386659,0.0568629379336079
22.463408,10.96308277625397,0.056604582947444
22.465804,10.969793614201128,0.0563451345279389
22.468192,10.977156078454346,0.0560927700598199
22.470572,10.9843787730807,0.0558446511015044
22.47298,10.987317726960503,0.0556149991473108
22.475364,10.99412111270628,0.0553796137381583
22.477748,11.001995433638694,0.0551409028440795
22.480144,11.006936488264913,0.0549087536443105
22.482532,11.006942175838525,0.0546870828634009
22.484912,11.011883230464742,0.0544554870671881
22.487308,11.01975755139716,0.0542181472180366
22.489696,11.028423268262491,0.0539850611852662
22.492076,11.043886683299991,0.0537405642722414
22.494472,11.061631738337631,0.0534844069941869
22.49686,11.07923702374841,0.0532326499632547
22.499256,11.093769273226131,0.0529910374488618
22.501652,11.108161753076995,0.0527531430803817
22.50404,11.119341427367946,0.0525279742049699
22.50642,11.13131249759181,0.0523059170934281
22.508816,11.138487970389924,0.0520891933424291
22.511204,11.1445925080014,0.051876537273867
22.513588,11.152559376732432,0.051663495876481
22.515984,11.156801583224349,0.0514512389735493
22.518372,11.159833084902768,0.0512467698238313
