Time,Force,Position
21.479444,5.907708580235457,0.1620723219320046
21.524836,6.211740421768644,0.1612746385240233
21.527232,6.2213769425905205,0.1611770288375705
21.52962,6.233712516435247,0.1611271887842313
21.532004,6.247491112518949,0.1610716678470246
21.5344,6.269976959722619,0.1608118495039728
21.536788,6.294279812075475,0.1604295575588381
21.539168,6.317186864017596,0.1600093753011927
21.541568,6.329152246667854,0.1598139995938506
21.543956,6.348799271221815,0.1595177348290479
21.546336,6.383904023239672,0.1589263176910532
21.548736,6.409697119659744,0.1584956264245073
21.551124,6.426690417161232,0.1582417226747508
21.553504,6.457092119551952,0.157798397496429
21.5559,6.498760356458631,0.1572195444511717
21.558288,6.548529544149592,0.1565126265452026
21.560668,6.603513638146889,0.1556982032643113
21.563068,6.658917041024765,0.1548613405480624
21.565456,6.712038803902503,0.1540991697356792
21.567852,6.765020797153382,0.1533609142522988
21.570248,6.823637005591172,0.1524849192011654
21.57264,6.88178857917801,0.1515618784072311
21.57502,6.926811287129333,0.1508391492589074
21.577416,6.962801878736593,0.150245695151105
21.579804,7.002889219635304,0.1496190499486734
21.582188,7.035619783854406,0.1491380092803368
21.584584,7.070352448819922,0.1486206676826209
21.586972,7.112254899009946,0.1480248496273228
21.589352,7.162537839237976,0.1473153888009561
21.591752,7.21584659357082,0.1466038658438546
21.594136,7.263381363089888,0.1460294751691943
21.59652,7.317201974101928,0.1453357107086174
21.598916,7.370138641382433,0.144610788432578
21.601304,7.411389465266401,0.1440457076032755
21.603688,7.445842590978199,0.1435957523922026
21.606084,7.484020378929109,0.1431071832048159
21.608472,7.513305820162818,0.1427154984175259
21.610852,7.540124525799157,0.1423075237838911
21.613248,7.567781849196654,0.1418631177803781
21.615636,7.594368237407514,0.1414425964960363
21.61802,7.626401849350183,0.1409710750499027
21.620416,7.657224756479355,0.1405273381012352
21.622804,7.680970426182636,0.1401855261190438
21.625184,7.710442858871448,0.1397694799943619
21.62758,7.741637853052959,0.1393452823673016
21.629968,7.781492876526192,0.1388099373362643
21.632352,7.822279065559205,0.138266603456426
21.634748,7.850867554516483,0.1378399337161701
21.637136,7.876430229368947,0.1374309269808078
21.639532,7.894683349370047,0.1371003080239243
21.641928,7.912564382318808,0.1367525198743921
21.644316,7.927931457841954,0.1364246010062147
21.6467,7.942786676685903,0.1360860569691791
21.649096,7.95764189552985,0.1357463129859665
21.725536,7.616395486570815,0.1355547579245297
21.727932,7.60368782567375,0.1355426659378288
21.73032,7.594565057388937,0.1354962479383565
21.732716,7.596616275821467,0.1353233357887274
21.735108,7.600809364627274,0.1351178632458653
21.737496,7.599694999328131,0.1349614001866757
21.739876,7.600350417349925,0.1347528410479585
21.742268,7.603659562424196,0.134518782862658
21.744656,7.611904074551079,0.1342205859793704
21.747048,7.616935781118047,0.1339750685188432
21.749452,7.618242825445899,0.1337707379321628
21.75184,7.620853122385867,0.1335714633533945
21.75422,7.632076226789319,0.1333042497334399
21.756624,7.65568402272361,0.1328938264418886
21.759008,7.677709026792064,0.1324942298925502
21.761388,7.702295210114377,0.132042798781161
21.763792,7.721386947876637,0.1316809956570553
21.766176,7.754213851610094,0.1311467875766218
21.768556,7.793885675343962,0.1304963682551103
21.77096,7.831090763480461,0.1298322041378299
21.773344,7.862988397512007,0.1292132706530117
21.775724,7.888320650796864,0.1287040605160672
21.778128,7.916446400761055,0.1281677371289986
21.780516,7.9421979629264925,0.1276451139987484
21.782896,7.9619904446809215,0.1271659558223543
21.785288,7.985367819047603,0.1266581452848829
21.787676,8.01070007233246,0.1261632248701736
21.790056,8.036963491177094,0.1256588397984512
21.79246,8.05656898147642,0.1252266197332822
21.794844,8.073008888044074,0.1248025729732251
21.797224,8.089448794611728,0.1243770315018434
21.79962,8.111895003418631,0.1238779210227469
21.802004,8.130244462934085,0.123403302100594
21.804384,8.137047848679863,0.1230232596737941
21.806788,8.136401909947413,0.1227121030142523
21.809176,8.13640759752102,0.1224065553250587
21.811556,8.138415385841046,0.1220747254512032
21.81396,8.131763144869346,0.1218365566657752
21.816344,8.120315306471893,0.1216483904605322
21.818724,8.108960015873059,0.121489288779364
21.821128,8.101049848259615,0.1213083031758095
21.823512,8.095002011765729,0.1211099965230048
21.825892,8.088442318592644,0.1209015896406853
21.828288,8.081091229486644,0.120695326821451
21.830676,8.076114328179395,0.1204827131866217
21.833056,8.070206261312372,0.120278856261698
21.83546,8.061364928139149,0.1201056659945821
21.837844,8.053454760525707,0.1199243451204526
21.840224,8.04861762884532,0.1197054513325862
21.842628,8.049227720896742,0.1194433249240215
21.845016,8.056495741493475,0.1191197385054438
21.847396,8.057617690224093,0.1188696794639645
21.8498,8.056038690073994,0.118672595818967
21.852188,8.058416669588487,0.1184658637233844
21.854568,8.073691197313016,0.1181531882444806
21.856972,8.086404545783688,0.1178890421602072
21.85936,8.104053261306973,0.1175738732244986
21.861736,8.122213833509452,0.1172679760317069
21.86414,8.137161600152018,0.1170037837100018
21.866528,8.151178201234806,0.1167483234853193
21.868904,8.16691736381029,0.1164845675104832
21.871312,8.182656526385772,0.1162211410842463
21.873696,8.196905444894037,0.1159913720720586
21.876076,8.210874824148583,0.1157745306295616
21.878468,8.223773268216487,0.1155724034658362
21.880856,8.232248201910977,0.1154316558267114
21.883236,8.245518733031222,0.1152463219243557
21.885632,8.259860199338101,0.1150485789065862
21.88802,8.278717723817014,0.1148216161576185
21.8904,8.29636454348243,0.1146158704765209
21.892804,8.303721320162039,0.1145273395135601
21.895188,8.317736025386957,0.1143808849802634
21.897568,8.338827968037764,0.1141594152885383
21.899972,8.362061781061847,0.1139134283137509
21.90236,8.377566730353985,0.1137402386204554
21.90474,8.393351218899843,0.1135551958318031
21.907144,8.407645463378481,0.1134027629123027
21.909528,8.425943909349954,0.1132108315561152
21.911912,8.450108887933816,0.1129650336599872
21.914312,8.476136197637233,0.1127065154599381
21.9167,8.500021636967377,0.1124746649252357
21.91908,8.527771508163491,0.1122117056642379
21.921476,8.557663249732885,0.1119248867259379
21.92386,8.586484056115639,0.1116504460388701
21.92624,8.613162992125115,0.1114003881350512
21.928636,8.647198704814203,0.1110682412468914
21.931024,8.677509755264175,0.1107653311917036
21.933416,8.706889640154369,0.110471892083572
21.935812,8.728540661312618,0.1102452623204642
21.9382,8.74981959541853,0.1100035997437302
21.94058,8.781528342137106,0.1096499364584631
21.942984,8.812725232176481,0.1092914772942099
21.945372,8.83847489848405,0.1089698252209396
21.947752,8.859428967365865,0.1086869791251453
21.950156,8.884387237740516,0.1083687598921324
21.95254,8.909485277742027,0.10804558751498
21.95492,8.93435100031806,0.1077031298888782
21.957324,8.95498020397578,0.1073768469790132
21.959712,8.972815910954166,0.1070712360931363
21.962092,8.986135559760521,0.1067909389355284
21.964496,9.002156157447594,0.1064667926748037
21.966884,9.013520927335776,0.1061747690738179
21.969264,9.020881495731125,0.1059179676578336
21.971668,9.03052370412661,0.1056330740356764
21.974052,9.04337871808201,0.1053135329343876
21.976432,9.052089760917717,0.1050362506893198
21.978836,9.06401360931334,0.1047259276343482
21.981224,9.076077227335825,0.1044116066341383
21.983604,9.093355751664635,0.1040467435510579
21.986,9.112217067859287,0.1036830016049471
21.988388,9.125863477747608,0.1033722762624245
21.990768,9.132432650210037,0.1031224089595612
21.993172,9.13685995229919,0.1028936490913252
21.995556,9.140356088828566,0.1026694002939826
21.997936,9.136263131252852,0.102495811320334
22.00034,9.129236907370943,0.1023443088444237
22.002728,9.120208582742622,0.1022093961687469
22.005108,9.113554445913053,0.1020733957298738
22.007512,9.104898208337064,0.1019538348047546
22.0099,9.100897798559966,0.1018058592281189
22.01228,9.09168248247654,0.1017073325534
22.014676,9.080325296019838,0.1016306452872567
22.017064,9.071389519190133,0.1015208026310884
22.019444,9.061382807173786,0.1014218276523944
22.021848,9.05258679997094,0.1013064574147514
22.024236,9.043790792768093,0.1011910184667181
22.026616,9.033644311124885,0.1010970465315808
22.029016,9.020285023921764,0.1010352307405631
22.0314,9.003573161531865,0.1010106274334663
22.036188,8.964282904139681,0.1010033920392684
22.038572,8.949573142496199,0.1009621814151333
22.040952,8.941521309398027,0.1008778828324121
22.043348,8.938125304098747,0.1007667041260449
22.045736,8.94553119846447,0.1005760339222691
22.048116,8.957732690255945,0.1003535225610407
22.050512,8.96751277242042,0.1001619718386409
22.0529,8.979434724958173,0.0999506689377741
22.05528,8.997223210108316,0.099698451854124
22.057676,9.014360068952405,0.0994428244974743
22.060064,9.036292525222242,0.0991562407980415
22.062444,9.062508722238634,0.0988278703731791
22.06484,9.087514214441525,0.0985158554939435
22.067224,9.116523908137252,0.0981761482159819
22.069604,9.141529400340143,0.0978682283704787
22.072008,9.16602303586384,0.0975501858396384
22.074396,9.189073649148558,0.097227420060034
22.076776,9.214545672060275,0.0968737351760349
22.079172,9.239366068665936,0.0965135009743537
22.08156,9.264605774152177,0.0961386188206742
22.083944,9.290916414825052,0.0957525934470503
22.086348,9.316575429191872,0.09536392676062
22.088736,9.334924888707326,0.095010018979126
22.091116,9.352622721916722,0.0946525863654547
22.09352,9.36231215214045,0.0943562026501485
22.095908,9.372141351991038,0.0940565959020142
22.098288,9.384391961468625,0.0937259575073823
22.100684,9.394920009453514,0.0934018366576262
22.103072,9.397858963333316,0.0931199156256514
22.105452,9.396514176466567,0.0928762048407248
22.107852,9.39344682810712,0.092637090508279
22.11024,9.389029005307313,0.0924179066271339
22.11262,9.385402578440424,0.0921991265203271
22.115016,9.375490310080565,0.0920325463965102
22.117404,9.36716083358654,0.0918668643435531
22.119784,9.358272278585078,0.0917210231654345
22.122188,9.351618141755509,0.0915820896081384
22.124572,9.346546796791774,0.0914445926349581
22.126952,9.345200114067154,0.0912897370348663
22.129344,9.341292252088673,0.0911683607047865
22.131732,9.34031765641639,0.0910291828282195
22.134124,9.335990485557332,0.0909227771215773
22.136528,9.336970768803225,0.0908005097231591
22.138912,9.336880116862472,0.0906877180340399
22.141296,9.337720630481504,0.0905703675549363
22.143696,9.333625777047924,0.0904842020998377
22.146084,9.334046981786374,0.0903822292268028
22.14846,9.331115611338046,0.0903126663238811
22.150856,9.336984039808303,0.0901910748368198
22.153244,9.349789936077595,0.0900261646159104
22.155624,9.362316293093162,0.0898715201618833
22.158028,9.377915686041783,0.0896958675399373
22.160416,9.397659050110104,0.0894910586666053
22.162792,9.42089475899206,0.0892499109443393
22.1652,9.44576048156809,0.088981469840615
22.167584,9.471185282651565,0.0886933826374002
22.169964,9.495306831122925,0.0883950588558099
22.17236,9.518497214034502,0.0881024302928934
22.174748,9.540756431386304,0.0878153905711303
22.177128,9.56636822392488,0.0874974838876479
22.179524,9.59104885090368,0.0871856162498011
22.181908,9.617871348255754,0.0868561011460319
22.184288,9.642971284115132,0.086530652840092
22.186684,9.668071219974513,0.0862058938289483
22.189072,9.69503348695345,0.0858740578906991
22.191468,9.727862286544774,0.0855111921057977
22.193864,9.75496432315057,0.0851766913040708
22.196252,9.782345899010089,0.084831254433244
22.198632,9.802650237443714,0.0845326994093906
22.201036,9.816156877705172,0.0842697281712364
22.203424,9.831945157966768,0.0839865543391071
22.205804,9.844148545616113,0.0837141343826833
22.208208,9.854210062892175,0.0834603347384909
22.210592,9.864131810541382,0.0832123376376833
22.212976,9.875496580429564,0.0829732495578559
22.21538,9.89016670367628,0.0827358405351211
22.217764,9.904557287669274,0.0825082680998682
22.22014,9.916014605356072,0.0822950891132073
22.222536,9.927471923042871,0.0820827168244295
22.224924,9.939860406289448,0.0818683750057994
22.227304,9.951038184722526,0.0816668972517144
22.229696,9.962215963155604,0.0814657365135185
22.232084,9.97432490714846,0.0812620125745401
22.234464,9.988575721514596,0.0810440447895739
22.236868,10.006039341440644,0.080805208986549
22.239252,10.017496659127442,0.0805982064398204
22.241636,10.031747473493574,0.0803821559736294
22.244032,10.05158528121838,0.080149156983972
22.24642,10.071143549689465,0.0799240808422196
22.2488,10.0942867107728,0.0796911154866273
22.251204,10.113937527042502,0.0794903264110336
22.253588,10.134751826297457,0.0793064857761556
22.255968,10.15049098887294,0.0791508695353423
22.258364,10.162877576261646,0.0790221539343652
22.260752,10.173401832530798,0.0789001791906224
22.263136,10.180992822493751,0.0787918464523859
22.265532,10.187373107643207,0.0786953234491624
22.267916,10.194544788725583,0.0786001041894692
22.270316,10.20385834018124,0.0784909601411448
22.272712,10.211821417196534,0.0783985118322204
22.275096,10.221646825331383,0.078300761753474
22.27748,10.23426573014557,0.0781952652418628
22.279876,10.245813699773116,0.0780972645792919
22.282264,10.255871425333444,0.0780201439895223
22.284644,10.258991683094742,0.0779753719369934
22.28704,10.269980574214848,0.0778962920960708
22.289428,10.281249004588672,0.0778089363372045
22.291808,10.28585950641719,0.0777445990050031
22.294204,10.298757950485095,0.0776339840870401
22.296592,10.3128670993665,0.0775127116802492
22.298988,10.33046859306154,0.0773626383366926
22.301384,10.347558230077382,0.0772024958160704
22.303772,10.368931607839782,0.0770147624185372
22.306152,10.393517791162097,0.0768063481908208
22.308556,10.415170708178213,0.0766100164438337
22.31094,10.439384804448183,0.0763882248066374
22.313324,10.464809605531658,0.0761553332911947
22.31572,10.495449312921464,0.0758942441622037
22.318108,10.52008271807202,0.0756615593777281
22.320488,10.545275201730016,0.0754128883117929
22.322892,10.56688279277576,0.0751700654279048
22.32528,10.585836656769027,0.074931561848857
22.32766,10.605070060016017,0.0746850243600048
22.330056,10.622860441024027,0.0744308510442367
22.332444,10.643584088338237,0.0741648761888143
22.334824,10.655927245614444,0.0739208793899783
22.337228,10.666408071771087,0.0736819824298678
22.339616,10.680893099420569,0.0734252768518236
22.341996,10.687509493711238,0.0732008537969906
22.3444,10.691751700203156,0.0729711279780169
22.346788,10.692129474829102,0.0727546662723772
22.349168,10.692786788708768,0.0725300413611278
22.351564,10.694794577028793,0.0722917280102293
22.353952,10.69629050866962,0.0720435715925664
22.356336,10.700347619564306,0.0717704134388141
22.358732,10.700400528966158,0.0715140762308801
22.36112,10.703945783181643,0.0712321884564742
22.3635,10.702043813665318,0.0709588649886973
22.365896,10.70428581526869,0.0706651826569282
22.368284,10.702803154632948,0.0703790151819117
22.370664,10.707746105117035,0.0700579783813574
22.37306,10.711106263735289,0.0697324010179209
22.375444,10.714745961607264,0.0693991317769564
22.377824,10.720667299479372,0.0690506350986481
22.380228,10.726216550299146,0.0686879193145986
22.382612,10.739494664850866,0.0683038024813621
22.384992,10.753983484216086,0.0679103399734192
22.387392,10.769031382088746,0.0675025552073125
22.38978,10.783427653655348,0.0670871397627108
22.39216,10.796892759662173,0.0666732894725774
22.394564,10.812499736042271,0.0662482344200864
22.396948,10.828386251676092,0.0658162642446602
22.399328,10.837195529884024,0.0654109610329829
22.401732,10.8441424769724,0.0650088112376285
22.40412,10.848668014433777,0.0646256280089838
22.406496,10.858408458201486,0.0642201776516206
22.4089,10.862933995662864,0.0638389929599313
22.411288,10.869042324990078,0.0634628834812993
22.413668,10.874499028011236,0.0630812055637426
22.416072,10.881678292525088,0.0626999957088683
22.418456,10.880429845172692,0.0623576605877823
22.420836,10.878762088939714,0.0620263741423887
22.423232,10.87509223196032,0.0617013266071591
22.42562,10.868069799794153,0.0613957930933079
22.428,10.86169899393404,0.0610968922678645
22.430396,10.84974119471526,0.0608055161353232
22.432784,10.839785496242897,0.0605084141928468
22.43518,10.826197683330037,0.0602378808110194
22.437576,10.816194763029428,0.0599665192405789
22.43996,10.811778836087491,0.0596894841267035
22.442344,10.806012434705194,0.0594250734610493
22.44474,10.798616019628817,0.0591810285845482
22.447124,10.796946367537972,0.0589265035029171
22.449504,10.796719737686104,0.0586815839936418
22.451908,10.800357539700208,0.0584292011933047
22.454296,10.79649879540784,0.0582105766659377
22.456676,10.793431447048391,0.0579944890271217
22.45908,10.78743083238275,0.0577844796300742
22.461468,10.77993997364989,0.0575908295172074
22.463848,10.774451215663444,0.057391610663917
22.466244,10.772175263236914,0.0571773862528805
22.468628,10.77283257711658,0.0569567590241783
22.471012,10.7770747836085,0.0567371455448806
22.473408,10.784529795660331,0.0565036659462253
22.475796,10.791705268458443,0.0562783259046434
22.478176,10.802186094615092,0.056062196944052
22.480572,10.808103640771463,0.0558725365935882
22.48296,10.817094222860892,0.0556730892685347
22.485356,10.82636434420404,0.0554667191916009
22.48776,10.827626062561524,0.0552811791154783
22.490148,10.833031752038696,0.0550822044218202
22.492528,10.83978791595623,0.0548711492611226
22.494924,10.845752683940844,0.0546573581962837
22.497312,10.85199699117918,0.0544361933863546
22.499696,10.854656405805263,0.054213625442178
22.5021,10.864672597110951,0.0539646620331118
22.504484,10.877761824349705,0.053707245864407
22.506868,10.89778851938748,0.0534359747809887
22.509264,10.91609265293256,0.0531613483209203
22.511652,10.93318608166414,0.0528955907081263
22.514032,10.94986020151514,0.0526412520254132
22.516428,10.968536422112557,0.052383876852462
22.518816,10.983348210844,0.0521322403741888
22.521196,10.995878359575306,0.0518931934707862
22.523596,11.007477342746832,0.0516545645976738
22.525984,11.011487231813277,0.0514216758920867
22.528364,11.019641091999407,0.0511763350197475
22.530768,11.025932621065987,0.0509319346722116
22.533156,11.026869474199374,0.0507074414900402
22.535536,11.032881464012233,0.0504698786367529
22.537928,11.0335387778919,0.0502528720621203
22.540316,11.031914451771426,0.0500474300548301
22.542692,11.030010586397236,0.0498496536181117
22.5451,11.026756246582686,0.0496633016686988
22.547484,11.02615563382061,0.049480137520392
22.549864,11.016987539565424,0.0493281430608313
