Time,Force,Position
21.731232,5.327400360765414,0.1713176912667069
21.733628,5.418631835329259,0.1709650371178225
21.73602,5.491942638547575,0.170727766005405
21.7384,5.548821118629717,0.1706856491454876
21.740796,5.596297291173325,0.1706683163157679
21.743184,5.649411470619587,0.170183722270465
21.745564,5.6983873665197615,0.1693938491559983
21.747964,5.726090015887634,0.168789469763927
21.750352,5.744016374806769,0.1683329309148866
21.752732,5.76147620301708,0.1679637464649708
21.755128,5.787781156116351,0.1675026906091607
21.757516,5.81967310257429,0.1669204189921249
21.759896,5.8510531923530325,0.1663122266934174
21.762292,5.880710720639079,0.1657343572640563
21.76468,5.912555445268776,0.165207322406006
21.76706,5.956458100347349,0.1645201904802812
21.76946,6.012418685874795,0.1636415465891328
21.771848,6.068519041029102,0.1627340589962115
21.774228,6.117589380585764,0.1619464870909411
21.776624,6.168661820888842,0.1611390290940351
21.779016,6.226205198282125,0.1602788373842107
21.781396,6.280535770115493,0.1594781542118014
21.783792,6.324530972992682,0.1588098222469204
21.78618,6.362754086913968,0.1581650963745532
21.788564,6.398603013036498,0.1575508008592286
21.805308,6.4963526465187895,0.157362655526558
21.817248,6.546529767943122,0.1573507200076144
21.819644,6.560402807683311,0.1572186763670769
21.822032,6.575673543692101,0.1570026178707487
21.824412,6.582611011491131,0.1568765175856165
21.826812,6.585311960371849,0.1567997223680859
21.8292,6.599466435223627,0.1565380147107812
21.831584,6.622653026419469,0.1561412953715691
21.83398,6.647422409481146,0.1557261616938736
21.836368,6.6728906406771245,0.1552721108502142
21.838748,6.700221202992659,0.1547961529803901
21.841148,6.73635156422678,0.1541698803366183
21.843536,6.777836601394092,0.1534232120006152
21.84592,6.821231191509204,0.1526042691931953
21.848316,6.862159046026947,0.1517781493482345
21.850704,6.901830869760816,0.1509052696558722
21.853088,6.932982433829819,0.1501871917487298
21.855484,6.965297480884079,0.1494860171067052
21.857876,6.999614628684753,0.1487418105537047
21.860256,7.032256436820979,0.147976737519151
21.862664,7.056425207120577,0.1473072825070377
21.865052,7.080454207793316,0.1466524691110803
21.867432,7.094937339584927,0.1462304361548414
21.869828,7.106999061749541,0.145864635349805
21.872216,7.117989848727516,0.1455168344367955
21.8746,7.122881785667623,0.1452392715769293
21.876996,7.121255563689283,0.1450573375214303
21.879384,7.127358205442889,0.1447576847176057
21.881764,7.138815523129688,0.1443562433858199
21.88416,7.146455630778758,0.1439730969731962
21.886548,7.142968973538729,0.1437015970616522
21.888932,7.131381365514416,0.1435302884901098
21.891328,7.119374448609524,0.1433815742480374
21.893716,7.105877287637411,0.1432756277513576
21.8961,7.093451061851936,0.1431481098580812
21.898496,7.082467858305437,0.1430181037471394
21.900884,7.068271849199022,0.1429484985989586
21.903268,7.057520963078001,0.1428437527848075
21.905664,7.054079631808347,0.1426492285234829
21.908056,7.047705034232496,0.1424977453600474
21.910436,7.041749745537227,0.1423226557361805
21.912832,7.031790255349124,0.1422117998487982
21.915224,7.024112405161159,0.142053628030174
21.917604,7.023092483518502,0.1418017339129729
21.92,7.025984215570062,0.1414513171351247
21.922388,7.030878048368039,0.1410657669496832
21.924768,7.034653724151133,0.1407405149988035
21.927172,7.033726350307094,0.1405221377125398
21.92956,7.02837546608964,0.1403904146214096
21.931936,7.022325733737882,0.1402960007219648
21.934336,7.025308117730191,0.1400937735270873
21.93672,7.030897006946731,0.1399028279399236
21.9391,7.043004055081719,0.139629659434557
21.941504,7.0584636784034815,0.1392917833657358
21.943892,7.067777229859133,0.1390556356674399
21.946272,7.074716593516031,0.1388330128427943
21.948676,7.088593424971958,0.1385043661006274
21.951064,7.096743493442357,0.1382568665444816
21.953444,7.098794711874886,0.1380715325279061
21.955844,7.103779196613611,0.1378426946876391
21.958232,7.108716459524091,0.1376532199904379
21.960612,7.120171881353021,0.1373824071755582
21.963008,7.132418699114869,0.1371077439178341
21.965396,7.139218293144906,0.136897229394492
21.967776,7.143037399040505,0.1367696568693291
21.970172,7.148811383854279,0.1366519496295813
21.97256,7.160079814228106,0.1364322089035463
21.974944,7.170324531243536,0.136192760360878
21.97734,7.182478801206767,0.1358907429626725
21.979724,7.196914711170136,0.1355421168218642
21.982108,7.207066880386949,0.1352689880342529
21.984504,7.218197436991785,0.1349445127449851
21.986892,7.219364711692777,0.1347318148336907
21.989276,7.213594518594742,0.1346196489662786
21.991672,7.210338282922322,0.1344875766080734
21.99406,7.211039026914492,0.1343358348250855
21.99644,7.210529066093162,0.1342114734997916
22.003604,7.1896298024710665,0.1341411121523262
22.006,7.185068418328661,0.1341167646390549
22.008388,7.177341450454584,0.1341076473787541
22.010784,7.169382165155029,0.1340724464904236
22.01318,7.162214275788392,0.1340332524609154
22.015572,7.155837782354673,0.1339903986780029
22.017952,7.151370841868754,0.1338841632924627
22.020348,7.143458778397443,0.1338078065266544
22.02752,7.112922993953468,0.133781808786032
22.029908,7.110922789064921,0.1336978029209817
22.032288,7.11064514566907,0.1335999215788372
22.034684,7.1152556474975865,0.1334735595537881
22.037072,7.12689616492375,0.1332822559977191
22.039452,7.144635532387781,0.1330381938635324
22.041848,7.163445835038452,0.132780140124748
22.044236,7.175598209143812,0.132602722375991
22.046616,7.199204109220235,0.1322861720402109
22.049012,7.234403304894577,0.1318240926583665
22.0514,7.272815306128835,0.1313121329901437
22.05378,7.309644515497256,0.1308091704668209
22.05618,7.344192084865541,0.1303495186696524
22.058568,7.380834302778858,0.1298987114432045
22.060948,7.421852809237347,0.1294151384807014
22.063344,7.469808783494865,0.1288465305794613
22.065732,7.518136844804721,0.1283044541857859
22.068116,7.568047697980413,0.1277612203727332
22.07052,7.620704826007196,0.127232689570372
22.072904,7.678297321086592,0.1266420146725421
22.075288,7.73579726836737,0.1260245046173139
22.077688,7.788920927102978,0.1254546174139262
22.080076,7.83953062841297,0.1249055450444513
22.082456,7.893912213790321,0.1242931325851733
22.084852,7.947781942488472,0.1236773920937679
22.08724,8.001047266708808,0.1230332915949787
22.08962,8.046071870518002,0.1224614333504762
22.092016,8.097894172499362,0.1218134677337142
22.094404,8.141987610748776,0.1212579020254526
22.096784,8.177421019706465,0.1207983489811865
22.099184,8.206987896051762,0.1204025814367337
22.101572,8.238277333889759,0.1199980530904353
22.103956,8.272639807660807,0.1195570205211617
22.106352,8.304628093633104,0.1191251360479942
22.108736,8.333311026246868,0.1187117634547619
22.111132,8.353473699195764,0.1183811773271175
22.113532,8.369120313972632,0.1180857818241301
22.11592,8.385837863936137,0.1177791639314824
22.118304,8.396084476809436,0.1174936423765974
22.120696,8.404096671510842,0.117209131551809
22.123084,8.414110966958665,0.116905326394201
22.125464,8.422495248712409,0.1166402914871675
22.12786,8.434324653451544,0.1163586458825171
22.130248,8.43986821669771,0.1161542854234721
22.132628,8.442338744010819,0.1159847105220086
22.135024,8.439966452069935,0.1158928515461382
22.137412,8.444252088674359,0.1157426736868561
22.139808,8.444952832666528,0.1156167041426358
22.142204,8.445513807031837,0.1154964102489637
22.144592,8.446214551024008,0.1153696208450476
22.146972,8.45334090613601,0.1151625075638456
22.149372,8.461166109382312,0.1149273686413403
22.15176,8.468199916695696,0.11469503463308
22.15414,8.47630465919572,0.1144503723273467
22.156536,8.483058927255383,0.1142304756591514
22.158924,8.493817396807883,0.113969761848581
22.161304,8.507369363039714,0.1136872992145928
22.1637,8.515985962218934,0.1134531360549698
22.166088,8.528699310689607,0.1132060015446137
22.168468,8.541924515839476,0.1129703667185637
22.170864,8.548863879496373,0.1128070932658614
22.173252,8.554360220914297,0.1126400453979961
22.175648,8.55347817304063,0.1125171734584127
22.178044,8.551804729234046,0.1123951750683028
22.180432,8.55269246468132,0.1122296717911127
22.182816,8.553627421956838,0.1120295725693613
22.185212,8.550837716993241,0.1118579543548632
22.1876,8.5499103431492,0.1116722721187217
22.18998,8.55033344374552,0.1114617898815742
22.192376,8.553550041021174,0.1112300141262786
22.194764,8.551411962363634,0.1110630951564632
22.197144,8.543639668519184,0.1109720176089167
22.235384,8.308415668418878,0.1109480393515187
22.237776,8.300781248343418,0.1109460104995082
22.240156,8.295428468268092,0.1109123812366721
22.242552,8.294359428939325,0.1108282879983216
22.24494,8.29799343923769,0.110676075808585
22.247324,8.30591119028261,0.1104730463885028
22.249728,8.315319185394747,0.1102398657505157
22.252112,8.324866950133746,0.110001348269758
22.254496,8.334554484499606,0.109757296713873
22.256892,8.344801097372907,0.1094902999018858
22.25928,8.356118645432845,0.1092110205737486
22.26166,8.375025287597872,0.1088736579459542
22.264056,8.401800563121704,0.1084696808577144
22.266444,8.429134917152977,0.1080453864050787
22.268824,8.459821846371026,0.1075804614489347
22.27122,8.495072055589349,0.1070565046221283
22.273608,8.533674839994449,0.1064932692939853
22.275992,8.567901335854378,0.1059507774955681
22.278388,8.597751543169135,0.1054266751360849
22.280772,8.62401685787164,0.1049230065934099
22.283156,8.649118689588887,0.1044050350616951
22.28556,8.67170656388052,0.1038965412694917
22.287944,8.690430006306181,0.1034213105502104
22.290324,8.707291117612286,0.1029610570921623
22.29272,8.724943624851306,0.1025039728885224
22.295108,8.74059403134391,0.1020652395420795
22.297492,8.75396279783638,0.1016548183689623
22.299888,8.766120859515349,0.1012615655403261
22.302276,8.777347755634539,0.1008742301571026
22.304672,8.788434882126868,0.1004934370776331
22.307068,8.800592943805839,0.1001027362229731
22.30946,8.807815638432196,0.0997535699359443
22.311844,8.80423643339355,0.0994892852797476
22.31424,8.797304653168128,0.099263759191738
22.316628,8.785157966636374,0.0990880159785047
22.319008,8.771940344917981,0.0989231433600801
22.321404,8.757372248759234,0.0987799386888663
22.323792,8.7423848437199,0.0986526415444152
22.326176,8.733775827972156,0.0984924702414819
22.328572,8.728100078530607,0.0983102790189859
22.33096,8.723308272820594,0.0981556696255311
22.33334,8.719959489349558,0.0980067487929341
22.33574,8.718333267371216,0.0978526623735141
22.338128,8.716147966885435,0.097720474849665
22.340508,8.710610091212876,0.0976260085662233
22.342904,8.705863611473237,0.0975316150180027
22.345292,8.708985765092404,0.0973798034707116
22.347676,8.71424978908485,0.0972070513718686
22.350072,8.724449180129906,0.0969991315058135
22.35246,8.735439967107881,0.0967922836152634
22.354844,8.747082380391914,0.096592557725995
22.35724,8.760726894422366,0.0963779000966488
22.359624,8.784242142558037,0.096093071136523
22.362008,8.81455508886588,0.0957654326584498
22.364408,8.849012006293417,0.0954019389313775
22.366796,8.883841010773292,0.0950574919116658
22.369176,8.91545720969325,0.0947431767142544
22.371572,8.954942041972016,0.0943762348226523
22.373964,8.994846183131362,0.09399853277488
22.376344,9.03353961947721,0.0936377177070003
22.37874,9.072512595076777,0.0932676222736616
22.381128,9.112556505862983,0.0928902784328504
22.383508,9.150458546275914,0.092533103752148
22.385908,9.19064222668898,0.0921531868062958
22.388296,9.23496987822174,0.0917416403309196
22.390676,9.27957706900822,0.091321044774282
22.393072,9.316315626435896,0.0909555804782354
22.39546,9.352774644609848,0.0906024237854903
22.397844,9.384158526104327,0.0902890502901916
22.40024,9.41461124203903,0.0899813210612437
22.402628,9.442922087600456,0.0896935471694151
22.405012,9.470301767602102,0.0894112208633745
22.407408,9.493677246110916,0.0891590411922002
22.409796,9.51025502644756,0.0889472289594711
22.412192,9.526693037157347,0.0887415052712386
22.414592,9.5386149896951,0.0885509951656643
22.41698,9.554960452606268,0.0883198902377668
22.41936,9.567301714024603,0.088116737624946
22.421756,9.574707608390325,0.087943832620926
22.424148,9.583463977196406,0.0877529327394185
22.426528,9.591848258950147,0.0875471234439386
22.428924,9.596507878464775,0.0873569573568304
22.431312,9.603449137979544,0.0871447627240452
22.433692,9.608388296747895,0.0869457554569392
22.436092,9.60452765659766,0.0867948554419824
22.43848,9.601458412380342,0.0866451765457708
22.44086,9.600251499282582,0.0864877338526373
22.443256,9.598672499132483,0.0863149718121952
22.445644,9.596302103049467,0.0861406646554972
22.448028,9.592069375846895,0.0859735200770717
22.450424,9.585322691218709,0.0858074166908968
22.452812,9.57964694177716,0.085632869742834
22.455196,9.5702465300965,0.0854727515311566
22.457592,9.564850319908672,0.0852882072094379
22.45998,9.559593879347704,0.085099160154244
22.462364,9.55834164027957,0.084885669729491
22.46476,9.555878696397937,0.0846861033711176
22.467148,9.552764126210246,0.0844807468837933
22.469532,9.553793527142249,0.0842471411082063
22.471928,9.555474554380307,0.0840205172267711
22.47432,9.555805107178012,0.0838116357584598
22.4767,9.558137760722133,0.083590929880982
22.4791,9.558747852773552,0.0833725344132286
22.481488,9.558706318518915,0.083148000543142
22.483868,9.570677388742782,0.0828553597651443
22.486268,9.584138703033869,0.082542379115492
22.488656,9.596156995085977,0.0822216347858374
22.49104,9.608547374190422,0.0819174451459567
22.493436,9.625873120347482,0.0815888982412032
22.495824,9.646271902437595,0.0812418914958801
22.498208,9.670535116393683,0.0808775049372592
22.500604,9.692004833670437,0.0805231144789704
22.502992,9.716407817253383,0.0801541875478834
22.505372,9.735875433783717,0.0798104713553885
22.507772,9.75762469031419,0.0794495303864576
22.510156,9.777791154978823,0.0790865450896737
22.51254,9.795303892590988,0.0787282002376166
22.514936,9.809883363896954,0.0783829239682803
22.517324,9.822041425575923,0.0780635265163408
22.519708,9.829543659456,0.0777587806321493
22.522104,9.837185662962938,0.07744916513435
22.524492,9.846829767216292,0.0771304163918224
22.526876,9.856054562589067,0.0768253295360763
22.529272,9.86607075389476,0.0765223401609902
22.53166,9.867938772587925,0.0762662675898655
22.53404,9.866454216094311,0.0760372373642738
22.536436,9.867623386653175,0.0758046918754826
22.538824,9.867069995719342,0.0755730361220574
22.541208,9.861721007359758,0.0753595159214569
22.543604,9.852088278253618,0.0751743474051803
22.545992,9.841524383587702,0.0749918059636359
22.548376,9.833893755227978,0.0747967426750978
22.550772,9.824121256494978,0.0746155068625599
22.55316,9.818632498508531,0.0744055523210704
22.55554,9.806578359775395,0.074242442554779
22.557936,9.7948963080946,0.0740946715517267
22.560324,9.785076587533355,0.0739415471618398
22.562708,9.781263169211364,0.0737600623780089
22.565104,9.775727189396672,0.0735786053289421
22.567496,9.774055641447962,0.0733826265383552
22.569876,9.774106654991945,0.0731864886420157
22.572272,9.769082531856451,0.0730157682660124
22.57466,9.76620027909424,0.0728312933405382
22.577056,9.760896616705027,0.0726693382399104
22.579456,9.755732723942677,0.0725022675006592
22.58184,9.747356025620412,0.0723552913407227
22.584224,9.740841658417702,0.072204024110823
22.58662,9.734467060841853,0.0720479129140335
22.589008,9.730606420691618,0.0718938125049061
22.591392,9.734102557220991,0.0716967886985314
22.593788,9.739461024869923,0.0714959459352588
22.596176,9.741466917332078,0.0713198332276572
22.59856,9.74575444979437,0.0711255855956771
22.600956,9.748551738189445,0.070952005550318
22.603344,9.753770436211514,0.0707553694226729
22.605728,9.759128903860448,0.0705543752148995
22.608124,9.763276666695878,0.0703645770311015
22.610512,9.764211623971397,0.0701954784240923
22.612896,9.767288451620187,0.0700130558596312
22.615292,9.770365279268985,0.0698312330158886
22.617684,9.774373272477556,0.0696480773199166
22.620064,9.78424779829852,0.0694441287771502
22.622464,9.79505348967926,0.0692392816339999
22.624852,9.810142921806554,0.0690090015832485
22.627236,9.828165620240044,0.0687686953769294
22.629632,9.856338592032476,0.0684835654221648
22.63202,9.882789002332215,0.0682002558068492
22.634404,9.909891038938014,0.0679241663633812
22.6368,9.93620167961089,0.0676463334045281
22.639184,9.958880205843272,0.0674025106461949
22.641568,9.980627566515876,0.06716205149463
22.643964,10.006518898308173,0.0669019335903363
22.646352,10.034132791593166,0.0666442705333573
22.648732,10.065099260064937,0.0663661094743844
22.651132,10.096857124469624,0.066091103791612
22.653516,10.131688024807366,0.065804549974105
22.6559,10.169591961078169,0.0655056319105529
22.658296,10.2085668325356,0.0652021783238115
22.660684,10.248053560672238,0.0649112425149743
22.663068,10.284607022502676,0.0646299458832812
22.665464,10.320508858027058,0.0643437991625564
22.667852,10.35054416093905,0.0640759221131377
22.670236,10.376575262358209,0.0638230880424667
22.672632,10.403817068590865,0.063562887092735
22.67502,10.432921205943076,0.0633018134005223
22.6774,10.454436249190204,0.0630582638520543
22.6798,10.472738486877413,0.0628314988320461
22.682188,10.49346213419162,0.0625866909568776
22.684568,10.517398587065742,0.0623272515609271
22.686968,10.541102722514392,0.0620495243346109
22.689356,10.562013361283702,0.0617760369312599
22.691736,10.58013050337368,0.0615071811678118
22.694132,10.5963853143441,0.0612418594764139
22.69652,10.610498254941245,0.0609887038070854
22.6989,10.626892835538523,0.0607223163431612
22.7013,10.63928321464297,0.0604694151121772
22.703688,10.648088701135162,0.0602173453721654
22.706068,10.654892086880938,0.0599717009985742
22.708468,10.663045947067074,0.0597140403271283
22.710856,10.672130972812989,0.0594549210583422
22.71324,10.678003192998984,0.0592108626682668
22.715636,10.69202358579751,0.0589399800825344
22.718024,10.707394453036397,0.0586558940796639
22.720404,10.713685982102977,0.0583999334388782
22.722804,10.714390517810884,0.0581498490726516
22.725192,10.716677845384629,0.057905684602436
22.727576,10.72110704333165,0.0576515077111588
22.729976,10.723254601278532,0.0574117536974539
22.732364,10.721397957732584,0.057183959664507
22.734744,10.718190839746276,0.0569687720096147
22.73714,10.717777218439304,0.0567511341082319
22.739528,10.719365697878748,0.0565282214815344
22.741912,10.721745573251113,0.0563088597652492
22.744308,10.720912643063558,0.0561034067935257
22.746696,10.716866907316088,0.0559121738453606
22.749076,10.71175023638198,0.0557251056778706
22.751472,10.711149623619905,0.0555387680308834
22.75386,10.714553212350662,0.0553424659615024
22.75624,10.713952599588584,0.0551567144267174
22.75864,10.716285253132703,0.0549655011284345
22.761028,10.72169094260988,0.0547646727762856
22.763424,10.719088229101384,0.0545846277471663
22.76582,10.718208077085588,0.0544074465857549
22.768212,10.727198659175016,0.05420918883143
22.770592,10.741776234623114,0.0540081533349645
22.772988,10.755282874884571,0.0538115459032379
22.77538,10.76757881033253,0.0536232785742103
22.777764,10.780945680967127,0.053431186105215
22.78016,10.792962077161372,0.0532508491203053
22.782548,10.805909638915388,0.0530701563380025
22.784932,10.816575560669268,0.0529021403861737
22.787328,10.827753339102346,0.0527459610223737
22.789716,10.836277390482952,0.0525873445744449
22.7921,10.847222851490551,0.0524124804973828
22.7945,10.861241348431207,0.0522293267860862
22.796888,10.87740171574514,0.0520377274667574
22.799268,10.88955788156624,0.0518558701985118
22.801668,10.896918449961587,0.0516801042975111
22.804056,10.906001579849631,0.0515073528016471
22.806436,10.91429331380476,0.0513319260769655
22.808836,10.91979155108055,0.0511574873879504
22.811224,10.928083285035676,0.0509819665296658
22.813608,10.939308285297,0.050803058209576
22.816008,10.943595817759292,0.0506374995828533
22.818396,10.943087752795831,0.0504770552502747
22.82078,10.942579687832373,0.0503163753038602
