Time,Force,Position
21.607532,6.16959141195194,0.1635757285873082
21.609916,6.182858151356444,0.1635052842398341
21.612296,6.20296981076136,0.1632583462048635
21.614696,6.224107079382541,0.1629000414899661
21.61708,6.237842245353739,0.1626278654784941
21.61946,6.253439742444493,0.1623302079780643
21.621864,6.268850248080143,0.1620893358192243
21.624252,6.290918682261102,0.1617335376836831
21.626632,6.320995519427727,0.1612157372317501
21.629028,6.353214226967631,0.160640428460701
21.631416,6.3858050215598725,0.1600938721351111
21.633796,6.423608826600576,0.1595718694659498
21.636192,6.478778016195106,0.1588094080353942
21.63858,6.539813738402027,0.1579208018738896
21.64096,6.601315991317772,0.1569612035664893
21.643356,6.6627256964349,0.1559867602007314
21.645744,6.73098032155244,0.1548855667463381
21.648124,6.7991423988713615,0.1537630068671604
21.65052,6.865489366898967,0.1526252183833633
21.652908,6.92056980041062,0.1516441767408109
21.655292,6.9673169657125085,0.1507611103949415
21.657704,7.005264332095811,0.1500481966761321
21.660092,7.043304246277731,0.1493812184775137
21.662476,7.082647413071767,0.1487199200036531
21.664872,7.127205486172137,0.1479603293307657
21.667256,7.168877514794553,0.1472232165248819
21.66964,7.217626780842858,0.1463834365202035
21.672036,7.262324623570089,0.1456600701081137
21.67442,7.304880595924041,0.1449854309051262
21.676816,7.347903098986818,0.144247223457578
21.679212,7.382871873093554,0.1435656782329805
21.6816,7.412720184550443,0.1429055812776699
21.683984,7.437959890036684,0.1422792516713674
21.68638,7.467762875523195,0.1415701037103759
21.688768,7.4971937739573695,0.1408475499007966
21.691152,7.5209451312342575,0.1401681403249723
21.693548,7.529098991420391,0.1397143208836623
21.695936,7.538928191270979,0.1392869179607139
21.698316,7.551224126718939,0.13887802460592
21.700712,7.570038221085348,0.1383909721593657
21.7031,7.591925351384811,0.1378561843049701
21.705484,7.614231790564855,0.1373003545727015
21.70788,7.633837280864184,0.1368114486737005
21.781948,7.259964230631871,0.1364202981861994
21.784332,7.262897496938066,0.1363802165922414
21.786728,7.269927512535713,0.1363130460085085
21.789116,7.279331715932113,0.1362341621360734
21.7915,7.290877789701789,0.1361186772229632
21.7939,7.30042176272505,0.1360336771045904
21.796288,7.312479693173925,0.135929321819519
21.798668,7.3303569344069475,0.1357824117013952
21.801064,7.349816967505806,0.1356282528685713
21.803452,7.369836079112106,0.1354472504204829
21.805836,7.386829376613595,0.1352762226725897
21.808232,7.403590356689604,0.135081773687579
21.810616,7.424215768631588,0.1348383704838745
21.813012,7.442886301655397,0.1345842407984915
21.815416,7.4610921998282524,0.1342800710355796
21.817804,7.474782039829076,0.1340231159230812
21.82018,7.491125606882375,0.1337426208865249
21.822576,7.511473375428507,0.1334032440276055
21.824964,7.535313488788275,0.1330021525215423
21.827344,7.553054752110175,0.1326580247732058
21.82974,7.570004619499157,0.1323173284129759
21.832128,7.583462142074504,0.1320434094527531
21.834512,7.603065736515962,0.1316837222497892
21.836908,7.622437013531941,0.1313016487829595
21.839296,7.640644807562666,0.1309076349662997
21.841676,7.6599235367800285,0.1304986811289601
21.844072,7.680924827490088,0.1300773449421667
21.84646,7.700483095961172,0.1296567619832857
21.848844,7.716875780700583,0.1292486809100178
21.85124,7.7296835728277395,0.1288743878736661
21.853624,7.743003221634093,0.1285112626694719
21.856008,7.754553087119508,0.1281987432933793
21.858404,7.764100851858507,0.1279145931065231
21.860792,7.774067925478088,0.1276099601116135
21.863172,7.786828495777001,0.1272781727898741
21.865588,7.803825584994226,0.1269185394229826
21.867976,7.8185410342113135,0.1265995683377361
21.870356,7.834606957868761,0.1262534031192621
21.872756,7.843083787421121,0.1259907960171473
21.87514,7.853283178466178,0.1257168208928072
21.87752,7.865205131003932,0.1254313358744825
21.87992,7.879828032422402,0.1250880249885106
21.882304,7.885279047869951,0.1248317324051585
21.884688,7.8882161058918845,0.1245898139209209
21.887084,7.887940358353903,0.1243943948387916
21.889472,7.884591574882867,0.1242393642429981
21.891852,7.88138256103869,0.1240780650992502
21.894256,7.878592856075093,0.1238971386297061
21.89664,7.878596647790832,0.1236891468635909
21.899024,7.881114396932183,0.1234672737165936
21.90142,7.883352606819818,0.1232586044025478
21.903808,7.888663852640505,0.123010380922126
21.906192,7.89146114103558,0.1227756754209106
21.908588,7.897563782789185,0.1225260906201599
21.910976,7.902455719729292,0.1222998028348141
21.913356,7.904693929616923,0.1220935223766251
21.915756,7.90534934763872,0.1218912171451694
21.918144,7.902140333794543,0.1217302964359133
21.920524,7.901445277375981,0.1215557161562479
21.92292,7.899539516143919,0.1214030072776125
21.925308,7.897773524538718,0.1212442048522654
21.927688,7.8954484544260755,0.1211114600858502
21.930088,7.899222234351301,0.1209381226853639
21.932476,7.908163698754618,0.1207340315708849
21.934856,7.923763091703241,0.1204653263419368
21.937252,7.942155981331199,0.1201712212743307
21.93964,7.960409101332298,0.119885138958795
21.942024,7.977963373199095,0.1196314086646007
21.94442,7.9975197458123075,0.1193577535773984
21.946808,8.015353556932826,0.1190947668993407
21.949188,8.033187368053342,0.1188317802212831
21.951588,8.050229783240942,0.1185726227759506
21.953976,8.070857091040795,0.1182879511586552
21.95636,8.088690902161312,0.1180292983220793
21.958756,8.104243073281694,0.1178054967546597
21.96114,8.122728510708269,0.1175525165096503
21.963536,8.14414721444104,0.1172695651662705
21.965932,8.17101314190562,0.116947154947913
21.96832,8.201371414183836,0.1165736607519362
21.970704,8.228005024222938,0.1162288090480797
21.9731,8.251565598328986,0.1159198452465273
21.975484,8.273403610942339,0.1156206342616329
21.977868,8.290865335010517,0.1153491371436869
21.980272,8.301529360906528,0.1151450046849675
21.98266,8.308189185309708,0.114985487650807
21.98504,8.314988779339746,0.1148205764835219
21.98744,8.32285930855642,0.1146430033638015
21.989824,8.331149146653678,0.1144472904781865
21.992204,8.334363848071462,0.1143078986312469
21.994612,8.340372046168582,0.1141464930114624
21.996996,8.347870488332923,0.1139540739265003
21.999376,8.351644268258148,0.1137910995419833
22.00178,8.35169338594426,0.113657824509447
22.004168,8.351090877324314,0.1135198082051568
22.006548,8.351047447211812,0.1133573552454387
22.008944,8.34928145560661,0.1132040326019102
22.011332,8.349657334374685,0.1130250371952991
22.013716,8.341652723104756,0.1129108112577591
22.016112,8.329224601461412,0.1128548384679007
22.0185,8.324804882803736,0.1127178966577162
22.02088,8.323597969705977,0.1125416707346746
22.02328,8.323461991794856,0.1123522786115319
22.025668,8.328261380936347,0.1121162492829536
22.028048,8.339346611570807,0.1118087228496851
22.030444,8.350851151085848,0.1114838280139413
22.032832,8.360353589854473,0.1111791977953846
22.035212,8.362918560824069,0.1109402801859159
22.037616,8.364272826980168,0.110720066454913
22.040004,8.369491525002237,0.1104659778244189
22.042384,8.369774855971695,0.1102585793198797
22.044784,8.369638878060574,0.1100695644344765
22.047172,8.373087792761705,0.109858410862822
22.049552,8.378538808209255,0.1096270913367566
22.051948,8.386364011455557,0.109393342402592
22.054336,8.394701071381057,0.109170414063806
22.056716,8.40075649130642,0.1089787408336235
22.059116,8.403599105671868,0.1088263729472333
22.0615,8.412168483022846,0.1086263030881372
22.063884,8.423950665933738,0.1083886126111209
22.066288,8.432659812911576,0.1081852629313716
22.068672,8.442300125449192,0.1079767407426938
22.071056,8.451940437986806,0.1077686213289968
22.073452,8.45622607459123,0.1076228345030276
22.07584,8.45650750970282,0.1075151707307985
22.07822,8.456649175187549,0.1074133709622124
22.080616,8.457861775858916,0.1072993224433358
22.083008,8.465220448396396,0.1071228244156554
22.085388,8.475000530560871,0.1069106183839272
22.087792,8.483477360113232,0.1066893204771307
22.09018,8.498100261531704,0.1064073372360765
22.092564,8.512211306270979,0.1061155714742364
22.09496,8.52860399101039,0.1057966819339953
22.097348,8.546067610936438,0.1054672160037519
22.099732,8.558875403063595,0.1051681112756228
22.102128,8.573033669631112,0.1048466558032536
22.104516,8.588262871385266,0.1045121285249036
22.1069,8.600698576460088,0.1041950651838644
22.109296,8.616067547841103,0.1038568943650125
22.111684,8.628363483289062,0.1035492762238411
22.114068,8.639728253177246,0.1032486009588288
22.116476,8.648951152692149,0.1029723541821137
22.11886,8.661247088140112,0.1026690277270517
22.121244,8.677966533961486,0.102314757824373
22.123648,8.696548310902417,0.1019494863851967
22.126032,8.718063354149542,0.1015638050870162
22.128416,8.742651433329726,0.1011528521761278
22.130816,8.768170678069684,0.1007393751117846
22.133204,8.792339448369285,0.100349610288294
22.135584,8.81273633460153,0.1000139394175177
22.13798,8.830711811206776,0.0997137228409805
22.140364,8.846126108558167,0.0994514221192944
22.142744,8.855254564416585,0.0992496447242241
22.145148,8.861961610648006,0.0990807518779061
22.147536,8.873883563185757,0.0988629006469509
22.149916,8.886736681283288,0.0986412261528211
22.15232,8.90573587124693,0.0983681710866234
22.154708,8.927388788263048,0.0980835045679592
22.157088,8.945177273413192,0.0978277715264363
22.159492,8.966178564123252,0.0975414685630228
22.16188,8.985969150019812,0.0972710039321762
22.16426,9.006830671103012,0.0969908982560082
22.166656,9.023268681812796,0.0967592744308456
22.169044,9.037285282895583,0.0965602356600408
22.171424,9.048228848045314,0.0963869817933163
22.17382,9.052886571702071,0.0962707434018595
22.176208,9.05419172017206,0.0961912659260621
22.178588,9.05121312789549,0.0961529103586563
22.18098,9.051167801925116,0.0960945036625615
22.183368,9.055266447074438,0.0960002802157199
22.185748,9.060575797037256,0.095891069189871
22.188144,9.068166787000212,0.0957559638991296
22.190532,9.080832913642642,0.0955802041739081
22.192912,9.097922550658485,0.0953593514363086
22.195308,9.113521943607108,0.0951657301168739
22.197696,9.126979466182457,0.0949931819899484
22.200076,9.136013478384388,0.0948673038508031
22.202476,9.146258195399817,0.0947267387835165
22.204864,9.16022757465436,0.0945686877105294
22.207244,9.172986249095404,0.094426690893257
22.209648,9.18788679390973,0.0942655581632359
22.212036,9.201576633910554,0.0941195826093003
22.214416,9.215685782791956,0.093958003584688
22.216812,9.231285175740576,0.0937722135134906
22.219204,9.252239244622396,0.0935394352015592
22.221584,9.278687759064264,0.0932536923903838
22.22398,9.307557683133128,0.0929403669302432
22.226364,9.344715549441386,0.0925641463835822
22.228748,9.375215487204333,0.0922240312425338
22.231144,9.405203568288078,0.0918747813641942
22.233528,9.435471188625549,0.0915187564367139
22.235912,9.46974301045585,0.0911390933253769
22.238308,9.503363205980095,0.0907567214739627
22.240696,9.533910365571282,0.0903994547948314
22.243092,9.565016603669914,0.0900244250750152
22.245496,9.59933564732846,0.0896252406195826
22.247884,9.630209568001607,0.0892318682533944
22.250264,9.661223258301623,0.0888357269973181
22.25266,9.685718789683188,0.0884686935237776
22.255048,9.708212220318334,0.0881149105907095
22.257428,9.728983089460788,0.0877649459850603
22.259824,9.74952164117776,0.08739508979199
22.262212,9.772202063268011,0.0870088019277201
22.264592,9.792740614984984,0.0866408183862397
22.266988,9.80992659151518,0.0863055435151814
22.269376,9.823248136179403,0.0859909254543277
22.27176,9.83163431379102,0.0857047133888775
22.274156,9.834293728417103,0.0854475024461687
22.276544,9.842028279722658,0.0851574951370354
22.278924,9.85162516214777,0.0848616025859384
22.281328,9.856566216773988,0.0845837438340345
22.283716,9.856851443601316,0.0843245635021359
22.286096,9.85820760561528,0.0840584054153178
22.288492,9.85784120613655,0.0837940748856127
22.29088,9.857474806657825,0.0835305256715515
22.293264,9.850170939380064,0.0833040458842782
22.29566,9.847011043222,0.0830500737957513
22.298048,9.84305975113102,0.0827951107798372
22.300428,9.842041725346231,0.0825251666950559
22.302836,9.842234404374942,0.0822426024006852
22.30522,9.843358248963431,0.0819567995296444
22.307604,9.84499395023112,0.0816817274388976
22.31,9.845698485939028,0.0814104372377659
22.312388,9.846542791273796,0.0811342269955037
22.314768,9.84566453511587,0.0808592603233955
22.317164,9.84464650933108,0.0805880677523411
22.319552,9.847353145785409,0.0803040132801413
22.321932,9.846986746306678,0.0800380592650008
22.324336,9.847551512387724,0.0797700919442261
22.326724,9.846253947349217,0.0795089677081741
22.329104,9.845468238989907,0.0792576136415071
22.3315,9.844263221750015,0.0790197981979593
22.333888,9.840776564509987,0.0788023177144822
22.336272,9.839152238389516,0.0785786676978346
22.338668,9.834454876335988,0.0783728780940191
22.341056,9.835903586148572,0.078131020138561
22.343436,9.836001821520796,0.0779062919888344
22.345836,9.836891452825938,0.0776837572176252
22.348224,9.835918753011525,0.0774666074565863
22.350604,9.832804182823832,0.0772638887484565
22.353008,9.8315519437557,0.0770561204800055
22.355396,9.831370639874208,0.0768413922073088
22.357776,9.828767926365712,0.0766500148109919
22.36018,9.828818939909691,0.0764553715639722
22.362568,9.833805320506286,0.0762387501748647
22.364948,9.844798003342133,0.0759937133294492
22.367348,9.857932556551251,0.0757360973536108
22.369736,9.871858505693291,0.0754793146935101
22.372116,9.885644685208472,0.075228803356186
22.374516,9.89915132546993,0.0749878156704431
22.3769,9.916662167224224,0.0747283281695456
22.379284,9.935523483418876,0.0744532619103466
22.38168,9.952382698867108,0.0741873595367854
22.384068,9.968031209501843,0.0739330091914026
22.386448,9.99047741830875,0.0736543318572797
22.388844,10.0086398863691,0.0734037988278515
22.391232,10.025731419242812,0.073160153425138
22.393612,10.04389388730316,0.0729113198800887
22.396008,10.064710082415983,0.0726602641270278
22.398396,10.08566604715567,0.0724040292982748
22.40078,10.105039220029518,0.0721451093113919
22.403176,10.12334145771673,0.0718937284066959
22.40556,10.146858601710273,0.0716143633307242
22.407944,10.171726220144176,0.0713222437291455
22.41034,10.193520802645024,0.0710470801220261
22.412728,10.210240248466398,0.0707971698799364
22.415108,10.221884557608298,0.0705713224997199
22.417508,10.236601902683256,0.0703307799171034
22.419896,10.24945691663866,0.0700953460732374
22.422276,10.2621721609672,0.069864462400452
22.424672,10.270883203802908,0.0696504572876552
22.42706,10.279174937758032,0.0694496227590292
22.429456,10.290679477273075,0.0692302030903778
22.431856,10.306747296788393,0.0689786094617272
22.434244,10.314015317385122,0.0687575429402757
22.436624,10.325427309101547,0.0685165639001977
22.439028,10.338050005631471,0.0682653161564003
22.441416,10.34638896141484,0.0680387364168315
22.443796,10.352865586078654,0.0678160601518651
22.446192,10.363206642608436,0.067582228929765
22.44858,10.36977581507087,0.0673830058674457
22.45096,10.37555359160038,0.0671814053343662
22.453356,10.37732716663706,0.066995936285366
22.455744,10.374165374621125,0.0668278759010718
22.458128,10.368210085925853,0.0666645296782526
22.460524,10.363046193163504,0.0665035606641121
22.462912,10.357230674095096,0.0663351371070598
22.465292,10.350344219840048,0.0661727449097283
22.467696,10.342386830398365,0.0660160603669286
22.470084,10.335779915397037,0.0658451841869997
22.472464,10.33438790670204,0.0656496073477408
22.47486,10.332995898007049,0.0654540721294278
22.477248,10.328530853378998,0.0652716037521717
22.479628,10.321504629497092,0.065113724207367
22.482024,10.319413772667795,0.0649394667076481
22.484412,10.314110110278584,0.0647824334266577
22.486796,10.309597843822292,0.0646282146913218
22.4892,10.306575821433215,0.0644554830978669
22.491588,10.30462473423078,0.0642770419977967
22.493972,10.303744582214982,0.0640939511138915
22.496368,10.306636314266544,0.0638772014073485
22.498756,10.312181773370575,0.0636608258157959
22.501136,10.320800268407668,0.0634326188366273
22.503532,10.331932720870372,0.0632086522622883
22.505916,10.34800054038569,0.0629700122175042
22.5083,10.36355650322181,0.0627205689699618
22.510704,10.38362852422996,0.0624689767614577
22.513092,10.40370054523811,0.062217836679714
22.515472,10.42377256624626,0.0619666503861333
22.517872,10.441562947254273,0.0617308795752883
22.520256,10.455069587515732,0.0615174767333678
22.52264,10.469135306284633,0.0612881963306036
22.525036,10.489067557665924,0.0610446513958153
22.527424,10.507928873860577,0.0608069103005639
22.529804,10.528792290801642,0.0605645109745553
22.5322,10.547933146250012,0.0603196947752685
22.534588,10.566562145019184,0.0600648098914619
22.536968,10.587844870840836,0.0598117295183927
22.539364,10.609267366289345,0.059555422038483
22.541752,10.623892163565683,0.0593147869047205
22.544136,10.638097651961443,0.0590868231434942
22.546532,10.648858017371811,0.0588552326065081
22.54892,10.656545346849123,0.0586351338299005
22.551304,10.662789654087458,0.0584051937054736
22.5537,10.667963026139155,0.0581811265338453
22.556088,10.675790125243328,0.0579589504796346
22.558472,10.680963497295023,0.0577358659195413
22.560868,10.687487343787078,0.0575006469731183
22.563256,10.696292830279274,0.0572523828924784
22.565636,10.708590661585104,0.0569828058677286
22.568036,10.72330990251793,0.056696491919099
22.570424,10.7366786690104,0.0564230575683692
22.57282,10.746322773263753,0.0561540821695552
22.575216,10.75438408565127,0.0558784831899583
22.577608,10.756718635053256,0.0556112116952052
22.579988,10.765850882627417,0.055332169760852
22.582388,10.77563475650763,0.055061056727583
22.584776,10.782625133708509,0.0547923802794981
22.58716,10.791338072402086,0.0545273048060355
22.589556,10.80805941408133,0.0542430395910355
22.591944,10.827062395760713,0.0539474138261587
22.594328,10.848719104492568,0.0536545916038621
22.596728,10.870515582851285,0.0533579883431679
22.599116,10.889890651583,0.0530770900496414
22.601496,10.907682928448883,0.0527902580612741
22.603896,10.920539838262153,0.0525133855593005
22.606284,10.93539884882184,0.0522324427799277
22.608664,10.948255758635108,0.0519568613159735
22.611064,10.956828927701824,0.051697963755185
22.613452,10.960187190462207,0.0514562262302716
22.615836,10.95725961172962,0.051234824050799
