Time,Force,Position
20.824428,6.123570037679541,0.1628282872721889
20.826816,6.139862591188858,0.1627385599610886
20.829196,6.166258196228877,0.1624802073462372
20.831592,6.1916300879105,0.1621990422298467
20.833984,6.225662008883846,0.1617574556326542
20.836364,6.272590478067232,0.1611095436539984
20.838764,6.322172674303092,0.1604318294453984
20.841152,6.371662322740335,0.1597052234995928
20.843532,6.421106645207201,0.1588788834070361
20.845932,6.469247715061954,0.1580511359412406
20.84832,6.51375667047621,0.1573523497038782
20.8507,6.558078634435363,0.1567202268290728
20.8531,6.609430613992163,0.1559801016266173
20.855488,6.6608298153772045,0.1552011900403086
20.857868,6.707061332284158,0.1545000980692528
20.860264,6.741512562138086,0.1540722402609076
20.862656,6.784064742776299,0.1535341108606749
20.865036,6.829829728974428,0.1529243918416675
20.867432,6.877132181068021,0.1522203610307725
20.869824,6.921176501631323,0.1515101514253944
20.872204,6.957119871410339,0.1509247634862132
20.8746,6.986405312644049,0.1504575058054236
20.876988,7.007729572720334,0.1500972838537577
20.879372,7.02910105462486,0.149694530821939
20.881776,7.042279037946488,0.1493725566927274
20.884164,7.04055837231166,0.1492742348794801
20.886548,7.036136757796115,0.1492511948784771
20.888944,7.0355323533183,0.1492070467671368
20.891336000000003,7.039444007012519,0.1491019420101138
20.893716,7.046708235893512,0.1489252740895965
20.896116,7.052761759961007,0.1487798482940056
20.898504000000003,7.061748550334698,0.1485896737959079
20.900884,7.067802074402191,0.1484464558830504
20.903284,7.069851396976851,0.1483712404492528
20.905672000000003,7.072087711006616,0.1482474654300826
20.908052,7.074930325372064,0.1480505661294728
20.910448,7.072325716005703,0.147926123230204
20.912836,7.070512502572259,0.1477965428080843
20.91522,7.068559519511952,0.147674646938639
20.91762,7.065023744585811,0.1475628755068208
20.920012,7.06297821372689,0.1474074444211294
20.922392,7.06437780585336,0.1472163932957055
20.924792,7.071736478390839,0.1469662773919421
20.92718,7.083052130592909,0.1466929359750307
20.929564,7.094879639474175,0.1464286241406817
20.931964,7.117509048020444,0.145993463030038
20.934352,7.142280326939992,0.1455188970227075
20.936736,7.1694730154865365,0.1449937913472171
20.939132,7.194291516234325,0.1444865629772949
20.941524,7.214082102130887,0.1440275890854262
20.943908,7.231266182803214,0.1435602090780914
20.946304,7.238439759743458,0.143252156302451
20.948696,7.249617538176537,0.1428806735664567
20.95108,7.267593014781782,0.1424108138115087
20.953476,7.286080348066223,0.1419539723687894
20.955864,7.306941869149424,0.1414838480256853
20.958248,7.330317347658236,0.1409962008579025
20.960644,7.352854208405888,0.1405546410863647
20.963036,7.378975961765796,0.1400789210145124
20.965416,7.407099815872117,0.1395722663191776
20.967816,7.433873195538082,0.1390985271900746
20.970204000000003,7.455199351472237,0.1386872664502358
20.972588,7.472800845167278,0.1383241830347524
20.974988,7.48444325845131,0.1380144774737268
20.977376,7.494782419123228,0.137697199015114
21.0228,7.3220881770127955,0.1376198128461435
21.0252,7.319528893616805,0.1375676970380971
21.027588,7.321997525072046,0.1374777543144951
21.029972,7.328190818766401,0.1373440040778171
21.032368,7.338807622834168,0.137132494200539
21.034756,7.35422002432769,0.1368594318722688
21.03714,7.365767993955236,0.1366353984465737
21.039536,7.383462035448893,0.1363168318556972
21.04192,7.393427213210603,0.1361024134335024
21.044304,7.403160073546834,0.1358633569961801
21.0467,7.414615495375762,0.1356082296460056
21.049084,7.434870716123277,0.135234824393447
21.051468,7.456149650229185,0.1348838548287443
21.053864,7.478359749894874,0.1345228209587406
21.056252,7.493352842507813,0.1342742711672163
21.058636,7.51020826624031,0.1340024014031157
21.061044000000003,7.535444180010811,0.1336324169251529
21.063428,7.564125216766705,0.1332393698955079
21.065812,7.5935051016569,0.1328177528237492
21.068208,7.62265266912162,0.1323744362855594
21.070592,7.6504969839742225,0.1319273365128284
21.07298,7.673545701401074,0.1315418989617775
21.075384,7.693568604723112,0.1311626032823296
21.077768,7.711636629126976,0.1307761618814473
21.080152,7.721696250545173,0.1304980393452979
21.082556,7.731755871963368,0.1302223279071017
21.08494,7.747542256367095,0.1298795644495829
21.087328,7.759184669651129,0.1295979523193308
21.08972,7.771618478868079,0.1293115790634565
21.092108,7.787357641443563,0.1290079506113457
21.094492,7.802817264765327,0.128716758172489
21.096896,7.811339420288061,0.1285164878426419
21.099284,7.8188378624524,0.1282960194966965
21.10168,7.825172821631483,0.1280618690811719
21.104084,7.834580816743622,0.1277841556124432
21.106472,7.848132782975454,0.127449302523331
21.108876,7.859310561408533,0.1271263445559511
21.111272,7.862527158684186,0.1268694461971736
21.11366,7.858666518533949,0.1267049651401103
21.11606,7.8567607573018865,0.1265525437044365
21.118464,7.854435687189246,0.1264199265880771
21.120852,7.853972948196158,0.1262688209552928
21.123256,7.860168137748383,0.1260478357284655
21.12566,7.867247271032141,0.1258554226015691
21.12804,7.880984332861209,0.1255927959897627
21.130444,7.896071869130633,0.125305298948766
21.13284,7.914511980586835,0.1249706338399758
21.135224,7.935373501670035,0.1245934542112694
21.13762,7.955723166074035,0.1242040556243605
21.140016,7.9714170026791455,0.1238593535538424
21.142412,7.991674119284528,0.1234437833680254
21.144816,8.01328171033027,0.1229989778028191
21.147204,8.034609762122294,0.1225679205595404
21.1496,8.055890592086072,0.1221728848683809
21.151996,8.076100486863213,0.1217928843531153
21.154384,8.09216641052066,0.1214685191934127
21.15678,8.109163499737885,0.1211384417127948
21.159176,8.129465942313644,0.120791806420347
21.161564,8.159639118994626,0.1203378047879585
21.163944,8.185855316011018,0.1198959637134984
21.16634,8.212211282654268,0.1194486645595034
21.168728,8.236704918177965,0.1190185943433426
21.171124,8.254400855529493,0.1186619217414702
21.17352,8.27279564101532,0.1182771022404638
21.175904,8.287885073142617,0.1179081635482496
21.178288,8.297619829336718,0.1176113718580446
21.180684,8.299206412918291,0.1174098518402993
21.183072,8.299861830940086,0.1172166686619144
21.185452,8.308246112693832,0.1169508247827337
21.187848,8.321565761500189,0.1166353605944982
21.19024,8.333534935866185,0.1163488112089524
21.19262,8.346155736538238,0.1160668628404101
21.195024,8.357985141277375,0.1157863986268817
21.197408,8.372515494897227,0.1154562248111661
21.199792,8.390118884450137,0.1150930083243844
21.202188,8.410655540309243,0.1147028173312798
21.204576,8.428258929862151,0.1143421808032952
21.206956,8.448283729042059,0.1139451945031857
21.20936,8.459508729303378,0.1136331842796942
21.211748,8.473247686990316,0.1133118672576291
21.214128,8.483913608744198,0.1130227185564084
21.216532,8.495650465684717,0.1127204776541916
21.21892,8.510320588931432,0.1123908527170323
21.2213,8.519636036244952,0.1121264132622329
21.223696,8.529323570610812,0.1118785118286068
21.22608,8.540873436096227,0.1116155911444393
21.228464,8.553214697514562,0.1113493047797141
21.230868,8.56220338374612,0.1111277953508424
21.233256,8.56318366699201,0.1109891021441969
21.235636,8.561090914304847,0.110884094293552
21.266704,8.436520679328346,0.110802862841701
21.269088,8.429677655185804,0.1108000337900828
21.271472,8.423114170296982,0.1107854455955167
21.273868,8.414688354288602,0.1107845999825894
21.276256,8.408823717534082,0.1107407437922048
21.278636,8.409896548578589,0.1106315819320114
21.281032,8.414182185183012,0.1104843822739547
21.28342,8.417396886600798,0.1103497155469052
21.2858,8.423125545444197,0.110206628198189
21.288196,8.432299327272988,0.1100492242340283
21.29058,8.442404274661559,0.1098860659229204
21.292976,8.454371553169686,0.1097090113372428
21.295372,8.465128126864315,0.1095499899780133
21.29776,8.47760726205164,0.1093829155538214
21.30014,8.4928798939183,0.1091959781614159
21.302536,8.50843206503868,0.1089976893797432
21.304924,8.519328408360169,0.1088328354810971
21.307304,8.53571919724171,0.108600280671957
21.309708,8.544660661645025,0.1084212687379798
21.312096,8.557187018660594,0.108223049330496
21.31448,8.573577807542136,0.1079939496970289
21.316876,8.590759992356595,0.1077649006224815
21.319264,8.611666839410168,0.1075123105898374
21.32164,8.634575787210158,0.1072404614978693
21.324036,8.657856822062485,0.1069862462633303
21.326424,8.677552964302558,0.1067543158314612
21.32882,8.693896531355858,0.1065638499861013
21.331216,8.712381968782433,0.1063497861759869
21.3336,8.727282513596753,0.1061553172120166
21.33598,8.735804669119489,0.1059993876075576
21.338384,8.742744032776386,0.1058453734996425
21.340772,8.753035971620061,0.1056515296526757
21.343156,8.765609550463873,0.1054287671809223
21.345552,8.78032499968096,0.1051835682712453
21.34794,8.791455556285797,0.1049572301502329
21.35032,8.80430867438333,0.1047253411108479
21.352724,8.821677850652891,0.1044686107805517
21.355112,8.837836322108956,0.1042316826678891
21.357492,8.860652722110329,0.1039477847932146
21.359888,8.877882128753033,0.1037005144857333
21.362276,8.890455707596843,0.1034834362073913
21.36466,8.903960452000433,0.1032617128719809
21.367056,8.91280936860513,0.1030700690833639
21.369444,8.923008759650187,0.1028571543694653
21.371824,8.93777143069552,0.1025919571812906
21.37422,8.95239433211399,0.1023327682890774
21.376608,8.969438643159458,0.1020404995357981
21.378988,8.988624824578203,0.1017290845150048
21.381388,9.007950775623808,0.1014110421660296
21.383776,9.034493733722163,0.1010296609564466
21.386156,9.0619678573803,0.1006447069832742
21.388552,9.086508714732236,0.1002842697021157
21.39094,9.113610751338031,0.0998908654728328
21.393324,9.138059060891353,0.099509438443878
21.39572,9.16599971525831,0.0990871708320119
21.398108,9.192497347386292,0.0986617600876434
21.400488,9.218902431715655,0.0982132509843397
21.402888,9.241862393059629,0.0977757222253262
21.405272,9.262308396977987,0.0973455637292222
21.407656,9.283313479403784,0.0968936356056728
21.41006,9.306320662576,0.0964264517004092
21.412444,9.3263020316434,0.0959544379784887
21.414828,9.34842527108408,0.0954634943820547
21.417224,9.36840664015148,0.0949936708417246
21.419608,9.378237735859935,0.094603533309903
21.421992,9.388068831568397,0.0942138485991487
21.424388,9.40097296320991,0.0938021615795612
21.426776,9.406148231119476,0.093437779509051
21.429172,9.415327700521877,0.0930452338166467
21.431568,9.418221328431304,0.0927070173671601
21.433956,9.41617958928812,0.0924009691764882
21.43634,9.411344353465603,0.0921078974422605
21.438736,9.399943736896397,0.0918775099787111
21.441124,9.390405451446744,0.091638007776662
21.443504,9.37937692192987,0.0914231721167924
21.445904,9.368068853159278,0.0912182436823433
21.448288,9.355130770694606,0.0910426922326343
21.450668,9.343635710468911,0.0908731094479665
21.453068,9.331721341362632,0.0907183930007306
21.455456,9.324043491174669,0.0905572272107991
21.457836,9.316086101732983,0.0904059813955919
21.460232,9.309152425649692,0.0902759346554762
21.46262,9.3010080447529,0.0901600171534945
21.465,9.29486576460253,0.0900307053731058
21.467404,9.294590017064548,0.0898659672720844
21.469792,9.294314269526566,0.0897013216433343
21.472172,9.29082571642867,0.0895644515141195
21.474572,9.29571765336878,0.0893908439404172
21.47696,9.300190281428304,0.0892330549593043
21.47934,9.307735945420887,0.0890534221095804
21.481736,9.322870703518555,0.0888371814904096
21.484124,9.340239879788118,0.0886280962000701
21.486504,9.363475588670072,0.0883854182381237
21.4889,9.387502693484942,0.0881455077979903
21.491288,9.41218142460587,0.0879121461791413
21.493672,9.43779132128658,0.0876758658621228
21.496068,9.464472153153926,0.0874316578992126
21.498452,9.49222392020791,0.0871795835083671
21.500852,9.520255226515616,0.0869184766608397
21.503248,9.545353266517123,0.0866752447080257
21.505636000000003,9.569799680212578,0.0864264002953491
21.508016,9.59466540278861,0.0861634915890687
21.510416,9.617668794245086,0.0859080435803252
21.5128,9.640532416074702,0.0856588776733601
21.515184,9.666329304210514,0.0853963507325949
21.51758,9.690263861226768,0.0851410802764224
21.519968,9.713267252683243,0.0848897309175005
21.522352,9.732825521154329,0.0846453289367974
21.524748,9.75294286813285,0.0843839487640435
21.527136,9.77012694880518,0.0841381500779003
21.529516,9.782655201678615,0.0839109663569591
21.531916,9.798815568992548,0.0836464851515981
21.534304,9.810320108507591,0.0833996923286889
21.536684,9.81917092097016,0.0831589948302256
21.53908,9.828720581567028,0.082895874829905
21.541468,9.832403709551503,0.0826611095659586
21.543852,9.835155671976205,0.0824300829552096
21.546248,9.83497436809471,0.0822135040020259
21.548636,9.834793064213214,0.0819971053115078
21.551016,9.83288919883902,0.0817822299776715
21.553412,9.834570226077082,0.0815596305183493
21.5558,9.834900778874784,0.0813541048804653
21.558184,9.836022727605403,0.0811495300602564
21.56058,9.838215611522664,0.0809379050890207
21.562972,9.834961271708114,0.0807411129188596
21.565352,9.835571363759534,0.0805273584132323
21.567748,9.839114722117152,0.0803001461905811
21.57014,9.842518310847913,0.0800778716767119
21.57252,9.840986532526054,0.0798799748807882
21.574916,9.843319186070174,0.0796656640653597
21.577304,9.850075349987709,0.0794175922979476
21.579700000000003,9.85776267946502,0.0791690808891875
21.5821,9.872387476741364,0.0788886967970992
21.584488,9.887152043644562,0.0786039452676513
21.586868000000003,9.901637071294044,0.0783296045556506
21.589268,9.925480976369547,0.0779999280754826
21.591656,9.951886060698914,0.0776447227340647
21.59404,9.98271465540169,0.0772578557305178
21.596436,10.014614185291109,0.0768656999309277
21.598824,10.051588851859997,0.0764491740834565
21.601204,10.084838856189773,0.0760446780553379
21.603604,10.120650039773404,0.0756140873336338
21.605992,10.158742863357178,0.0751663390271608
21.608372,10.195113125448255,0.0747217325926857
21.610772,10.233066179405164,0.0742813065273995
21.61316,10.267294571122964,0.0738519310611988
21.61554,10.297798300601643,0.0734333779219263
21.617932,10.324297828587495,0.0730320952388285
21.62032,10.35410270993188,0.0726340660618824
21.622696,10.382045260156708,0.0722427077453215
21.6251,10.402491264075064,0.0718989542280266
21.627484000000003,10.414789095380897,0.071596008868656
21.629864,10.419078523701057,0.0713296251409177
21.632268,10.423879808700416,0.0710740374429026
21.634656,10.42467689220694,0.0708357657981523
21.637036,10.419979530153412,0.0706352296440625
21.63944,10.412581219219163,0.0704651668864557
21.641824,10.400619628284648,0.0703292520149043
21.644204,10.38544523179021,0.0702122315027285
21.646596,10.365987094549222,0.070120422959525
21.64898,10.346668726935096,0.0700239042842675
21.651376,10.3289331511868,0.0699315590714208
21.653772,10.31105780581165,0.0698431282904629
21.656156,10.292763151555915,0.0697670878761526
21.658532,10.272186857300046,0.0697075248684665
21.660928,10.256266390843065,0.06963792814152
21.663312,10.240997550692144,0.0695745672050305
21.665704,10.23145547352675,0.0694953010984166
21.668100000000003,10.22354341005544,0.0693930701376287
21.670484,10.217493677703684,0.0692871912601739
21.67288,10.217450247591175,0.0691574306434604
21.67528,10.224484054904565,0.0689979676766498
21.677668,10.23151786221795,0.0688376680157768
21.680044,10.238831208785053,0.0686691129082321
21.68244,10.250148756844991,0.0684847017153426
21.684824,10.26146630490493,0.0683000604626017
21.68722,10.270921521845311,0.0681188194505893
21.689624,10.285591645092026,0.0679120855179764
21.692008,10.30719923613777,0.0676813783670427
21.694388,10.330157301623874,0.0674366123805298
21.696792,10.354186302296617,0.0671865278963015
21.69918,10.373279935916743,0.0669542007274578
21.70156,10.390371468790455,0.0667299944784177
21.703956,10.406811375358108,0.0664992352611316
21.70634,10.429956432299315,0.0662261646711832
21.708724,10.448305891814767,0.0659663278934755
21.71112,10.469728387263276,0.0656940318664673
21.713504,10.492641126779006,0.0654059604841082
21.715884000000003,10.51113035592132,0.0651453676189829
21.718288,10.525615383570798,0.0648995570155676
21.720672,10.535304813794529,0.0646656077177403
21.723052,10.538196545846088,0.0644504708241471
21.725456,10.54630318420398,0.0642115974719778
21.727844,10.556551692935148,0.063962617263362
21.730224,10.567079740920036,0.0637065135950377
21.73262,10.58203129927834,0.0634256003911038
21.735008,10.60019566319656,0.0631286357239271
21.737384,10.61477513450253,0.0628344041393212
21.739788,10.622836446890046,0.06255064702988
21.742176,10.63262032077026,0.0622694166509882
21.744556,10.644126756143171,0.0619907953606067
21.74696,10.65898576670286,0.0616928133771883
21.749348,10.677988748382242,0.0613794183725852
21.751728,10.696991730061622,0.0610661073342374
21.754132,10.709708870248033,0.0607809000968291
21.75652,10.726430211927276,0.0604839144285155
21.7589,10.741568761740682,0.060182486190281
21.761296,10.750421470061116,0.0599076083792883
21.763684,10.762766523195188,0.0596100823562224
21.766064,10.777393216329395,0.0592986073570719
21.768456,10.79695527651622,0.0589746145668699
21.770844,10.823315034875211,0.0586363537065283
21.773224,10.847393153234064,0.0583133609672777
21.77562,10.868258466033,0.0580060518168099
21.778008,10.88777330439158,0.057712424406583
21.780404,10.904075337190244,0.05743476076464
21.782796,10.91930643480227,0.0571626962850968
21.785184,10.935980554653268,0.0569012580270895
21.787564,10.956379336743382,0.0566374744294387
21.789968,10.970911586221105,0.0563859163323143
21.792352,10.983581504579272,0.0561367764669515
21.794732,10.9951804877508,0.0558930807677179
21.797128,11.003706434989274,0.0556602467660841
21.799516,11.014094713347305,0.0554264642612484
21.801896,11.026345322824891,0.0551912540478275
21.8043,11.03580243562314,0.0549586680640259
21.806684,11.045771405100592,0.0547375087512372
21.809064,11.06281761200393,0.0544977851483569
21.81146,11.07679078297421,0.0542677585162262
21.813844,11.092486515437187,0.0540413941235428
21.81624,11.10496944234025,0.0538284234987951
21.818636,11.112377232563842,0.0536296582066054
21.82102,11.118993626854516,0.0534276926730525
21.8234,11.125610021145189,0.0532255739026608
21.825796,11.13115548024922,0.0530276264729597
21.82818,11.13549023453976,0.0528376238002258
21.830576,11.139173362524236,0.0526406854417768
21.83298,11.13885228901588,0.0524526096434001
21.835364,11.133456078828054,0.0522776786776911
21.837748,11.133926401252616,0.0520927071416635
21.84014,11.13453649330404,0.0519041645574409
21.842528,11.132725175728464,0.0517310870579403
21.844904,11.127701052592975,0.0515698890577139
21.847312,11.121745763897708,0.0514091598211508
21.849696,11.11513884889638,0.0512411061839146
21.852076,11.10983518650717,0.0510874412574498
21.85448,11.103740128185038,0.0509304465507908
21.856868,11.093640868370075,0.0507823470080171
21.859248,11.086195335607586,0.0506370889020062
21.86164,11.073023039859564,0.0504965205152829
21.864028,11.060130283365268,0.0503481863897271
21.866408,11.04751706612469,0.0501918166263619
