Time,Force,Position
23.338536,3.4864777147756283,0.1910261655518357
23.34094,3.724058839953864,0.1866719338031889
23.343328,3.960246060579237,0.1828513683944684
23.345708,4.192340323628898,0.1787762757780285
23.348104,4.4097739427211895,0.1749907373268702
23.350492,4.599231060765497,0.1721113676282148
23.352872,4.7718384426509175,0.1696535259224471
23.355268,4.928293040653879,0.1677298572141955
23.357656,5.078046279999028,0.1657833463315789
23.360036,5.21462722359616,0.163933154125298
23.362432,5.337012158086877,0.1621479929188001
23.36482,5.446132249030959,0.1603887560251386
23.3672,5.526016016427445,0.159318057881288
23.369596,5.594774914792704,0.1583520236580595
23.371984,5.6508261522608985,0.1574853668253422
23.395868,5.59753446064888,0.1570539670160593
23.398264,5.600607496581936,0.1569815136518689
23.400652,5.604844015500246,0.1569230940671465
23.403036,5.608800995164836,0.1568844432792943
23.405432,5.614992393001321,0.1568343321835827
23.40782,5.62900520236837,0.1566732580068472
23.4102,5.642598702854839,0.1565402771773346
23.412596,5.653957785169412,0.1564194743664404
23.414984,5.669088751551342,0.1561750386477545
23.417364,5.684219717933273,0.1559343845171727
23.419764,5.70079370655418,0.1556899020359108
23.422152,5.733988905624235,0.1551406164293642
23.424532,5.7696980621199065,0.154548621530496
23.426928,5.801403017122743,0.154055807450843
23.429316,5.831897267312081,0.1536072629767989
23.431712,5.869002224218484,0.153092840435061
23.434108,5.900705283363452,0.1527606373616649
23.436496,5.934550212881696,0.1523689479456813
23.438876,5.972678883146495,0.1518582733650896
23.441276,6.007502200052762,0.1513995173873415
23.44366,6.034596653227082,0.1511014045877653
23.446044,6.060759940841622,0.150824136643454
23.44844,6.086411371776964,0.1505359311298983
23.450828,6.113460498980909,0.1501602305074799
23.453208,6.139905221707039,0.1497475521413422
23.455612,6.157829684768305,0.1494873283682178
23.458,6.180829284509043,0.149128489040072
23.460384,6.207413776862035,0.14872043688349
23.462776,6.2369315355212205,0.1482603077117214
23.465164,6.262445092687571,0.1478774741959573
23.467544,6.291171455413839,0.1474321370671669
23.469944,6.317383860714492,0.1470261014058654
23.472332,6.3478800067617,0.146532615533666
23.474712,6.375862195383293,0.1460622791024619
23.477108,6.401098109153793,0.1455910371171183
23.479496,6.415439575460675,0.1452731828403395
23.481876,6.434623861021551,0.1448312777757575
23.484272,6.456229556209426,0.144328868040473
23.48666,6.481746905091516,0.1437227273071764
23.489056,6.505681462107771,0.1431310732712082
23.491452,6.530686954310664,0.1425154197266285
23.49384,6.557554777633114,0.1418790563584105
23.49622,6.587355867261758,0.1411997966825223
23.498616,6.6116625113303495,0.1406379669660213
23.501004,6.628472609092471,0.140229708894096
23.503384,6.64686549872043,0.1398080755527448
23.50578,6.660974647601834,0.1394768705206861
23.508168,6.6740128612966005,0.1391699009111771
23.510552,6.686818757565889,0.1388389691586159
23.512948,6.702093285290418,0.1384060267296009
23.515332,6.708707783723221,0.1381056996376353
23.517716,6.714251346969387,0.1378293717243275
23.52012,6.718072348722856,0.1375726095206406
23.522504,6.722731968237485,0.1372670332960851
23.524888,6.727251818125255,0.1369689914983502
23.527284,6.738941453237531,0.136585677877069
23.529672,6.752865506521701,0.1362033334003736
23.532052,6.765299315738651,0.1358663230305548
23.534448,6.77223867939555,0.1356383070145815
23.536836,6.775965237492532,0.1354689615237036
23.539232,6.780343421895573,0.135303393084655
23.541628,6.786444167791311,0.1351244599108549
23.54402,6.789891186634572,0.1349743328137236
23.5464,6.796830550291471,0.1347498988870278
23.548796,6.804189222828949,0.1344993531538473
23.551184,6.812758600179927,0.1342211893297703
23.553564,6.819465646411348,0.1339656983119775
23.555968,6.824869440030653,0.1337036026764728
23.558356,6.823707852903266,0.1335672726858708
23.560736,6.820077634320638,0.1335292450425478
23.563132,6.821754869842961,0.1334344785447401
23.56552,6.8270169979775375,0.1333016244777406
23.577464,6.829810494656874,0.1332657501569499
23.579856,6.8278556157387,0.1332541160104095
23.582236,6.827530750514605,0.1331924839868055
23.584632,6.832001482716262,0.1330653776552213
23.58702,6.837822689358278,0.1329044586424943
23.596568,6.811336432377512,0.1328913407901859
23.598964,6.808637379354663,0.1328408601430296
23.601352,6.810222067078369,0.1327142604195075
23.603736,6.810316510734856,0.1326294335654505
23.606132,6.815206551817094,0.132478533124919
23.60852,6.823588937712969,0.1322542508090472
23.6109,6.834020646183502,0.1319596576839879
23.613296,6.831416036817139,0.131823976308564
23.615688,6.825506074092244,0.1317103694341929
23.618068,6.823879852113903,0.1315195199360183
23.620464,6.825745974949198,0.131255617778682
23.622852,6.8277518674113535,0.130985817206325
23.625236,6.828174968007673,0.1307221016669084
23.627632,6.822684314163357,0.1305847304788071
23.63002,6.817798064796858,0.1304940666252973
23.632404,6.812911815430359,0.1304035734771177
23.6348,6.8073739397578015,0.1303089337733641
23.637188,6.808354223003692,0.1301360872675809
23.639572,6.8109172981154185,0.1299552531678001
23.641968,6.818136201026037,0.1297169770697736
23.644356,6.825262556138039,0.1294441768782049
23.646752,6.825730982704731,0.1292591484645309
23.649148,6.822474747032311,0.1291184591073168
23.651532,6.820941072852587,0.1289629996424349
23.653912,6.822340664979059,0.1287676070359814
23.656316,6.822017695612835,0.1285871171301145
23.6587,6.816340050313416,0.1284986517089834
23.661084,6.821976161358199,0.1282720420827469
23.66348,6.8352939143066855,0.1279867758793103
23.665864,6.84926329356123,0.1277080512892309
23.668248,6.861370341696218,0.1274525155763339
23.67064,6.868821562032313,0.1272499979231858
23.673028,6.880369531659858,0.1270244871457293
23.675424,6.895130306847321,0.1267427294135245
23.67782,6.908867368676388,0.1264366675748575
23.680208,6.919299077146922,0.1261512785529867
23.682588,6.923724483378206,0.1259512999840767
23.684984,6.925728479982492,0.1258036175843062
23.687372,6.926009915094081,0.1256689571288808
23.689752,6.927502055019168,0.1255092032858494
23.692156,6.9305769868100935,0.1253440829204608
23.694544,6.934675631959413,0.1252024387188444
23.696924,6.943941961586821,0.125021064339066
23.69932,6.956141557520427,0.1248023144606904
23.701708,6.964476721588058,0.124633450512515
23.704088,6.970670015282411,0.1244997477019128
23.706484,6.98058797121588,0.1243246053447994
23.708872,6.9844996249100975,0.1242343792505136
23.711252,6.983383363753085,0.124176435098436
23.713656,6.980824080357096,0.1241167359325907
23.716044,6.977845488080528,0.1240790171183455
23.718424,6.97924318434913,0.1240056409582998
23.72082,6.980268793565394,0.1239134394609836
23.723208,6.98143417240852,0.1238140365271469
23.725592,6.988326314237174,0.1236495940659245
23.727988,6.998663579051222,0.1234611248771867
23.730372,7.0172415642764125,0.1231914755021304
23.732756,7.0388925854346605,0.1228801333236228
23.735156,7.065059664764941,0.1225269548871702
23.737544,7.091226744095221,0.122178358816057
23.739924,7.115671261932804,0.1218442194665728
23.742324,7.140814627904688,0.1214741014502495
23.744708,7.16251287089118,0.121131241230949
23.747092,7.183699257198473,0.1207815178039843
23.749496,7.208238218692541,0.1203781722198353
23.75188,7.235430907239085,0.1199531172657891
23.75426,7.259969868733155,0.11954977168164
23.756664,7.287581866160279,0.1191040337597866
23.759052,7.313563849893325,0.118700312278936
23.761432,7.339917920678706,0.1183169844747023
23.763836,7.367482696277588,0.1179112855427296
23.766224,7.392253975197135,0.1175338990745003
23.768604,7.413672678929905,0.1172117664316458
23.771008,7.434672073782095,0.1169108920181412
23.773396,7.449665166395035,0.116688133454403
23.775776,7.461724992701779,0.116499795570705
23.778172,7.471690170463489,0.1163058873096368
23.78056,7.478210225239807,0.1161343979406584
23.78294,7.485149588896705,0.1159439899547864
23.785336,7.489155686247408,0.1157865846054024
23.787724,7.492882244344389,0.1156428348806688
23.790104,7.49740019837429,0.1154977653330323
23.7925,7.502709548337109,0.1153514404575541
23.797272,7.498986781955865,0.1152757281681487
23.799668,7.494937254492657,0.1152519851161653
23.802056,7.492889827775866,0.1152048664589504
23.804436,7.488980069939519,0.1151742784397956
23.806832,7.492427088782781,0.1150463429723026
23.809216,7.497364351693262,0.11488450719357
23.811612,7.502581153857464,0.1147102843750214
23.814012,7.509008660835164,0.1145147164850231
23.8164,7.516926411880085,0.1142838451812938
23.81878,7.526194637365362,0.1140255750313769
23.821176,7.534531697290863,0.1137741667084827
23.823564,7.545662253895698,0.1134988656730788
23.825944,7.5573046671797295,0.1132374391723859
23.82834,7.566385901209905,0.1130236098036953
23.830728,7.572114560053305,0.1128608529615341
23.833112,7.578494845202762,0.1127030328384823
23.835508,7.585946065538858,0.1125309499336333
23.837896,7.593537055501814,0.112353157058972
23.840276,7.598334548785434,0.1121990757500099
23.842672,7.606344847628972,0.1120012132806198
23.84506,7.621711923152119,0.1117090128819036
23.847456,7.638941329794822,0.1114044025381901
23.849852,7.6563105060643855,0.1110953949688351
23.85224,7.675681783080365,0.1107651428048265
23.854624,7.689046757857094,0.1105030368937284
23.85702,7.698407531140989,0.1102844778457546
23.859408,7.706417829984526,0.1100933245443058
23.861788,7.71535929438784,0.1098954715958805
23.864188,7.725604011403271,0.1097086092742863
23.866576,7.73691966360534,0.109509648706365
23.86896,7.7534502221137425,0.1092499686354385
23.871356,7.768677528010027,0.1089810599350589
23.873744,7.781111337226979,0.1087343830275101
23.876124,7.798899822377123,0.1084201605610029
23.878524,7.821251587527541,0.1080417474548492
23.880908,7.846304301558677,0.1076140085752981
23.883292,7.870565619656896,0.1071885789757753
23.885688,7.893756002568475,0.1067778436395438
23.888076,7.919600112532529,0.1063520170636028
23.89046,7.943302352123307,0.1059530951092424
23.892856,7.961929455034611,0.1056102684486607
23.895244,7.977623291639721,0.1052965351416104
23.897624,7.991966653804472,0.1050089297949126
23.900024,8.008312116715638,0.1047046446404162
23.902412,8.024797349253666,0.1043938146274404
23.904792,8.044355617724749,0.1040512274032433
23.907188,8.063402029516634,0.1036969836180937
23.909576,8.081517275748741,0.1033506713469076
23.91196,8.10019160048829,0.1029815879859605
23.914364,8.118865925227839,0.102616022740479
23.916748,8.129392077354858,0.1023311203158893
23.919132,8.138707524668382,0.1020649588117732
23.921528,8.148302511235624,0.1017864393072843
23.923916,8.156826562616226,0.1015219517421318
23.926296,8.161066873250277,0.1013074114016903
23.9287,8.16288577425733,0.1011297728373384
23.931088,8.163773509704603,0.1009581694114694
23.933468,8.166011719592236,0.1007631675619349
23.935864,8.172021813547223,0.1005109206362439
23.938252,8.181524252315848,0.1002126132749371
23.940636,8.191166460711333,0.0999079896734684
23.943032,8.19987750354704,0.0996092791261725
23.94542,8.210078790449966,0.0992822436889147
23.9478,8.216695184740638,0.0989740528984103
23.9502,8.221029939031174,0.0986934298785181
23.952588,8.22522492369485,0.0984197093355103
23.954968,8.229140369104805,0.0981572631867683
23.957364,8.2329160448879,0.0979008515273692
23.959752,8.23976475660405,0.0976183906730865
23.962132,8.24167810126759,0.097375127284201
23.964532,8.250808452983877,0.0970634355085867
23.966916,8.260730200633082,0.0967519239338615
23.969312,8.275447545708039,0.0964094844997389
23.971708,8.286300458917024,0.0960941515449489
23.974096,8.297293141752869,0.0957725854325634
23.976476,8.30949652940221,0.0954350561509691
23.978872,8.325843888171248,0.0950608736927069
23.98126,8.336976340633951,0.0947355287354175
23.983644,8.338610146043768,0.094504183565267
23.98604,8.336891376266813,0.094312003274827
23.988428,8.334101671303216,0.0941302580744988
23.990808,8.33038080077984,0.093953264221978
23.993204,8.325588995069827,0.093787399603468
23.995592,8.321309046039012,0.0936333296323435
23.997976,8.323454708128027,0.0934140727395656
24.000372,8.32159616872421,0.0932264835070497
24.00276,8.322810665253447,0.0930123979888961
24.00514,8.322162830663128,0.092808160159153
24.007536,8.315229154579836,0.0926633906341229
24.009924,8.310297579242963,0.092502171291786
24.01232,8.303224133532813,0.0923626421519162
24.014716,8.295359291889744,0.092222244792208
24.017104,8.276273241701093,0.0921769214095212
24.019484,8.259980688191776,0.0921163606521083
24.02188,8.246341861734935,0.0920460956845078
24.026652,8.207656008820564,0.0920405313524137
24.029048,8.196903226841675,0.0919838130320069
24.031436,8.192948143034954,0.0918811115749373
24.033816,8.19099515997465,0.0917628525758509
24.036216,8.197841975832931,0.0915848149297526
24.038604,8.207342518743685,0.091397931064049
24.040984,8.216283983147001,0.0912337906574411
24.04338,8.225085677923456,0.091075374348822
24.045768,8.229743401580215,0.0909537652883221
24.048148,8.237334391543172,0.0908118237519988
24.050544,8.241712575946213,0.0907013257352785
24.052936,8.251026127401865,0.0905565366088516
24.055316,8.263552484417433,0.0903809519204923
24.057712,8.279803503672115,0.0901878199522314
24.0601,8.29870824997927,0.0899878233058522
24.062484,8.322268824085317,0.0897667783388101
24.06488,8.360915038602922,0.0894344775429266
24.067268,8.40477615942686,0.0890626477534911
24.069664,8.44705448838496,0.0886913355559199
24.07206,8.492825162156695,0.0882791104013528
24.074448,8.541808641488348,0.0878390723090573
24.076832,8.58320302671491,0.0874457538481081
24.079228,8.62380601600856,0.0870541356354318
24.08162,8.66333807011557,0.0866736561084897
24.084,8.695001490863769,0.0863470709412055
24.086396,8.724802580492414,0.0860291452035491
24.088788,8.753952043815001,0.0857041917622138
24.091168,8.784312211951086,0.0853654918161146
24.093564,8.817465876766507,0.0850161291880354
24.095952,8.853832347141843,0.0846418331800503
24.098336,8.892620227144176,0.0842396403164227
24.100732,8.927403905653675,0.0838660349778909
24.10312,8.960045713789897,0.0835117671842951
24.105504,8.988823090060148,0.0831799275233217
24.1079,9.015366048158503,0.082841449118353
24.110292,9.034459681778632,0.0825338972956658
24.112672,9.039957919054425,0.082300510609568
24.115072,9.037447753344548,0.082117711937402
24.11746,9.035728983567587,0.081936682016721
24.119844,9.0312167171113,0.0817662985003868
24.12224,9.024842119535448,0.081603282223882
24.124628,9.018048213079018,0.0814552438216586
24.127012,9.011673615503168,0.081292120186267
24.129408,9.0045076219944,0.0811271942914957
24.131796,9.000554434045547,0.0809368939788183
24.13418,9.001816152403027,0.0807102169971675
24.136576,9.006430445947283,0.0804539662185266
24.138964,9.01025334355862,0.0801966013901266
24.141348,9.011422514117484,0.079944583091345
24.143744,9.007516547996875,0.0797240852023072
24.146136,9.001328941876132,0.0795249489883504
24.148516,8.997283206128662,0.0793095325170464
24.150912,8.99044397370186,0.0791026594217335
24.1533,8.986165920528913,0.0788645383793007
24.155684,8.981328788848526,0.0786463914412816
24.158092,8.983289355340307,0.0783965241419466
24.16048,8.992978785564036,0.0781110605822823
24.16286,9.006672417280598,0.0778029841038741
24.165264,9.017572552317825,0.0775042613288382
24.167648,9.034199450340584,0.0771838518912017
24.170028,9.050686578736478,0.0768691106071347
24.172432,9.066522080826315,0.0765465596313291
24.17482,9.07993617328916,0.0762506473607946
24.1772,9.097354467244834,0.0759345423673785
24.179608,9.10876645896126,0.0756507068124607
24.181996,9.116965645117768,0.0753924873959657
24.184376,9.122883191274138,0.0751556711067857
24.186772,9.127729802243874,0.0749265860607505
24.18916,9.134159205079444,0.074702025847136
24.19154,9.143801413474929,0.0744547547559513
24.193936,9.154933865937632,0.0741855325532933
24.196324,9.166066318400336,0.0739175231623697
24.198704,9.185067404221847,0.0736144092201263
24.201104,9.2032298722822,0.0733418917847088
24.203488,9.224185837021889,0.0730629274965545
24.205868,9.242068765828511,0.0728030154188293
24.208268,9.260091464262004,0.0725404891485918
24.210656,9.278905558628416,0.07228185775691
24.213036,9.301584084860796,0.0720095754284869
24.215436,9.318256308853924,0.0717670304404362
24.21782,9.33278666247378,0.0715383124957343
24.220204,9.35025028239983,0.0712981385992646
24.2226,9.370647168632074,0.0710469494283195
24.224988,9.384758213371349,0.0708335178154331
24.227368,9.403664855536372,0.0706034340202691
24.229764,9.418427526581702,0.0703963187291862
24.232152,9.434912759119731,0.0701901519853834
24.234536,9.45340009240418,0.0699753389549286
24.236932,9.471235799382566,0.0697541302421339
24.23932,9.487721031920591,0.069550031543339
24.241704,9.505509517070736,0.0693614011371747
24.2441,9.521435671101322,0.0691777314935857
24.246488,9.532426458079298,0.0690150463445028
24.248872,9.53983235244502,0.0688557974336152
24.251268,9.543932893452208,0.0686915620205152
24.253656,9.545100168153205,0.0685377386596693
24.256036,9.54305463729428,0.0684041378312933
24.258436,9.538495149009744,0.0682674848248993
24.260824,9.528860524045736,0.0681544153916879
24.263204,9.520436603895227,0.068029750704054
24.2656,9.517087820424187,0.0678815380352854
24.267988,9.510945540273816,0.0677390064686884
24.270368,9.502149533070968,0.0675976687471437
24.272764,9.493912604375565,0.0674370894172827
24.275152,9.482742409373962,0.0672866413635659
24.277536,9.476135494372636,0.0671005206891555
24.279936,9.469156492318971,0.0668983358522643
24.282324,9.461106555078668,0.0667027257988632
24.284704,9.451845913024869,0.0665178785900995
24.287108,9.44472714134434,0.0663205842988597
24.289496,9.435885808171122,0.0661225939512228
24.291872,9.42676493574418,0.0659333203465239
24.294276,9.419506394436794,0.0657405263863396
24.296664,9.415320889062464,0.0655328852715102
24.299044,9.40806234775508,0.065338611538841
24.30144,9.405739173500308,0.0651265045532241
24.303828,9.404766473685896,0.0648988818645312
24.306208,9.40565610499104,0.0646682170018083
24.308604,9.412040181856234,0.0644020937705987
24.310992,9.422148920960543,0.0641306070139697
24.313372,9.425599731519544,0.0638747490383184
24.315768,9.433706369877436,0.0636118288045371
24.318156,9.444746274541524,0.0633407125529741
24.320536,9.464446208497336,0.0630490964743291
24.32294,9.488429883199704,0.062734602979876
24.325324,9.514275889021627,0.0624202864992591
24.327704,9.535838154096997,0.0621295445889404
24.3301,9.558471354359003,0.0618340469862333
24.332484,9.584457129807786,0.061518094573002
24.334868,9.607789178204095,0.0612030123568843
24.337264,9.631260996227264,0.0608842732463856
24.339648,9.659947720556769,0.060543797315349
24.342044,9.690124688953489,0.0601871470594315
24.344448,9.723374693283263,0.0598209909498857
24.346836,9.761280525411932,0.0594488308413884
24.349216,9.797463796047904,0.0590768623550667
24.35162,9.83429869298993,0.058714170257146
24.354004,9.868991719558682,0.0583634995832022
24.356388,9.90033217094066,0.0580350676590677
24.358792,9.925945859337109,0.057717715379447
24.361176,9.956634684413023,0.0573828027389976
24.363556,9.982527912063189,0.057058090582057
24.365952,10.00548787340716,0.0567417901073833
24.368336,10.019787805459409,0.0564437898037869
24.370716,10.035018903071432,0.0561474684249986
24.373112,10.04224159769779,0.0558743366747286
24.375496,10.05453942900362,0.0555848242980802
24.377876,10.06604586437653,0.0552927572443827
24.380272,10.074619033443248,0.05500804574106
24.38266,10.081841728069604,0.0547361834980366
24.385056,10.088133257136182,0.0544651237969944
24.387452,10.087627088030594,0.0542075114033889
24.389836,10.081626473364947,0.0539779063850866
24.39222,10.069619556460056,0.0537642284956976
24.394616,10.058963113995524,0.0535379933098834
24.397004,10.049098067463907,0.0533155183635213
24.399384,10.036439524252954,0.0530942555153148
24.40178,10.021639110668724,0.0528814202773457
24.404168,10.008701028204054,0.0526675316749767
