Time,Force,Position
23.848724,5.254730479304101,0.1677936093348246
23.85112,5.264831634976932,0.167744550793818
23.853508,5.278377913635157,0.1676398253678124
23.855892,5.309104481249972,0.1671662478120665
23.858288,5.349282474089431,0.1664700463492493
23.860676,5.3882969839436345,0.1657475013573687
23.863056,5.431223147492055,0.1648812433201043
23.865452,5.475360015853973,0.1639852540544514
23.86784,5.520707589029391,0.1630475324243447
23.870224,5.566194931831669,0.1620983788332138
23.87262,5.609495078290294,0.1611228578072497
23.875008,5.649397323591771,0.1601536777421947
23.877392,5.691348891467907,0.1590873425795556
23.879788,5.72887694897063,0.1581610783426219
23.882176,5.764914762406135,0.1572958093326789
23.884556,5.798438618416023,0.1564647983696094
23.886956,5.826702242149206,0.1556992431662745
23.889344,5.852312138829912,0.1549948776989949
23.891724,5.8724275899505685,0.1544513437608987
23.89412,5.8902614010710845,0.1539769943261988
23.896508,5.91037685219174,0.1534447830547372
23.898892,5.927606258834443,0.1529223090486751
23.901288,5.945674283238306,0.1523483641492837
23.903676,5.954243660589284,0.1520064342008542
23.90606,5.968819340179511,0.1515477047542009
23.908456,5.988749695702932,0.1509651606257858
23.910844,6.001650035628707,0.1504805567154308
23.913228,6.008963382195812,0.1500906502688704
23.915624,6.02093255656181,0.149627635741809
23.918012,6.034344753166782,0.1491616393888472
23.920392,6.045056000891037,0.1487796714465418
23.922792,6.056139335667629,0.1484170334734426
23.925176,6.064009864884305,0.1481295683435331
23.927556,6.080308105967229,0.1476630356556659
23.929956,6.097677282236791,0.147171494770167
23.932344,6.118678572946851,0.146582318795309
23.93474,6.130228438432268,0.1461498010203832
23.937136,6.133397813879679,0.1458528617042029
23.982528,5.981234540054746,0.1457405469361787
23.984912,5.982445244868247,0.1457078046887897
23.996868,5.991058052331727,0.1456078217968379
23.999252,5.996085967182956,0.1455542349166805
24.001648,6.002092269422207,0.1454386546255219
24.004036,6.010100672407875,0.1452832614791121
24.006416,6.016479061699462,0.1451876510814445
24.008816,6.024719782110607,0.145063413482654
24.011204,6.037384012895166,0.144837017688903
24.013588,6.055263149986057,0.1445037635885442
24.015984,6.078869050062479,0.1440761517728397
24.018372,6.097212822004326,0.1438004149082178
24.020756,6.115137285065591,0.1435515061445712
24.023156,6.134412222567215,0.1432584698806897
24.025544,6.1439561955904765,0.1431409607465473
24.027928,6.150706671934401,0.1430665340060567
24.037492,6.160947597234094,0.1430376468283861
24.03988,6.165044346525545,0.1430003674485385
24.042264,6.179942995481999,0.1427690873600499
24.04466,6.198613528505808,0.1424369137807798
24.047048,6.211836837797808,0.1421851165192635
24.049428,6.223569903022588,0.1419838590319237
24.051828,6.237816925672983,0.1417592790101076
24.054216,6.259792812055325,0.141411879324473
24.0566,6.282048237691388,0.1410534514870456
24.058996,6.2997876051554185,0.1407569538651839
24.061384,6.314453936686395,0.1405202984695153
24.063768,6.327769793777011,0.1403249681615415
24.066164,6.349373593107016,0.139975764423936
24.068552,6.373818110944598,0.1395469565606766
24.070932,6.398961476916483,0.1390783915761392
24.073332,6.431973476247173,0.1384816337498332
24.07572,6.472015491175511,0.1378060612860134
24.0781,6.510195174984291,0.137158386547699
24.080496,6.554660700286043,0.1364009450060962
24.082888,6.59540156334868,0.1356969911766955
24.085268,6.638144527157735,0.1349639920347115
24.087668,6.683541218019265,0.1342078828065361
24.090056,6.722140210708626,0.1335663670971707
24.09244,6.758597333024709,0.1329762048943763
24.094836,6.796777016833491,0.1323718125610231
24.097228,6.836539492508107,0.1317624735647584
24.099608,6.87229776668989,0.1312149409699688
24.102008,6.899815320460529,0.1307715284616536
24.104396,6.9248189168055525,0.130351852484483
24.106776,6.951684844270134,0.1299108592083575
24.109172,6.979993793973691,0.129472673952565
24.11156,7.009233909237024,0.1290285664718428
24.11394,7.039172872634659,0.1285574646341427
24.116336,7.069111836032295,0.1280952797103216
24.118724,7.101285217601826,0.1276357288559359
24.121108,7.128243692865022,0.1272596789837594
24.123504,7.152036584396547,0.1268993483138491
24.125892,7.174106914435376,0.126550538861438
24.128272,7.189379546302035,0.1262914455941478
24.130672,7.2051640348478925,0.1260424225695914
24.133056,7.218015257087555,0.1258322233657288
24.13544,7.228072982647882,0.1256539328744833
24.137836,7.236687685969233,0.1254737164864176
24.140224,7.243440058171027,0.1253147387368297
24.142608,7.2520547614923805,0.1251371268374984
24.145004,7.260949004067452,0.1249466489393039
24.147392,7.275337692202577,0.1246647644552594
24.149776,7.292659646643897,0.1243461753731428
24.152172,7.309702061831497,0.1240427221127421
24.15456,7.327396103325154,0.1237459658993803
24.156944,7.342576187393196,0.1234648310486127
24.159344,7.352309047729429,0.1232349758502589
24.161732,7.355616296945831,0.1231061320119227
24.164116,7.355850510229176,0.1230204778114569
24.166512,7.3555728668333265,0.1229240123514954
24.168904,7.362232691236502,0.1227426057277535
24.171284,7.370754846759238,0.1225438849405749
24.17368,7.386354239707859,0.1222560587844276
24.176068,7.405678294895598,0.1219324486994917
24.178452,7.428215155643251,0.1215622550493119
24.180848,7.454244361204539,0.1211333848507418
24.18324,7.478551005273132,0.1207143389119491
24.18562,7.5075134771406145,0.1202525993542483
24.188016,7.53582432270204,0.1197866977617342
24.190404,7.559758879718295,0.1193538384950065
24.192784,7.580388083376017,0.1189374130562321
24.195184,7.597804481473823,0.1185706471580447
24.197572,7.612287613265434,0.1182365692103797
24.199956,7.628912615430321,0.117873905174137
24.202352,7.640090393863399,0.1175551386353589
24.20474,7.654341208229534,0.1171985571947066
24.20712,7.672596224088501,0.1167939743161704
24.20952,7.692201714387828,0.1163587821578305
24.211908,7.709153477634679,0.1159412884146454
24.214292,7.723171974575335,0.1155580581644642
24.216688,7.72666811110471,0.1152821509708283
24.219076,7.72629981576811,0.1150472661813158
24.221456,7.718062887072704,0.1149005466854104
24.223856,7.708243166511462,0.1147572500040915
24.226244,7.697632050017301,0.11461550806249
24.228628,7.681386718336228,0.1145608252209301
24.231024,7.670216523334626,0.114444851410577
24.233412,7.657463536467189,0.1143315343322812
24.235792,7.648435211838864,0.1141859812226332
24.238192,7.640989679076377,0.1140371928441853
24.24058,7.634056002993086,0.1138995093904644
24.24296,7.628472801350155,0.113734400668262
24.24536,7.629827067506253,0.1134958425707379
24.247748,7.6282480673561555,0.1132874269084904
24.250132,7.630533499072031,0.113040639039305
24.252528,7.628954498921933,0.1128314779247051
24.254916,7.625373398025419,0.1126442117860131
24.2573,7.6236546282484605,0.1124417007711811
24.2597,7.625380981456895,0.1122210616362778
24.262088,7.62682779541161,0.112012875734046
24.264472,7.638005573844689,0.1117080544027988
24.266872,7.65211661858396,0.1113736741597306
24.269256,7.672094195935625,0.1109811427476574
24.27164,7.690721298846928,0.1106157155842799
24.274036,7.707206531384958,0.1102793183108754
24.276424,7.728906670229316,0.1098783116674808
24.278808,7.747254233886903,0.109528771733102
24.281204,7.762109452730852,0.1092340173187476
24.283592,7.773751866014884,0.1089827851579977
24.285972,7.785254509672057,0.1087380878793534
24.288372,7.795546448515731,0.1085124898815114
24.29076,7.807141639971521,0.1082996309344531
24.29314,7.812590759561199,0.108157633098164
24.295536,7.818691505456937,0.1080209623872581
24.297924,7.826514812845369,0.1078768654119849
24.300304,7.8339188113532225,0.1077509029839792
24.302704,7.841974436167133,0.1076303218964796
24.305092,7.848959125794404,0.1075237642055981
24.307476,7.857434059488895,0.1073857746240657
24.309872,7.866048762810246,0.1072410835228227
24.31226,7.871869969452262,0.107119249913367
24.314644,7.875689075347861,0.1070178408861861
24.31704,7.878577015683683,0.1069243357364887
24.319432,7.884537991952559,0.1067982253088439
24.321812,7.895574104900908,0.1066209515561618
24.324208,7.903816721169923,0.1064645008499091
24.326596,7.911128171879159,0.1063144990017961
24.32898,7.923794298521587,0.1061010727800317
24.331376,7.933806698111542,0.1059006797446685
24.333764,7.943027701768575,0.1057006408044552
24.336148,7.956392676545304,0.1054554598975894
24.338544,7.963239492403586,0.1052568977313784
24.340932,7.969155142702089,0.105064220878154
24.343316,7.9764212674409505,0.1048468493601986
24.345716,7.9799627299407,0.1046564762871981
24.348104,7.990860969120058,0.1043839786275128
24.350488,8.004832244232471,0.104081064076726
24.352884,8.016801418598467,0.1037966672693159
24.355276,8.027559888150966,0.1035330413744943
24.357656,8.03952906251696,0.1032509071511118
24.360056,8.04935636650968,0.1029943490392571
24.36244,8.063327641622093,0.1026955218935952
24.364824,8.072503319308755,0.1024347961484202
24.36722,8.079956435502721,0.1021819226411425
24.369608,8.082334415017213,0.1019794485866192
24.371992,8.083781228971928,0.10178262668032
24.374388,8.08550758218036,0.1015734152317574
24.376776,8.08416089945574,0.1013955402839708
24.379156,8.085095856731257,0.1011867625457225
24.381556,8.09017478512647,0.1009365385698445
24.383944,8.092599986469205,0.1006991468126925
24.386324,8.099308928558496,0.1004127975981566
24.388724,8.109370445834562,0.1000845161642261
24.391112,8.117429862364212,0.0997748235841
24.393492,8.131635350759971,0.0994074149911377
24.395892,8.139694767289619,0.0991015325192546
24.39828,8.144309060833876,0.0988083594705975
24.40066,8.152136159938049,0.0984803081633044
24.40306,8.158100927922664,0.0981641025714727
24.405448,8.165928027026835,0.0978380189613086
24.407828,8.173894895757867,0.0975055874929439
24.410228,8.177578023742344,0.0972200016564342
24.412616,8.184846044339075,0.0969174584436582
24.415,8.190111964189388,0.0966315964465693
24.417396,8.193375783293286,0.0963614337882437
24.419784,8.200084725382576,0.0960807454017739
24.422168,8.208004372285366,0.0957830196584775
24.424564,8.214992853628376,0.0954908731876538
24.426952,8.22528668832992,0.0951955214067906
24.429332,8.23157632153863,0.0949349366709308
24.431732,8.238657350680256,0.0946748653738095
24.43412,8.24718140206086,0.0944225941235328
24.4365,8.25142171269491,0.0942143955696087
24.438896,8.25417177926174,0.0940339252907509
24.441284,8.25077577396246,0.0939089290136814
24.443664,8.246728142357123,0.0937772835595554
24.446064,8.239979561871065,0.0936906006514097
24.448452,8.231368650265452,0.0936142603867485
24.450832,8.225970544219754,0.0935046783524301
24.453232,8.218430567800782,0.0934170070593718
24.455616,8.215686188807558,0.0932981776850412
24.458,8.213361118694918,0.0931619340336569
24.460396,8.211036048582274,0.0930259831345707
24.462784,8.213506575895384,0.0928595203122573
24.465168,8.221192009514827,0.0926453475032322
24.467568,8.227434420895293,0.0924248789949898
24.469956,8.235399393768454,0.0922014405565336
24.472336,8.245226697761174,0.0919686837203527
24.474732,8.252400274701419,0.0917459443690724
24.47712,8.26143618276122,0.0915140265235602
24.479504,8.274196753060135,0.0912649646505605
24.4819,8.287236862612769,0.0910067144251828
24.484292,8.304420943285098,0.0907129939994701
24.486672,8.325376908024785,0.0903666443135286
24.489068,8.35205963575,0.0899887970973299
24.491456,8.38232725608747,0.0895994017956607
24.49384,8.419020487544769,0.0891500280015306
24.496236,8.458367446054542,0.0886948411756484
24.498628,8.4950134556836,0.0882842807026361
24.501008,8.532730400499295,0.0878653496831373
24.503404,8.56472058232946,0.0874810472444143
24.505792,8.599224721585239,0.0870962250686335
24.508172,8.6329374649081,0.0867117330294877
24.510568,8.664648107484544,0.0863448274148194
24.512956,8.697150145993907,0.0859836391367905
24.51534,8.732585450809465,0.0856082973144523
24.517736,8.768020755625024,0.0852368552986413
24.520124,8.802524894880802,0.0848710398598358
24.522508,8.83809996932322,0.084497897427885
24.524904,8.873023417459581,0.0841203595991975
24.527296,8.90249964186413,0.0837631174301476
24.529676,8.930113535149125,0.0834158334021302
24.532076,8.959589759553676,0.0830643187054311
24.534464,8.989438071010563,0.082732469391645
24.536848,9.01383915873564,0.0824192353452473
24.539244,9.035446749781386,0.0821179063157044
24.541632,9.052118973774515,0.081845796583768
24.544016,9.06706863627495,0.0815769696362206
24.546416,9.081506442096186,0.0812962378353819
24.548804,9.095432391238228,0.0810050282539373
24.551188,9.110429275566906,0.0807048891998674
24.553588,9.121049871350412,0.0804118694258024
24.555976,9.13101884082786,0.0801124258288523
24.55836,9.13526104731978,0.0798373159971957
24.560756,9.133916260453027,0.0795827280591289
24.563144,9.12484260985433,0.0793645614826544
24.565528,9.11083359220302,0.0791728001833163
24.567928,9.095102013059014,0.0789820271749182
24.570316,9.078299498728368,0.0787994061565181
24.5727,9.058284178837807,0.0786409889088626
24.575096,9.037197923760608,0.0784899985816934
24.577484,9.017973999802964,0.0783321792756304
24.579868,8.993954478419568,0.0781949423809027
24.582264,8.967560769237421,0.0780515139293785
24.584652,8.941167060055273,0.0779071001983894
24.587036,8.918777552365956,0.0777396801512076
24.589436,8.898529915049918,0.0775553022721669
24.591824,8.87814250810702,0.0773755176204511
24.594208,8.859245345231342,0.0771718988050257
24.596604,8.839928873475081,0.0769827595546272
24.598992,8.82354566802502,0.0767795083002191
24.601376,8.812749455933625,0.0765586608279969
24.603772,8.799392064588371,0.0763676685425009
24.60616,8.791901205855508,0.0761485606690403
24.608544,8.787064074175122,0.0759251908132455
24.610944,8.791818137346237,0.0756634185483659
24.613332,8.802578502756607,0.0753700631951506
24.615712,8.815852825592588,0.0750783686914409
24.618112,8.827264817309011,0.0747920556163994
24.6205,8.841610075331632,0.0744916535059206
24.622884,8.863684197086199,0.0741606790832353
24.625284,8.881754117347931,0.0738513366672959
24.627672,8.904759404662276,0.0735198225906294
24.630052,8.92762492234976,0.0731937181256999
24.632452,8.955006498209277,0.0728606730191745
24.63484,8.975310836642906,0.0725662295531754
24.637224,8.997197966942368,0.0722782001726543
24.63962,9.022018363548028,0.0719795541242964
24.642008,9.043998041646107,0.0717205538308737
24.644392,9.06597771974419,0.0714621946869795
24.646788,9.08753808896169,0.0712205941870747
24.649176,9.105234026313218,0.0709948528816251
24.65156,9.12642230847838,0.0707370593355911
24.653956,9.14733105138982,0.0704902466008865
24.656348,9.171173060607458,0.0702332605954526
24.658732,9.189008767585849,0.0700065348140844
24.661128,9.20190910751162,0.06980166993495
24.66352,9.215088986691116,0.0695881185332829
24.665904,9.230131196990166,0.0693700684248174
24.668304,9.247035738408776,0.0691486254978697
24.670692,9.257002812028356,0.0689577475412069
24.67308,9.264967784901518,0.0687747282781878
24.675488,9.26785762109521,0.0686171419547349
24.677876,9.273401184341374,0.0684583917775527
24.68026,9.270936344601871,0.0683351078289549
24.682664,9.276340138221178,0.0681809229856094
24.685048,9.279741831094066,0.0680360852492365
24.687436,9.278999552847258,0.0679139849976304
24.689828,9.282541015347006,0.0677649286312655
24.692216,9.285802938593037,0.0676253905643217
24.694604,9.28534019959995,0.0674939472147968
24.696996,9.28673979172642,0.0673586049703949
24.699384,9.289722175718726,0.0672291935193823
24.701768,9.292844329337896,0.0670954791438876
24.704176,9.29103111590445,0.066980881355592
24.70656,9.291220003217424,0.0668578755946656
24.708948,9.293922847956011,0.0667384762950652
24.711348,9.297417088627515,0.0666224045108922
24.713736,9.304915530791856,0.0664905902000029
24.71612,9.311622577023275,0.0663566615012453
24.718516,9.323404759934167,0.0662006858416815
24.720908,9.34440605064423,0.066002522405026
24.723292,9.367269672473846,0.0658007283879604
24.725688,9.385989323183768,0.0656196392446344
24.728076,9.414347390573436,0.0653825266422865
24.730464,9.437118464604437,0.065156946896812
24.73286,9.45816697714274,0.0649300012393964
24.735248,9.48070573374826,0.0646834484921663
24.737636,9.502033785540284,0.0644490049687722
24.740032,9.524852081399525,0.0641956511344675
24.74242,9.550743413191825,0.0639288220813772
24.74482,9.574772413864563,0.0636657426193652
24.747216,9.599080953791024,0.0633957466799023
24.749604,9.622737867411423,0.0631194701864901
24.752004,9.647465716218466,0.0628367563536637
24.7544,9.672473104279227,0.0625466422767496
24.756788,9.70004167159385,0.0622334709597147
24.759184,9.724025346296218,0.0619222631429371
24.76158,9.742142488386191,0.0616296367603509
24.763968,9.757326364169971,0.0613457490310124
24.766364,9.7706479088342,0.0610664748891695
24.76876,9.774890115326116,0.0608213373842615
24.771144,9.780622565885254,0.060558045489895
24.773544,9.791989231631304,0.0602588016749079
24.775944,9.79921192625766,0.059979324758664
24.778332,9.81230115349641,0.0596857343597882
24.780728,9.83060528704149,0.0593706726852913
24.783128,9.848909420586567,0.059056605156633
24.785516,9.868843567825728,0.0587219685165517
24.78792,9.890779815811303,0.0583836860183561
24.790312,9.909922567117546,0.0580487182860125
24.792708,9.93320928954348,0.0576990048743388
24.795108,9.95356274566322,0.0573575065243838
24.797496,9.975918302529378,0.057012004184405
24.799892,10.00148666495545,0.0566528473682522
24.802288,10.02398199144847,0.0563049967581893
24.804676,10.038468914955818,0.0559801265762958
24.807072,10.054957939209585,0.0556497248903456
24.809472,10.072517898649988,0.0553140353719514
24.811856,10.095292764396724,0.0549594909867578
24.814256,10.113923659023769,0.0546201926423058
24.816652,10.135627589583867,0.05426938738132
24.81904,10.15425848421091,0.0539296246060813
24.82142,10.166743306971842,0.0536111355598748
24.823816,10.177877655292418,0.0533059212311162
24.826204,10.180072435067546,0.0530225493606719
24.828588,10.177983474096123,0.0527587413646599
24.830984,10.17789661387111,0.0524905948875272
24.833372,10.172734616966627,0.0522370988254157
24.835752,10.15970398670334,0.0519988839266908
24.838148,10.148535687559608,0.0517593447282157
24.840536,10.133223417296184,0.051533916814467
24.84292,10.117911147032755,0.0513078944861917
24.845316,10.096313035276358,0.0511037763367586
24.847704,10.070431182773406,0.0509169002703251
24.8501,10.045620265457092,0.0507247371973572
24.852496,10.029748916686229,0.0505132421009867
