Time,Force,Position
23.717804,5.377266969830332,0.1690565259646138
23.720204,5.396447463675469,0.1687756528579063
23.722592,5.427081483491668,0.1682418781922298
23.724972,5.462418552935002,0.1675606204295562
23.727368,5.492448168273385,0.1669804696453894
23.729756,5.519684286932434,0.1664631100008706
23.732152,5.54757203189754,0.1659498826276522
23.734548,5.582956323169117,0.1652259087715175
23.736936,5.613732008470045,0.1645410102629096
23.73932,5.641901188546741,0.1638507084134829
23.741716,5.673235952355109,0.1631386547535278
23.744104,5.704755811760712,0.1625145089794414
23.746484,5.738602637136825,0.1619249569490753
23.74888,5.783623449230278,0.1611015793119379
23.751272,5.833998937256925,0.1601439518829259
23.753652,5.881813246029712,0.1592859992706433
23.756048,5.932513599280455,0.1584331777844383
23.758436,5.984517205143311,0.1575952819683783
23.76082,6.035217558394052,0.1567678123620227
23.763216,6.081868384181585,0.1559517119743124
23.765604,6.125772935118027,0.1551607539858673
23.767984,6.1651614278824365,0.154470058344693
23.770384,6.199614553594233,0.1538906745244653
23.772772,6.228899994827942,0.1533826364635702
23.775152,6.256230557143476,0.1528626118465295
23.777548,6.278113895727201,0.1524211760068427
23.779936,6.300137003937786,0.151973618515448
23.78232,6.319459163267654,0.1516139574437489
23.784716,6.341435049649996,0.1512121345429959
23.827736,6.124898645294324,0.1510989001112206
23.830124,6.112377975852364,0.1510591121977504
23.832504,6.1066550045825725,0.1508971837854431
23.8349,6.10228250775314,0.1506943284870993
23.837292,6.098049780550569,0.1504827567270173
23.839672,6.094887988534634,0.1502477684344482
23.842072,6.093169218757676,0.1500091406084582
23.84446,6.10048256532478,0.1496415915184539
23.846844,6.120180603422723,0.1490617672555966
23.84924,6.135315361520393,0.1485948498891716
23.851628,6.155897343349872,0.1480478396633965
23.854008,6.173918145925493,0.1475714220632567
23.856404,6.196315237046283,0.1470344046733806
23.858792,6.218712328167077,0.1465000225106149
23.861176,6.243902915967205,0.1459155204405733
23.863572,6.272306309327247,0.1452545949143368
23.86596,6.292841069328484,0.1447397314083128
23.868344,6.311932807090741,0.1442313087949388
23.870744,6.33116431447986,0.1437184308327301
23.873132,6.3457399940700885,0.1432856175353228
23.875512,6.356451241794343,0.142920361805337
23.877912,6.366231323958819,0.1425719697576326
23.8803,6.368654629443688,0.1423790552153759
23.882684,6.37158979160775,0.1421985509000062
23.88508,6.372243313771679,0.1420717290487772
23.899412,6.342593368917108,0.1419881879421051
23.9018,6.335937336229669,0.1419643894485191
23.904184,6.33091131723631,0.141884121243756
23.90658,6.323743427869671,0.1418478619910596
23.908968,6.318298099995731,0.1417926059498058
23.911352,6.311362528054572,0.1417849200818035
23.913748,6.312667676524557,0.1416626377989013
23.920916,6.304615843426387,0.1415951443961879
23.923304,6.30331259081427,0.141588586408158
23.925684,6.30387166932171,0.1415546130374956
23.928084,6.306200531150091,0.1414559187301493
23.930472,6.308669162605331,0.1413493116042007
23.932852,6.310206628500793,0.141255406881236
23.935248,6.309090367343781,0.1411940345168748
23.937636,6.312118077306463,0.1410518053499778
23.940016,6.312352290589809,0.14095161852899
23.942412,6.315240230925631,0.1408189471248792
23.944796,6.319803510925905,0.1407132997245668
23.94718,6.333026820217905,0.1404687336124691
23.949576,6.345830820629325,0.1402537945043812
23.95196,6.353140375480691,0.1401556534156505
23.95436,6.36417459257117,0.1400045789472172
23.956756,6.377862536714125,0.1398249250315293
23.959144,6.397556783096329,0.1395446224245151
23.96152,6.417158481679917,0.1392342355100131
23.96392,6.44104392101006,0.138845988317153
23.966304,6.472286137019812,0.138324769048633
23.968688,6.510977677507789,0.1377056379926501
23.971084,6.54822619575679,0.1370940685155213
23.973472,6.583891922139956,0.1364981627884313
23.975852,6.615925534082626,0.1359832862075918
23.978248,6.646748441211797,0.1354986773416671
23.980636,6.687022773565611,0.1348915865747772
23.983032,6.735817365584291,0.1341729655661747
23.985428,6.783541022416332,0.1334852382417113
23.987816,6.830985139994652,0.1328144716163267
23.9902,6.878429257572973,0.1321485117711522
23.992596,6.927363619218512,0.1314438152456784
23.99498,6.9722012315726,0.1307790257816482
23.997364,7.013593720941296,0.1301485059728163
23.99976,7.060340886243185,0.1294226848489576
24.002148,7.105225720425517,0.1287240209792068
24.004532,7.148807301995731,0.1280296116847954
24.006928,7.187081429460998,0.127393754488494
24.009312,7.222562060246931,0.1267980279842699
24.011692,7.251617079913033,0.1263126028214393
24.0141,7.277971150698415,0.1258988749786699
24.016484,7.297946832192211,0.1255514041049176
24.018868,7.316991348126227,0.125215793891853
24.021264,7.336035864060244,0.1248825807783694
24.023652,7.359224351113953,0.1244860702767446
24.026032,7.384554708540941,0.1240575912378937
24.028428,7.402575511116561,0.123706666622198
24.03082,7.413706067721396,0.1234084496587966
24.0332,7.424184998020173,0.1231080299334693
24.035596,7.43587463313245,0.1227850857885775
24.037984,7.446633102684947,0.1224724549687976
24.040364,7.456739945931386,0.1221575726129028
24.04276,7.463913522871631,0.1218776361319187
24.045148,7.471878495744795,0.1215952351358952
24.047544,7.479563929364237,0.1213287963701233
24.04994,7.492184730036292,0.1210064835565199
24.052328,7.499450854775154,0.1207628826391224
24.054708,7.510162102499409,0.1204984297458031
24.057104,7.520174502089363,0.1202680928370109
24.059492,7.53461041205273,0.1199688036774311
24.061876,7.545601199030703,0.1196914592513178
24.064268,7.559944561195455,0.1193607905502634
24.06666,7.571075117800289,0.1190755448011654
24.06904,7.582205674405125,0.1187918711178663
24.07144,7.595617871010098,0.11847346321021
24.073824,7.606096801308875,0.1181886540729728
24.076208,7.613502695674597,0.1179413079515721
24.078604,7.62528487858549,0.1176652585976913
24.080992,7.632783320749829,0.1174499436618602
24.083372,7.63907105810067,0.1172571531455935
24.085776,7.648431831384566,0.117026855462873
24.088164,7.656721669481823,0.116812613652018
24.090544,7.665802903511997,0.1165958203337678
24.092944,7.673021806422615,0.1163955063656834
24.095332,7.677586982280758,0.1162144844015155
24.097712,7.674283524780094,0.1161209510979036
24.100108,7.671119836906291,0.116020288294496
24.102496,7.662369155673819,0.1159704532742959
24.107272,7.637418468730647,0.115938963466587
24.112044,7.61377103439959,0.1159156040723961
24.11444,7.607534310592731,0.1158532394046307
24.119208,7.58519012887379,0.1158377254427348
24.121608,7.573878268387459,0.1158361059526239
24.123992,7.568293170886657,0.1157781793559893
24.126392,7.559635037452801,0.1157580740713911
24.128788,7.558054141444834,0.1156541372182211
24.131176,7.555821619130809,0.1155451072564569
24.133556,7.547722564204394,0.1154981131978052
24.135952,7.538412804464479,0.1154723425787451
24.138336,7.531896541403901,0.1154220282947306
24.140716,7.529104940582434,0.115339265172081
24.143112,7.528175670880525,0.1152403645796185
24.1455,7.532041998604368,0.1150944886467638
24.147896,7.540564154127103,0.1149079670358181
24.150292,7.552810971888951,0.1146885825273525
24.15268,7.567199660024075,0.1144404699497246
24.155064,7.584801153719115,0.1141458359019275
24.15746,7.598258676294463,0.1139042517510497
24.159844,7.61213550775039,0.113644255036212
24.162228,7.621775820288006,0.1134058538275502
24.164624,7.63220752875854,0.1131649443986806
24.167012,7.647155295401106,0.1128923908457021
24.169392,7.661451435737613,0.1126158628491699
24.171788,7.674164784208284,0.1123436279619128
24.174176,7.689299542305953,0.1120314794098799
24.176556,7.698567767791231,0.1117801275469791
24.178952,7.710909029209565,0.1114942218699953
24.18134,7.728977053613431,0.1111568341549991
24.183736,7.75025788357721,0.1107787671093312
24.186136,7.77181825279471,0.1103915566368503
24.18852,7.789002333467039,0.1100290430875175
24.190904,7.803253147833173,0.1096951426055457
24.1933,7.814058839213914,0.109378698049096
24.195688,7.825563378728956,0.109033326099701
24.198072,7.837487227124578,0.108670904510458
24.200468,7.848200370706702,0.1083293101717307
24.202852,7.8617070109681615,0.1079675824139465
24.205236,7.8774952912297564,0.1075723231609754
24.207632,7.893283571491352,0.1071794467768158
24.210016,7.911446039551702,0.1067846913448422
24.212396,7.930958982052412,0.1063642851607031
24.214796,7.943022600074895,0.1059999245523865
24.217184,7.953875513283879,0.1056550345693909
24.219564,7.96659075761242,0.1052983419609923
24.221968,7.973159930074849,0.1050070445528099
24.224356,7.981591433656836,0.1047014592968438
24.226736,7.985878966119128,0.1044422857634286
24.229132,7.987512771528945,0.1041984933542618
24.231516,7.986213310632569,0.1039813681042978
24.233896,7.9790473171238,0.1038160358270355
24.236296,7.980261813653038,0.1035920121473774
24.238684,7.985480511675108,0.1033298948971055
24.24108,7.994284102309433,0.1030483761054169
24.243476,7.998664182570343,0.1028236224810281
24.245864,8.001554018764033,0.1026301144205495
24.248244,8.006585725331002,0.1024125835523294
24.25064,8.008823935218633,0.1022144858076328
24.253032,8.012644936972103,0.1020166511254164
24.255416,8.014324068352293,0.1018434258319849
24.257812,8.01907623566554,0.1016412820052895
24.2602,8.025550964471485,0.1014338993651243
24.26258,8.03682129070318,0.1011897712336185
24.264976,8.047951847308015,0.1009509914849761
24.267364,8.054938432793158,0.1007545614320831
24.269748,8.066580846077189,0.1005269064383017
24.272144,8.079433964174722,0.1002821561436949
24.274532,8.096011744511367,0.1000135880568997
24.276912,8.110028345594154,0.0997862339280768
24.279308,8.123625637796362,0.099576222492669
24.281696,8.143880858543875,0.0993179185364165
24.28408,8.15733838111922,0.0991161573605992
24.286476,8.170516364440848,0.0989280209550503
24.288864,8.180761081456279,0.0987639273349511
24.291244,8.195149769591405,0.0985593112076626
24.293644,8.209817996980249,0.0983432329602695
24.296028,8.22048202287626,0.0981624731311094
24.298412,8.235941646198023,0.0979488528503191
24.300816,8.24967870802709,0.0977418240341262
24.3032,8.264346935415936,0.0975290999925739
24.30558,8.27300886056553,0.0973683242413836
24.30798,8.27873751940893,0.09723045187144
24.310364,8.286608048625606,0.0970713620119494
24.312748,8.29676021784242,0.096884474582541
24.315144,8.312639150044763,0.0966601232422087
24.317532,8.329077160754547,0.0964142911866577
24.319928,8.343513070717915,0.0961855331495635
24.322324,8.357157584748364,0.0959578156040621
24.324712,8.377367479525507,0.0956604154412867
24.327096,8.400929949489424,0.0953257341742239
24.329496,8.423701023520422,0.0949941803118924
24.331884,8.448474198297836,0.0946474832817746
24.334264,8.467660379716582,0.0943307341196792
24.33666,8.48670679150847,0.0940188345880355
24.339048,8.505753203300355,0.0937098101996192
24.341432,8.523728679905602,0.09341143048564
24.343828,8.546639523563462,0.09307818822535
24.346216,8.56382360423579,0.0927819750044027
24.348596,8.582078620094759,0.0924766012529366
24.350992,8.59861107446103,0.0921750795244666
24.35338,8.616494003267658,0.091851282136966
24.355764,8.635587636887788,0.0915117769143911
24.35816,8.644530997148971,0.0912529185400578
24.360548,8.652403422223516,0.0910052726850239
24.362928,8.654968393193114,0.0907763187564286
24.365328,8.65618288972235,0.0905691315382899
24.367716,8.66219298367734,0.0903339923212117
24.370096,8.665269811326134,0.0901182684856662
24.3725,8.663131732668594,0.0899483533724014
24.374888,8.661133423637917,0.0897738228565155
24.377268,8.653128812367989,0.089642254238003
24.379664,8.643122100351642,0.0895249770880495
24.382052,8.641123791320963,0.0893502803797316
24.384432,8.642478057477058,0.0891410642603646
24.386832,8.64169045325988,0.0889519369917678
24.38922,8.642904949789116,0.088748830414642
24.3916,8.639044309638882,0.0885837031285178
24.393996,8.639699727660679,0.0884026053261252
24.396384,8.63714234012256,0.0882502568636834
24.398768,8.63924078038333,0.0880768464795829
24.401164,8.643061782136801,0.087900510965821
24.403552,8.645392539823051,0.0877495411970965
24.405932,8.66052729792072,0.0875169618121076
24.408336,8.67473089045861,0.0872887890781227
24.410724,8.692519375608752,0.0870498270330068
24.413108,8.711378795945537,0.0868021879722407
24.415504,8.724371683669927,0.0865910789063315
24.417892,8.740297837700513,0.0863624479938669
24.420276,8.756223991731103,0.0861334465000795
24.422672,8.768797570574913,0.0859386080392388
24.42506,8.787377451657976,0.0857032983397302
24.427444,8.808099203114313,0.0854499337689225
24.42984,8.82346627863746,0.0852446843646853
24.432228,8.838553814906886,0.085051751244589
24.434612,8.852849955243393,0.0848575921722084
24.437008,8.863421433340788,0.0846789335172745
24.439396,8.877205716998098,0.0844729882430528
24.44178,8.888615812856653,0.0842643368422061
24.444176,8.901236613528706,0.084040809342563
24.446564,8.90920158640187,0.083837049922917
24.448944,8.917026789648173,0.0836392058851342
24.451344,8.927552941775193,0.083403115978791
24.453732,8.931421165356904,0.0831998578180261
24.456112,8.940084986364369,0.0829743098172297
24.458508,8.946234849946217,0.0827500966269389
24.4609,8.949730986475593,0.0825315635078867
24.46328,8.953366892631827,0.0823071133763337
24.465676,8.956490942108864,0.0820715388288598
24.468068,8.962827797145817,0.0818107836777256
24.470448,8.967442090690074,0.0815508388445753
24.472844,8.971264988301412,0.0812905976244178
24.475232,8.970152518860134,0.0810571451948126
24.477616,8.971601228672718,0.0807916249560864
24.480016,8.97053598105969,0.0805266781964562
24.4824,8.970541668633297,0.0802532256387871
24.484784,8.97827621993885,0.0799440691721077
24.487184,8.982937735311351,0.0796548830082698
24.489572,8.986528315497212,0.0793741681979965
24.491956,8.993471470869848,0.0790645852652042
24.494352,9.001485561429122,0.0787461767839961
24.49674,9.01005873049584,0.0784090243496398
24.499124,9.019423295495471,0.0780757847223532
24.50152,9.031069500495244,0.0777222799360903
24.503912,9.039270582509625,0.0773733563151479
24.506292,9.051196326763115,0.0770142927619982
24.508692,9.06591556769594,0.0766468478232202
24.51108,9.083707844561824,0.0762613690363175
24.51346,9.10429361810704,0.0758703435769127
24.51586,9.122225664599783,0.0754846898696264
24.518248,9.147654257398996,0.0750480869847338
24.520628,9.169078648705376,0.0746320623125539
24.523024,9.196509342251002,0.0741854082264309
24.525412,9.222729330983132,0.0737532504954804
24.527792,9.247878384528624,0.0733284130197293
24.530188,9.273027438074116,0.0729047516435493
24.532576,9.289656231954742,0.0725104591756503
24.53496,9.311639701768565,0.0720812864148339
24.537356,9.33455433714216,0.0716502368190322
24.539744,9.35397662770212,0.071252056833188
24.542128,9.374469853448725,0.0708473990759157
24.544524,9.394823309568462,0.0704498853242555
24.546912,9.411312333822227,0.0700673977360606
24.549296,9.42565948770272,0.0696999640144037
24.551692,9.43772500158307,0.0693512092113469
24.55408,9.444063752477891,0.0690210153926133
24.556464,9.450682042626434,0.0686827843202438
24.55886,9.458231498334753,0.0683441938213823
24.561248,9.458424177363463,0.0680479510803585
24.563632,9.458057777884736,0.0677700303062709
24.566028,9.451265767286174,0.0675327097830949
24.568416,9.45141122448664,0.0672682068683754
24.570796,9.452627616873746,0.0669988973137799
24.573196,9.453704239633993,0.0667343941450562
24.575584,9.456643193513797,0.0664659701499446
24.577964,9.459721917020458,0.0661933503059554
24.580364,9.468667173139512,0.0659008655704038
24.582752,9.472537292579096,0.0656317359822569
24.585136,9.47561601608576,0.0653598861712937
24.587532,9.482047314779196,0.0650655042932807
24.58992,9.49127211015197,0.0647677496604703
24.5923,9.495561538472131,0.0644866266076364
24.5947,9.503715398658269,0.0641951632286153
24.597088,9.51387135959082,0.0638966964977113
24.599468,9.526960586829569,0.063589331482545
24.601864,9.54256377149393,0.0632859201254652
24.604252,9.555745546531297,0.0630041760609784
24.606636,9.565854285635604,0.062736661896781
24.609032,9.581317700673106,0.0624388769202375
24.61142,9.597991820524106,0.0621308194288686
24.613804,9.613595005188468,0.0618274479837624
24.6162,9.62305211798672,0.0615517879869526
24.618588,9.627294324478637,0.0613016621396953
24.620972,9.631676300597416,0.0610473413634325
24.623368,9.636709903022252,0.0608011230425265
24.625756,9.640393031006733,0.0605696478276236
24.62814,9.63937310936407,0.0603746774192071
24.630536,9.640075749214112,0.0601813874809008
24.632924,9.642221411303131,0.059999145887405
24.635308,9.640874728578508,0.0598431429942664
24.637704,9.63738617548061,0.0596990324909521
24.640092,9.640555550928022,0.059542280506176
24.642476,9.641443286375296,0.0594015004865438
24.644872,9.64098054738221,0.059275264907028
24.647264,9.639446873202486,0.0591546965002091
24.649644,9.63912390383626,0.0590244745713761
24.652044,9.64187397040309,0.0588825828754578
24.654428,9.64448426734306,0.0587448795093429
24.656812,9.64788596021595,0.0586111445795691
24.659208,9.651147883461975,0.0584819214891208
24.661596,9.659345173760617,0.0583391991134055
24.663992,9.671686435178952,0.0581799781053563
24.666388,9.684027696597289,0.058020254870626
24.668776,9.697160353948538,0.0578645032590423
24.671156,9.707499514620451,0.057711495254285
24.673556,9.719840776038788,0.0575525521605587
24.675944,9.73660554783054,0.0573684133310392
24.678324,9.754301485182063,0.0571839880069749
24.68072,9.77320812734709,0.0569910753143269
24.683108,9.79546734469889,0.0567790716202821
24.685492,9.816004000557994,0.0565650571638446
24.687888,9.831465519737629,0.0563685171377753
24.690276,9.845064707797704,0.0561733691736369
24.692656,9.857732730298002,0.0559789917919602
24.695056,9.87026098317144,0.0557891534670533
24.697444,9.88092690492532,0.0556013137009733
24.699824,9.889870265186506,0.0554115345835806
24.702224,9.901886661380743,0.0552115804211938
24.704612,9.912971892015204,0.0550133714373597
24.706996,9.925128057836304,0.0548108522120336
24.709392,9.936213288470766,0.0546141649870752
24.71178,9.946227583918583,0.0544233547458394
24.71416,9.958383749739689,0.0542228992489833
24.71656,9.968817354068092,0.0540197839604551
24.718948,9.983534699143048,0.0537982193801638
24.721328,9.995598317165529,0.0535742970474686
24.723724,10.00500820813554,0.0533484778093578
24.726116,10.013626703172628,0.0531195442316483
24.728496,10.016378665597328,0.0529015041985876
24.730892,10.017128527275611,0.0526891575213308
24.733284,10.018809554513672,0.0524764061381896
24.735664,10.020770121005455,0.052254629776399
24.738064,10.023801622683877,0.0520277981663764
24.740452,10.0251105628696,0.051796834142555
24.742836,10.022834610443068,0.0515624101180675
24.745236,10.017485622083482,0.0513364443838168
