Time,Force,Position
23.386412,4.36211008189041,0.1724365052420604
23.39118,4.582546764793084,0.1723158922401993
23.393576,4.679034679917896,0.1722578633608434
23.400748,4.887090463005469,0.1721803520428053
23.403136,4.938990145922493,0.1719838736652275
23.405516,4.987214284286517,0.171676679453012
23.407912,5.026362876193973,0.1713254390410046
23.410304,5.053642424965525,0.1709734801528583
23.412684,5.071147579146211,0.1706257133793589
23.41508,5.079807608437935,0.1704117764198004
23.417468,5.092983695901692,0.1701014065649952
23.419852,5.113282346761713,0.1696922816648413
23.422248,5.1339530846740695,0.1693025477273731
23.424636,5.148385202921699,0.1690416598780997
23.42702,5.163980804154584,0.1687907596954045
23.429416,5.182694767290898,0.1685634510939155
23.431804,5.2061098841964775,0.1683426204088561
23.434188,5.236974325580284,0.1679467718656729
23.436584,5.26839784547153,0.1674955797456934
23.438972,5.298797652004383,0.1670232155319845
23.441356,5.329756537044675,0.1665207067013582
23.443752,5.363788458018024,0.1659467038739001
23.44614,5.406759947536817,0.1651525957102818
23.448524,5.454574256309606,0.164210948934739
23.450928,5.492425283178554,0.1634898100882205
23.453312,5.523106524822995,0.162918659226049
23.455696,5.554811479825832,0.1623862710806624
23.4581,5.596247399307032,0.1616529730657006
23.460484,5.6358209876686765,0.1609596290551219
23.462868,5.679026690470817,0.1601635946754135
23.465264,5.722372162899818,0.1593688472431618
23.467652,5.7657176353288175,0.1585807686711139
23.470032,5.811577065183432,0.157758523445992
23.472428,5.864373962837076,0.1567835902197444
23.474812,5.9188480960130425,0.1557005978613538
23.477192,5.967642688031721,0.1546977597682299
23.479592,6.010478199639393,0.1537941889669171
23.48198,6.055176042366622,0.1528713128978794
23.48436,6.097499697295096,0.1519546768119768
23.486764,6.136517998865038,0.1510730683980716
23.489148,6.174744904502063,0.1502166772735661
23.491528,6.207617134205893,0.1494947169020163
23.493932,6.236065853536311,0.1488971717385862
23.49632,6.258740588052953,0.1484582326336398
23.4987,6.276759494770703,0.1480893998276321
23.501096,6.291612817756782,0.1477453525904718
23.503484,6.301298456264772,0.1474722514787356
23.50586,6.302975691787093,0.1473643205273732
23.508256,6.308657128802251,0.14717782593016
23.510644,6.307540867645239,0.1471166946687153
23.51304,6.303910649062612,0.1470835081436682
23.515444,6.300839508987425,0.1470149617092374
23.517828,6.299118843352599,0.1469053986674228
23.520208,6.294464911411577,0.146848636143566
23.522612,6.288460505030195,0.1468317496906321
23.524996,6.282595868275675,0.1468061825690367
23.527376,6.277382857827211,0.1467833722300284
23.52978,6.2729612433116655,0.14675427662102
23.532168,6.2783631410731005,0.1465973823893854
23.534544,6.289212262566346,0.1463660508660825
23.536948,6.294334621074063,0.1462264292445558
23.539336,6.306813756261387,0.1459426657717448
23.541716,6.318221956262073,0.1456813299687635
23.544112,6.329909695516481,0.1454020134400347
23.5465,6.351468168876112,0.1449503963310567
23.54888,6.375680369288217,0.1444625117580756
23.551284,6.401103274513821,0.143943384417711
23.553668,6.425455244552787,0.1434424561778763
23.556048,6.446314869778117,0.1430305167943732
23.558452,6.466894955749727,0.1426285702202871
23.56084,6.488685746534835,0.1421972530934534
23.56322,6.509126062879584,0.1418090028776774
23.565624,6.52965892702295,0.1414623919556022
23.568012,6.550843417472375,0.1411204788959149
23.570392,6.570025807175382,0.1408145886746407
23.572788,6.593212398371223,0.1404429257166864
23.575176,6.614816197701227,0.1400815553302225
23.577556,6.6277599677395065,0.139857031845078
23.57996,6.637398384419254,0.13966564152954
23.582348,6.644522843673386,0.1394988141528504
23.584728,6.653649403673935,0.1392963079574003
23.587132,6.653976164755898,0.1392361546706109
23.58952,6.656584565837999,0.1391263132258334
23.5919,6.662638089905492,0.1389820141929984
23.594296,6.66068321098732,0.1389718537365382
23.603852,6.654678804605937,0.1389495653452847
23.606236,6.660592559046571,0.1388128154641808
23.608632,6.661570946434592,0.1387559927051148
23.611016,6.661106311583637,0.138700583933943
23.646852,6.59021312627658,0.1386922504640556
23.649232,6.588073151761171,0.1386101616432341
23.651628,6.590216917992317,0.1384453419415085
23.654016,6.58849625235749,0.1383396614416748
23.656396,6.593852824148552,0.1381153896371356
23.6588,6.601723353365228,0.1378707480824621
23.661188,6.612247609634379,0.13759938609369
23.663568,6.623191174784112,0.1373060589056128
23.665964,6.637207775866899,0.1369643267322618
23.668352,6.662026276614689,0.1364575842253987
23.670732,6.690569439601592,0.1359061820311501
23.673136,6.716738414789741,0.1353734301231853
23.675524,6.737320396619218,0.1349117701875143
23.677904,6.755528190649942,0.1344600609412783
23.680304,6.770662948747611,0.1340588438658995
23.682692,6.789801908338114,0.1335924693451275
23.685072,6.809499946436057,0.1330975195072324
23.687468,6.835064517146392,0.1325179680724172
23.689856,6.857835591177389,0.1319769742215259
23.692236,6.888335528940336,0.1313283528521411
23.694632,6.9216289633826165,0.1306503236386065
23.69702,6.955853563384676,0.1299753271498321
23.6994,6.98700512745368,0.1293549945818106
23.701796,7.017457843388383,0.1287737171375215
23.704184,7.045349380069228,0.1282578169355324
23.706564,7.072589290444015,0.1277419140693572
23.708968,7.09624430820655,0.1272644793306603
23.711356,7.116686520409168,0.1268410843345989
23.713736,7.132844991865231,0.1264919729151086
23.716132,7.147792758507797,0.1261733786409391
23.718524,7.157805158097751,0.1259209551846296
23.720904,7.164884291381509,0.1257063447512886
23.7233,7.174617151717741,0.1254671883382275
23.725688,7.190588631718701,0.1251721885485154
23.728072,7.209493378025858,0.1248388552444311
23.730468,7.229748598773372,0.1244765971279975
23.732856,7.245580309147472,0.1241899397945277
23.735236,7.257268048401879,0.1239669752334299
23.737632,7.27226114101482,0.1237270618429442
23.740016,7.286323068067981,0.1235012460714685
23.742396,7.295729167322249,0.1233247463302531
23.756732,7.27832035265592,0.1232721336027426
23.759128,7.278367574484164,0.1232322244797987
23.7639,7.2756685214613155,0.1231813503375287
23.7663,7.275855512916419,0.1231343675258095
23.768688,7.277625296237359,0.1230820228785264
23.771068,7.281397180304715,0.1230034843820197
23.773484,7.283166963625654,0.1229519125424793
23.775868,7.285867912506372,0.1228912479903115
23.778248,7.289360257320009,0.122828987095829
23.780652,7.299138443626616,0.1226768431205296
23.783044,7.307845694746584,0.1225398904243304
23.785424,7.315109923627577,0.1224020865432989
23.78782,7.313714123216844,0.1223606269981935
23.790208,7.315111819485446,0.122291413841175
23.792588,7.318511616500465,0.1221961037469591
23.794984,7.324332823142482,0.1220544056195947
23.797372,7.330293799411358,0.1219053013564706
23.799756,7.345985740158598,0.121641786615383
23.802152,7.3667528175853105,0.1213119341879254
23.80454,7.384586628705828,0.1210161728204639
23.806924,7.392409936094261,0.1208487724299539
23.80932,7.400373013109554,0.1206747280401716
23.811708,7.407032837512733,0.1204896899409161
23.814088,7.412109870050075,0.1203103470006124
23.816484,7.418816916281495,0.1200874334813868
23.818872,7.4232895443410225,0.1198652738230102
23.821256,7.421383783108961,0.1196998247847948
23.823652,7.418034999637923,0.1195322616784185
23.82604,7.40602618687516,0.1194607031361219
23.82842,7.388290611126868,0.1194503595185446
23.83082,7.376840876871546,0.1193501963353056
23.833208,7.363109502616087,0.1192885423116028
23.835588,7.36018002802563,0.1190999035742538
23.837984,7.356738696755976,0.1188997618215243
23.840372,7.35571877511332,0.11865436878342
23.842752,7.353767687910886,0.1184182899217325
23.845152,7.3561003414550035,0.1181208824985944
23.84754,7.3521943753343955,0.1178715447204795
23.849932,7.342421876601396,0.1176869013283779
23.85234,7.336421261935753,0.1174290841681092
23.854724,7.338708589509498,0.1170619675229888
23.857108,7.3409959170832435,0.1166952097692269
23.859504,7.347659533202159,0.1162983817644131
23.861892,7.3533919837612975,0.1159102648873547
23.864272,7.358705125439854,0.1155441138168848
23.866676,7.365181750103667,0.1151955626512479
23.869064,7.378595842566509,0.114767412108744
23.871444,7.390659460588991,0.1143681672388252
23.87384,7.41045194234342,0.1138859974663124
23.876228,7.434900251896741,0.113362121652523
23.878608,7.453482028837673,0.1129052890821071
23.881008,7.467407977979712,0.1124850364285973
23.883392,7.475467394509361,0.1121318848762723
23.885772,7.48296773253157,0.1118063097295938
23.888168,7.491119696859836,0.1114882991753306
23.890556,7.4969900211879645,0.1112060853459331
23.892936,7.500438935889096,0.1109687472539545
23.895336,7.505191103202343,0.1107418206497854
23.897724,7.514738867941343,0.1104683621222007
23.900104,7.521585683799624,0.1102514962165219
23.9025,7.524288528538211,0.1100869298465804
23.904888,7.527922538836576,0.1099150682252952
23.907268,7.532627484321581,0.1097299115238692
23.909668,7.539846387232199,0.1095356279028677
23.912052,7.5452029590232605,0.1093567135644972
23.914432,7.549768134881404,0.109179170767494
23.916832,7.552982836299189,0.1090297228599669
23.919216,7.557268472903612,0.1088662813045313
23.921616,7.560622943948257,0.1087111807948265
23.924012,7.5609043790598465,0.1085912564036949
23.926396,7.563839541223911,0.1084557924149479
23.92878,7.579578703799394,0.1081943856206855
23.931176,7.594619018240578,0.1079641336604978
23.933564,7.60979910230862,0.1077275988505839
23.935948,7.625910351936441,0.1074867244427266
23.938344,7.647888134176654,0.1071916145110614
23.940732,7.667724046043586,0.1069235058454469
23.943112,7.688770662724021,0.1066365132674262
23.945512,7.708746344217816,0.106365141291198
23.947896,7.7308638960848866,0.1060675558753787
23.95028,7.753772843884876,0.1057689773203057
23.952676,7.774539921311589,0.1054975059325426
23.955064,7.792513502058967,0.1052481990684087
23.957444,7.808484982059928,0.105020047775141
23.95984,7.828600433180582,0.104747560765634
23.962232,7.850857754674514,0.1044509441107725
23.964612,7.872183910608667,0.1041620435425744
23.967008,7.897234728781933,0.1038496275362339
23.969396,7.921354381395422,0.1035453647340515
23.97178,7.948686839568826,0.1032043299109464
23.974176,7.974156966622673,0.102876878769219
23.976564,7.989616589944437,0.102647597622804
23.978944,8.007916931773778,0.1023630322225243
23.981344,8.028359143976397,0.10205536913728
23.983732,8.041212262073929,0.1018040498336237
23.986128,8.046336516439515,0.1016156278390804
23.988524,8.053882180432096,0.1013905017299343
23.990912,8.060636448491762,0.101166366241378
23.993292,8.065388615805007,0.100960819087492
23.995696,8.070792409424312,0.1007621092735107
23.998084,8.077826216737698,0.1005279361469445
24.000468,8.08593095923772,0.1002814055696355
24.002864,8.094827097670661,0.100034734304965
24.005252,8.101349048304847,0.0997876397304894
24.007636,8.103587258192482,0.0995898469111227
24.010032,8.103543828079975,0.0994226522792848
24.01242,8.103640167594332,0.0992495726830905
24.014804,8.098801140056075,0.0991186846293027
24.0172,8.09382234289096,0.0989936947971209
24.019588,8.084839344233007,0.0989039960353028
24.021972,8.075996115201917,0.0988081312229825
24.024368,8.073159188410077,0.0986592056004398
24.026756,8.069111556804737,0.0985280776782693
24.029136,8.061990889266346,0.098426082342847
24.031532,8.063530251019678,0.0982605079596044
24.033924,8.073357555012395,0.0980143462082736
24.036304,8.083184859005115,0.0977695609181669
24.038704,8.093803558930754,0.097525952723549
24.041092,8.108054373296888,0.0972319192159036
24.043476,8.118999834304487,0.0969428674154394
24.045872,8.130596921618146,0.0966621823259665
24.04826,8.14154238262575,0.0963754440828163
24.050644,8.15369854844685,0.0960727421542829
24.05304,8.173443808373035,0.0957239583875541
24.055428,8.19467931236644,0.0953472357763262
24.057812,8.219546930800343,0.0949236599993095
24.060208,8.244414549234243,0.094501051948061
24.062596,8.271843346922005,0.0940409501808483
24.06498,8.305557986102734,0.093528454447699
24.067376,8.3432768267763,0.0929859296362448
24.069764,8.384999868942698,0.0924160870237721
24.072148,8.424720810362679,0.0918668946037675
24.074544,8.46444175178266,0.0913191107657848
24.076936,8.505513167642999,0.0907507393114477
24.079316,8.541649216450729,0.090221233035876
24.081716,8.570148949325128,0.0897708388543469
24.084104,8.596506811826249,0.0893418150675679
24.086488,8.618580933580814,0.0889523373151006
24.088884,8.636883171268027,0.0886168061005633
24.091272,8.657839136007711,0.0882733730345884
24.093652,8.67558229518748,0.0879611574370185
24.096048,8.695979181419725,0.0876420973316115
24.098436,8.716096528398248,0.0873355690934628
24.10082,8.728996868324023,0.0870889561855989
24.103216,8.743340230488775,0.0868510677020073
24.129488,8.658149008987337,0.0867074697408964
24.131884,8.652469467830048,0.0867041757163798
24.134272,8.656288573725648,0.0866223270100628
24.136652,8.663460254808026,0.0865076038694733
24.139048,8.672494267009958,0.0863858536004213
24.14144,8.682459444771666,0.0862599824645576
24.14382,8.692424622533377,0.0861351331953238
24.146224,8.70173817398903,0.0860042442507647
24.148608,8.714264531004599,0.085846061141625
24.150992,8.721064125034637,0.0857159884307834
24.153384,8.734009790930784,0.0855401658495465
24.155772,8.747886622386712,0.0853603747289838
24.158152,8.765255798656277,0.0851429491361514
24.160552,8.787979650859032,0.0848775485996093
24.162936,8.81005187675573,0.0846074328664713
24.16532,8.829190836346232,0.084355171620394
24.167716,8.849260961496514,0.0840996924201028
24.170104,8.868539690713876,0.0838436790181658
24.172484,8.893033326237571,0.0835482980899304
24.174888,8.914453925828209,0.0832759145147087
24.177272,8.937085230232348,0.0829915813686164
24.179652,8.956783268330291,0.0827237524071421
24.182052,8.967262198629069,0.0825218053241741
24.184436,8.972805761875234,0.0823484755140428
24.186816,8.974624662882286,0.0821901972503402
24.189224,8.97579193758328,0.0820251608378535
24.191608,8.976028046724496,0.0818643341886108
24.193992,8.973982515865574,0.0817256717461215
24.196388,8.971005819446876,0.0815907014325314
24.198776,8.976968691573623,0.0814041563211471
24.201156,8.9869357651932,0.0811948600714178
24.203556,9.001046809932474,0.08095839932902
24.20594,9.012364357992412,0.08073295258489
24.208324,9.02568400679877,0.0804969391182935
24.21072,9.034859684485433,0.0802888600327456
24.213108,9.046177232545368,0.0800645774936411
24.215488,9.055120592806553,0.0798352955405822
24.217888,9.064995118627516,0.079603393559113
24.220272,9.07300731332892,0.0793794364827278
24.222672,9.080088342470546,0.0791580365909528
24.225068,9.087029601985314,0.0789430651970248
24.227452,9.098114832619776,0.0787013599563466
24.229832,9.116277300680126,0.0784192803512683
24.232228,9.13951490541995,0.078107614236752
24.234616,9.162752510159777,0.0777958491988421
24.236996,9.189202920459511,0.0774619948411699
24.239396,9.212999603706772,0.0771326942688272
24.241784,9.238146761394397,0.0767849838733923
24.244164,9.260640192029546,0.0764408828613893
24.246568,9.27833802523894,0.0761194328440391
24.248956,9.291799339530026,0.0757999634279748
24.251336,9.29967366046244,0.0754987595265812
24.253732,9.309550082141271,0.0751878887782114
24.256116,9.319845812700684,0.0748649037434363
24.258496,9.335496219193288,0.0745049555994657
24.260896,9.350355229752976,0.074144183963724
24.26328,9.368799132924917,0.0737787994426831
24.265676,9.38552047460416,0.0734144948215928
24.268072,9.402521355537123,0.0730426544207527
24.27046,9.419801775723808,0.0726602330626596
24.27284,9.436290799977575,0.0722778168549028
24.275244,9.449986327552004,0.0719041241090356
24.277628,9.459026027327544,0.0715443186862449
24.280012,9.464852921543166,0.0712062810073863
24.282412,9.472821686132066,0.0708548547826062
24.2848,9.477717414787914,0.0705204892198317
24.28718,9.485546409749958,0.0701750551930319
24.28958,9.501244038070803,0.0698016526294927
24.291968,9.522808199004045,0.0694074796648172
24.294348,9.542370259190866,0.0690220225562154
24.296748,9.561233471243389,0.0686597153818945
24.299132,9.581679475161746,0.0683025691804043
24.301516,9.600914774266602,0.0679578778205765
24.303912,9.615726562998049,0.0676449124044221
24.3063,9.62546321505002,0.0673558182090773
24.30868,9.633989162288492,0.0670779813507864
24.31108,9.63972161284763,0.066806564145011
24.313468,9.6494582648996,0.0665198256341296
24.315848,9.655702572137937,0.0662612893761574
24.318252,9.666882246428884,0.0659856421236303
24.32064,9.675128654413632,0.0657201067018621
24.323024,9.686028789450862,0.0654547220707552
24.32542,9.69557845004773,0.0652041443994869
24.327808,9.707689289898456,0.0649283598484336
24.330188,9.71700663306985,0.0646579701195458
24.332584,9.728046537733936,0.06438923703176
24.334972,9.738946672771162,0.0641261399748058
24.337352,9.738905138516529,0.0639034920634114
24.339752,9.735511029075116,0.0637037981673327
24.34214,9.736121121126535,0.0634895044510873
24.34452,9.739804249111014,0.0632624127455924
24.346924,9.741345506722215,0.0630466687943819
24.349312,9.74009326765408,0.0628347586192811
24.351692,9.742845230078784,0.0626084668978745
24.354088,9.749182085115734,0.0623806290674174
24.356476,9.757381271272244,0.0621502447529973
24.358856,9.768373954108087,0.061916407163027
24.361252,9.773360334704682,0.0617043186183651
24.36364,9.778486484928136,0.0614870450032863
24.36602,9.782262160711232,0.0612856198301415
24.368416,9.787480858733302,0.061094480307525
24.370804,9.790417916755237,0.0609194945836382
24.373184,9.793354974777168,0.0607439026624596
24.375584,9.794662019105022,0.0605918009437278
24.377972,9.798343251231632,0.0604491152142587
24.380364,9.800162152238684,0.0603089806075492
24.38276,9.801701513992017,0.060177912819939
24.385148,9.80817624279796,0.0600320162577684
24.387528,9.815721906790545,0.0598809158041524
24.389924,9.822196635596486,0.0597360938085938
24.392312,9.825738098096236,0.0595992580554802
24.394696,9.834494466902315,0.0594401017985378
24.3971,9.850188303507425,0.0592613217076234
24.399488,9.86201770824656,0.0590914033540898
24.401868,9.877199688172473,0.058902782545022
24.404268,9.891590272165464,0.0587115345082598
24.406652,9.90504969059868,0.05852232911726
24.409036,9.92223377127101,0.0583293611912193
24.41144,9.944772527876534,0.058111680782183
24.413828,9.965588722989358,0.0578926221430957
24.416208,9.984961895863206,0.0576625853752634
24.418604,10.004754377617637,0.0574202702589604
24.420992,10.030692931238177,0.0571573667121827
24.423372,10.057842189672217,0.0568861176415129
24.425768,10.084339821800196,0.0566081908995266
24.428156,10.113910489861231,0.0563207645581488
24.430536,10.139896265310016,0.0560321527613128
24.432936,10.167744371878356,0.0557440794237249
24.435324,10.19373014732714,0.0554580667360952
24.437704,10.21557195165623,0.0551872149871449
24.440108,10.240626561545234,0.0549030604671959
24.442496,10.263818840314684,0.0546224278886673
24.444876,10.2817962127778,0.0543628502805039
24.447276,10.300704750800694,0.0541023545206143
24.449664,10.310813489905003,0.0538598707934262
24.452044,10.320922229009312,0.0536178287785701
24.45444,10.325816061807288,0.0533943642296761
24.456828,10.332851764978544,0.0531628407497576
24.459208,10.337326288895945,0.052953806082309
24.461612,10.338867546507142,0.0527498985690727
24.464,10.344273235984316,0.0525403949685096
24.466384,10.346745659155294,0.0523359066907812
24.46878,10.342140844900385,0.05215083460555
24.471168,10.33460276433928,0.0519708296343987
24.473548,10.329206554151453,0.051782347701482
24.475956,10.319666372843932,0.0516072870112377
24.478344,10.313990623402384,0.0514265519370667
24.480724,10.302308571721584,0.0512597205227727
24.48312,10.29169745522742,0.0510883229095246
24.485508,10.285370079479812,0.0508993723299256
24.487888,10.271406387798876,0.0507440170730895
24.490284,10.253438494625108,0.050597230666892
24.492672,10.23346850070492,0.0504544074466754
