Time,Force,Position
23.251768,5.55803294381929,0.1585911041619461
23.254148,5.656579660808109,0.1577856800492924
23.256544,5.7365068583171,0.157131085597245
23.297144,5.799484188437108,0.1567564518135435
23.306712,5.826202762843351,0.1567038326366083
23.3091,5.841006968143318,0.156540728555295
23.31148,5.853342541988044,0.1564990605754642
23.313884,5.876060706617192,0.1562748970080089
23.316272,5.906647504605147,0.1558868455486785
23.318656,5.9416578129665165,0.1553819511215268
23.321052,5.977739056514525,0.1548569473369315
23.32344,6.017637510100263,0.1543067783699045
23.32582,6.059630612231035,0.1537421182096077
23.328216,6.1071181599218605,0.1530323148791569
23.330604,6.154373390187208,0.152307988231801
23.332984,6.196972792653664,0.1516911921560232
23.335388,6.241853835120257,0.1510309275093454
23.337776,6.28128765385504,0.1504551725592631
23.340156,6.3244933566571815,0.1497722325270591
23.342556,6.360109965354236,0.1492236477096546
23.344944,6.388277249573061,0.1488004188671723
23.347324,6.422171296777417,0.1482977945527323
23.34972,6.467518869952835,0.1476028927386947
23.352108,6.514589004620951,0.1468837723179056
23.354492,6.554768893318279,0.1462503318293075
23.356888,6.580701759365211,0.1458561277368354
23.359276,6.605843229479225,0.1454721664646447
23.361672,6.626700958846686,0.1451837444337649
23.364068,6.645044730788531,0.1449204681329784
23.366456,6.665949681984235,0.1445931190471891
23.368836,6.681547179074989,0.144331357218612
23.371236,6.698215611352381,0.1440509709064083
23.373624,6.716746374749331,0.1437411201915787
23.376004,6.733554576653585,0.1434527952257693
23.378408,6.744124158893109,0.1432437439244334
23.380796,6.749106747773964,0.1431163425817623
23.383176,6.749665826281404,0.1430839443327516
23.385572,6.755811898147516,0.1429717752114669
23.38796,6.76009563889407,0.1428870278514593
23.402292,6.747342652026632,0.1428039745731573
23.404676,6.746785469377061,0.1427144139653147
23.407072,6.743714329301875,0.1426482523704766
23.40946,6.73985179329377,0.1425871256134316
23.41424,6.732918117210481,0.1424594214508249
23.419008,6.722492096313554,0.1424109414518617
23.421403999999995,6.720631661051867,0.1423159989573227
23.423792,6.717840060230401,0.142233747047405
23.426176,6.715607537916375,0.1421189830125879
23.428576,6.714445950788989,0.1419827676850888
23.430964,6.713424133288463,0.1418384407811232
23.433344,6.71040021504152,0.1417287220568781
23.435744,6.707236527167715,0.1416269305801037
23.438132,6.703840521868434,0.1414975734346219
23.440515999999995,6.696859623956903,0.1414116862047258
23.442912,6.694022697165062,0.1412496344598872
23.4453,6.694119036679418,0.1410406241456635
23.447683999999995,6.695658398432749,0.140830833355056
23.450084,6.694124724253025,0.14067437480551
23.452472,6.689098705259666,0.1405973983515754
23.454851999999995,6.692313406677451,0.1404134286410309
23.457244,6.697250669587933,0.1402119917481948
23.459632,6.696740708766605,0.1400793176363822
23.462012,6.69464795607944,0.1399544487893561
23.464408,6.693765908205775,0.1398012765627514
23.466795999999995,6.696888061824943,0.1395811031597509
23.469176,6.695866244324416,0.1394374868098695
23.471572,6.694053030890972,0.139298036721545
23.47396,6.694474235629422,0.1391522794693988
23.47634,6.693964274808093,0.1390185938375315
23.478756,6.697458515479599,0.1388194143760416
23.48114,6.701372065031683,0.1385973700518337
23.48352,6.703702822717934,0.1383841342786418
23.485916,6.703984257829523,0.1382460519208799
23.488304,6.707571046299646,0.1380809628881788
23.490684,6.709947129956269,0.1379446887654685
23.493088,6.709949025814139,0.1378225264620971
23.495476,6.707576733873254,0.1377141351206463
23.497856,6.712793536037456,0.1374978631785534
23.500252,6.725459662679883,0.137184077835785
23.50264,6.731095773724666,0.1369491557370655
23.505024,6.737290963276889,0.1366844366531223
23.507428,6.743066843948532,0.1364410113575899
23.509816,6.758806006524016,0.1360786706888522
23.512196,6.772123759472501,0.1357747478398337
23.514592,6.783858720555151,0.1354820322038651
23.51698,6.794942055331743,0.1351869907874946
23.519364,6.805745850854614,0.1349058595869009
23.52176,6.818272207870182,0.1346102497217789
23.524144,6.834383457498003,0.1342750293847234
23.526528,6.849843080819767,0.1339420886340048
23.528924,6.865442473768391,0.1336046094509383
23.531312,6.883416054515768,0.1332563842885372
23.533692,6.906045463062038,0.1328498193502518
23.536088,6.932726294929385,0.1323470942606303
23.538476,6.959454348624974,0.1318027609925844
23.540856,6.986182402320563,0.13125850667318
23.543256,7.01221160788185,0.1307518122416993
23.54564,7.03689033900278,0.1302845293238533
23.54804,7.055609989712702,0.1298693267254974
23.550436,7.0721877700493465,0.1294902036447157
23.552824,7.088346241505411,0.1291360570717139
23.555208,7.110883102253064,0.1287152396266922
23.557612,7.129835070388462,0.1283333371878025
23.559996,7.148554721098384,0.1279263898614331
23.56238,7.166343206248529,0.1275318142825574
23.56478,7.181058655465617,0.1271821223954486
23.567167999999995,7.196705270242483,0.1268202747817657
23.569548,7.210769093153513,0.1264666193997383
23.571948,7.225391994571985,0.1260869532266502
23.574335999999995,7.233217197818287,0.1257943033436575
23.576716,7.239552156997371,0.125541929598463
23.579112,7.244816180989815,0.1253075253474635
23.5815,7.251430679422619,0.125043515538028
23.58388,7.2517593363624515,0.1248764221039755
23.586276,7.253391245914401,0.1247182769377682
23.588664,7.256466177705326,0.1245619324041738
23.591044,7.260472275056028,0.1243954897892182
23.59344,7.263035350167755,0.1242279615063703
23.595824,7.263456554906205,0.1240936131309388
23.598208,7.267742191510628,0.1239129692450639
23.600604,7.269234331435716,0.1237616503964676
23.602988,7.267560887629132,0.1236217855396031
23.605372,7.263233716770073,0.1235035337776536
23.607768,7.255833509977959,0.1234283898567182
23.610156,7.250435403932261,0.1233265893077428
23.612552,7.24769102493904,0.1232025736353692
23.614948,7.246948746692233,0.1230521029976258
23.617336,7.244064598072151,0.122934943827351
23.619716,7.237316017586095,0.1228634390714254
23.622112,7.234012560085431,0.1227672449637567
23.624496,7.230057476278709,0.1226663824917041
23.62688,7.226381931725709,0.1225511836238278
23.660332,7.065690814804436,0.1225435290967137
23.662728,7.060198265102253,0.1225199710487085
23.665124,7.058570147266042,0.1224511566865431
23.667508,7.058524821295668,0.1223773924129048
23.669888,7.059038573832735,0.122275106161707
23.672292,7.064208154168695,0.1221262930228273
23.674679999999995,7.069377734504654,0.1219777989735062
23.67706,7.080413847453004,0.121759520409144
23.67946,7.0935918307746295,0.1215097684417255
23.681847999999995,7.109842850029311,0.121219126427589
23.684228,7.131820632269522,0.120868355497339
23.686628,7.15552097600243,0.1205071626454458
23.689015999999995,7.176148283802282,0.1201858620536202
23.6914,7.196775591602133,0.119866426258895
23.693796,7.222757575335178,0.1194635594651604
23.696183999999995,7.255025400561193,0.1189734876703145
23.698564,7.286362060227431,0.1184923423246332
23.700964,7.317978259147389,0.1180020570992679
23.703348,7.350805162880848,0.1174956756367902
23.705732,7.384842771427802,0.1169641654209794
23.708128,7.415155717735645,0.116471883486497
23.710516,7.439602131431097,0.1160486225847901
23.7129,7.461255048447215,0.1156529043088647
23.715295999999995,7.483187504717052,0.1152440423229591
23.717684,7.505911356919809,0.1148355711557561
23.720064,7.523839611696814,0.1144795872949926
23.72246,7.542559262406735,0.1141232613460783
23.724848,7.557134941996963,0.1138226518688877
23.727228,7.57292132640069,0.1135042737163972
23.729624,7.585914214125082,0.11321169099518
23.732012,7.594251274050583,0.1129614792588036
23.734396,7.602588333976082,0.1127122948183717
23.736792,7.614650056140696,0.1124302391744835
23.73918,7.625920382372391,0.1121505128867521
23.741576,7.63546814711139,0.1118808058608263
23.743972,7.639009609611138,0.1116792506120113
23.74636,7.644413403230443,0.1114622050857607
23.74874,7.64888603128997,0.111254177948114
23.75114,7.649354457856663,0.1110905619996343
23.753528,7.65233684184897,0.1109173203026879
23.755908,7.65983528401331,0.1107137631866548
23.758303999999995,7.672408862857121,0.1104541674708352
23.760696,7.68605337688757,0.1101806975652164
23.763076,7.701280682783857,0.1099063993646125
23.765471999999995,7.716228449426422,0.1096461358280109
23.76786,7.72917411532257,0.1094054889657772
23.770244,7.741048846032079,0.1091792014979594
23.77264,7.756136382301506,0.1089125019047508
23.775024,7.764006911518183,0.1087291890642966
23.777404,7.774531167787333,0.1085309142393366
23.779808,7.78677798554918,0.1083248017841642
23.782196,7.798093637751251,0.1081265670673577
23.78458,7.808617894020402,0.1079296892653661
23.786976,7.819002380662693,0.1077394948705062
23.789364,7.833111529544096,0.1075222320248708
23.791744,7.850153944731695,0.1072774473157079
23.794144,7.867987755852212,0.1070333984631759
23.796532,7.884890401412951,0.1067975298771007
23.798912,7.903795147720107,0.1065420142181807
23.801308,7.923258972534704,0.1062643353545462
23.803695999999995,7.937275573617491,0.10602292035225
23.806076,7.946496577274527,0.1058225354281118
23.808472,7.959721782424396,0.1055852877065926
23.81086,7.968430929402234,0.1053748711742141
23.813256,7.975417514887375,0.1051716998949464
23.815652,7.988550172238627,0.1049048948256994
23.81804,8.0019623688436,0.1046261829648851
23.82042,8.012301529515518,0.1043802744126668
23.822816,8.027855596493767,0.1040762562063116
23.825204,8.04182687160618,0.1037747330706096
23.827588,8.056077685972312,0.1034626559588746
23.829984,8.070468269965309,0.1031450148497433
23.832372,8.089002825077996,0.1027867935995282
23.834756,8.108608315377321,0.1024174438934693
23.837152,8.125140769743592,0.1020812022790307
23.839535999999995,8.141812993736723,0.1017409345535033
23.84192,8.155319633998182,0.1014021131732443
23.844316,8.168034878326722,0.1010637425218562
23.8467,8.180610353028404,0.1007326798763505
23.849084,8.189041856610391,0.100443971394883
23.851479999999995,8.200266856871712,0.1001374061086448
23.853868,8.216147684931924,0.0998021547247385
23.856248,8.228024311499304,0.0995048748169308
23.858647999999995,8.244976074746155,0.0991613225990413
23.861036,8.263418082060227,0.098789240240981
23.86342,8.276924722321686,0.0984590737302177
23.865815999999995,8.289639966650226,0.0981290817044513
23.868204,8.305707786165542,0.0977603695300468
23.870584,8.321635836053998,0.0973993320494423
23.872983999999995,8.336492950755815,0.0970499479174048
23.875372,8.350418899897855,0.0967075129350981
23.877752,8.363553453106977,0.0963650995411237
23.880151999999995,8.37096124333057,0.0960626774392371
23.88254,8.376506702434604,0.0957713657538285
23.884924,8.383262866352137,0.0954640792069223
23.887319999999995,8.389879260642807,0.0951637045293261
23.889708,8.397938677172458,0.0948695683868949
23.892092,8.406509950381304,0.0945871356882152
23.894488,8.41056516541812,0.0943244460551383
23.896876,8.419555747507548,0.0940250091557607
23.89926,8.42575283291764,0.0937411876250677
23.901656,8.428365025715479,0.0934733757568553
23.904044,8.427904182580264,0.0932314947275683
23.906428,8.425301469071771,0.0930117884128652
23.908824,8.422139677055837,0.0928146901362679
23.911216,8.418558576159322,0.0926337515532344
23.913596,8.416560267128643,0.0924540382336736
23.915996,8.407996577351273,0.0923438103638465
23.918384,8.392355650148016,0.0922916738030384
23.920764,8.377366349250813,0.0922456645174874
23.923164,8.361957739473032,0.0922164295046782
23.925552,8.351065187867283,0.0921671371103961
23.927935999999995,8.34189519775423,0.0921132112104539
23.930332,8.33672940913401,0.0920280047399157
23.932724,8.33249478607357,0.0919380173216145
23.935103999999995,8.327189227826487,0.0918584736619222
23.9375,8.322023439206268,0.0917732816888203
23.939888,8.318208125026405,0.0916666175834086
23.942272,8.319188408272296,0.091530218609452
23.944668,8.314441928532656,0.0914279189651613
23.94706,8.312628715099212,0.0913057740866049
23.94944,8.310396192785186,0.0912001374660454
23.95184,8.3104453104713,0.0910678331949655
23.954228,8.310634197784271,0.0909300499416231
23.956612,8.314687516963218,0.0907688725827393
23.959008,8.327168548008412,0.0905336256286232
23.9614,8.33792701756091,0.0903023069755689
23.96378,8.357113198979656,0.0899965109383102
23.966187999999995,8.386589423384205,0.0896062832014205
23.968576,8.417416122229115,0.0891963408352221
23.970956,8.447870734021688,0.0887692924165781
23.973352,8.47287812208245,0.0883660320896378
23.975736,8.497745740516352,0.0879689424669811
23.978116,8.519540323017198,0.0875988440677492
23.98052,8.53812209995813,0.0872591243557987
23.982908,8.561127387272476,0.0868785200652868
23.985288,8.583061739400183,0.0865076385760717
23.987684,8.60499609152789,0.0861389602764058
23.990072,8.627861609215373,0.085768863060166
23.992452,8.656453889888388,0.0853699846088772
23.994848,8.685046170561403,0.0849736703799503
23.997236,8.715128695301638,0.0845524596288438
23.999616,8.746933781534569,0.0841298668052358
24.002016,8.781811903700556,0.0836888605909942
24.004404,8.808169766201676,0.0832883873715886
24.006784,8.82651922571713,0.0829431873960109
24.00918,8.848872886725417,0.0825744663919991
24.011568,8.866151411054233,0.082242452011893
24.013948,8.88128806500977,0.0819315879562592
24.016344,8.899637524525223,0.0815981217657296
24.018732,8.917427905533238,0.0812848368435217
24.021111999999995,8.936940848033947,0.0809696891082935
24.023512,8.957804264975014,0.0806370524670724
24.025896,8.978807451542945,0.0803001873008439
24.028292,8.997296680685258,0.079961561588461
24.030696,9.006427032401543,0.0796895779087255
24.033083999999995,9.018909959304608,0.0793880877520976
24.035464,9.032324051767452,0.0790850874009475
24.037864,9.042665108297236,0.0788028318944146
24.040251999999995,9.049001963334188,0.0785446026868502
24.042632,9.053988343930785,0.0783051427871101
24.045032,9.059626350833437,0.0780731828965455
24.047419999999995,9.067126688855645,0.0778362980495206
24.049804,9.070343286131298,0.0776324864142867
24.0522,9.08156828639262,0.077384345499794
24.054587999999995,9.095586783333276,0.077127212380313
24.056968,9.10373874766154,0.0768986585145655
24.059363999999995,9.110680007176306,0.0766824022497663
24.061752,9.116829870758156,0.0764653867694301
24.064136,9.11376062654084,0.0763043434422025
24.066531999999995,9.114975123070078,0.0761124721635889
24.06892,9.116189619599316,0.0759207444585724
24.0713,9.116193411315056,0.0757420338826136
24.073699999999995,9.116988598963712,0.0755657305948069
24.076088,9.123231010344178,0.0753773304336345
24.078472,9.135479723963892,0.0751565949305385
24.080867999999995,9.145307027956614,0.074962050211626
24.083256,9.152201065643135,0.0747812012687429
24.085636,9.16109720407608,0.0745902523939674
24.088035999999995,9.169201946576102,0.0743967035237412
24.090424,9.177865767583564,0.0741839493400918
24.092808,9.18638981896417,0.0739767722198925
24.095212,9.191328977732518,0.0737761114427735
24.0976,9.199061633180206,0.0735679492284156
24.099979999999995,9.203721252694834,0.0733783226520782
24.10238,9.207309937022826,0.0731963837660572
24.104768,9.215554449149709,0.0730018570707876
24.107147999999995,9.227803162769426,0.0727878583280003
24.109544,9.237770236389007,0.0725936584223989
24.111932,9.254535008180754,0.072371938572639
24.114312,9.268366513666308,0.0721639473198442
24.116712,9.280195918405443,0.0719654138179635
24.119096,9.294958589450774,0.0717560924718674
24.121476,9.305717059003271,0.071565575923449
24.123872,9.31796577262299,0.071355392774832
24.12626,9.332356356615984,0.0711327444645886
24.12864,9.349028580609115,0.0708925659235534
24.131044,9.366911509415743,0.0706412268870845
24.133428,9.386005143035872,0.0703800028575001
24.135808,9.409102978148836,0.0701016209123791
24.138212,9.432061043634937,0.0698289636386122
24.1406,9.458511453934674,0.0695296766715991
24.142976,9.485893029794193,0.0692290171057769
24.14538,9.513693914534288,0.0689168952096193
24.147768,9.543217360767082,0.0686069817072591
24.150148,9.573020346253594,0.0682886890652498
24.152552,9.599238439127856,0.0679745523245373
24.15494,9.625875840882696,0.0676494440103192
24.15732,9.65372394745104,0.0673137281942083
24.159724,9.679849492526682,0.066978850741037
24.162108,9.70797713834874,0.0666377887125915
24.164488,9.73931758973072,0.0662783910142246
24.166896,9.766002213313806,0.065929390349331
24.16928,9.796039412083664,0.0655567253008446
24.17166,9.821141243800914,0.0652035237981553
24.174064,9.838514211786215,0.0648730002404521
24.176448,9.851743208651822,0.0645631403294609
24.178828,9.862550795890431,0.0642742123293183
24.181232,9.87014557756913,0.0640042490026387
24.18362,9.875598488874546,0.0637473059074973
24.186,9.878909529806684,0.0635021196678132
24.188404,9.87300146293966,0.0632975034132476
24.190788,9.86895572719219,0.0630902552018693
24.193168,9.86011439401897,0.0628947145694642
24.195572,9.846617233046857,0.0627062752541951
24.19796,9.833259841701604,0.0625131924081487
24.20034,9.823627112595464,0.062314286099688
24.202732,9.809710642742772,0.0621383749142135
24.20512,9.795514633636358,0.0619710854393525
24.2075,9.783180955649502,0.0618011734666684
24.209904,9.768705407289367,0.0616426755549327
24.212288,9.755021254862152,0.0614873489341125
24.214668,9.743851059860551,0.0613366536436224
24.217064,9.735474361538284,0.0611824934479771
24.219452,9.728680455081856,0.0610342326752834
24.221836,9.727333772357236,0.0608825732643503
24.224228,9.72906012556567,0.0607186408952869
24.226616,9.73507021952066,0.0605328888618451
24.228995999999995,9.741499622356226,0.0603340675165586
24.231392,9.744855989258742,0.0601468793476588
24.23378,9.752216557654087,0.0599466787468373
24.23616,9.765583428288688,0.0597260687861671
24.238564,9.775085867057312,0.0595146790136056
24.240952,9.787242032878414,0.059304080914861
24.243331999999995,9.80712706243146,0.0590772358606242
24.245728,9.82566161754415,0.0588647804179825
24.248116,9.84633804303011,0.0586439433656784
24.250496,9.869296108516217,0.0584083991573019
24.252892,9.894535814002454,0.0581592398278895
24.25528,9.918984123555775,0.057908529363972
24.25766,9.936494965310068,0.0576755509941569
24.260056,9.952795102250862,0.0574531611040212
24.262443999999995,9.96765221695268,0.0572202732452918
24.26484,9.979576065348304,0.0569955593446672
24.267236,9.992990157811144,0.0567538123135576
24.269624,10.010827760647402,0.0564899461337604
24.272008,10.02773419792388,0.0562277749148669
24.274412,10.043709469640577,0.0559679517130232
24.276796,10.060336367663334,0.055716103924058
24.279176,10.083249107179062,0.0554398298588296
24.28158,10.106301616321652,0.0551614205956064
24.283968,10.128422959904462,0.0548847116712432
24.286352,10.154688274606968,0.0545941003273946
24.288748,10.180953589309471,0.0543040739239034
24.291136,10.199350270653166,0.0540322215757798
24.293516,10.21988882237014,0.0537515138149886
24.295919999999995,10.232279201474586,0.0534961329125274
24.298308,10.242387940578896,0.0532539913199795
24.300688,10.249563413377006,0.0530181278142312
24.303092,10.253386310988349,0.0528000025417459
24.30548,10.26721971233177,0.0525561223706946
24.30786,10.275605889943382,0.0523102405762462
24.310255999999995,10.283572758674415,0.0520765403289303
24.312644,10.28846659147239,0.0518519340065546
24.315024,10.291730410576289,0.0516486825347099
24.31742,10.28577512188102,0.0514737958876767
24.319808,10.277817732439331,0.0513034001419226
24.322188,10.265576602251093,0.0511504078321278
24.324588,10.253615011316572,0.0509890756973362
24.326972,10.23764921888922,0.0508371212025042
24.329356,10.216468520155534,0.0507025039830735
24.331752,10.191283619929017,0.0505763481744389
24.33414,10.16153543970222,0.050475292922849
24.33652,10.128853993169232,0.0503784516191303
24.338924,10.097243481822884,0.0502765146784996
24.341312,10.06656413603631,0.0501739541359729
24.343696,10.036955725436377,0.0500663513960278
24.346092,10.011491285956136,0.0499451890712609
