Time,Force,Position
27.318580000000004,5.565398483436507,0.1655132712995672
27.320960000000007,5.576942661348315,0.1654538601904831
27.32336,5.592770580006676,0.1652844376749692
27.325748,5.611996399822189,0.165120339564475
27.328132000000004,5.64267574560876,0.1647301943175701
27.330532,5.682853738448219,0.1640982108127268
27.33292000000001,5.719773599757387,0.1634447444514419
27.335304,5.753016020655688,0.1628120757953377
27.337700000000005,5.780763995993933,0.1623325571949187
27.34009200000001,5.817823626929962,0.1616826706058825
27.342472000000008,5.865824927157854,0.1607915835807762
27.344872,5.90786714697474,0.1599722732884778
27.34726,5.9419481856342005,0.159293773903862
27.349644000000005,5.981755987279191,0.1585212341260365
27.352039999999995,6.026963790827747,0.1577188098936767
27.354432,6.074545782175059,0.1568791835216497
27.356812,6.117751484977199,0.156111853576012
27.359208,6.164868841473556,0.1552228888298606
27.361600000000003,6.206538974238104,0.1544410787411336
27.363980000000005,6.246207006256234,0.153719039679194
27.36638,6.2869459734610045,0.15298335086884
27.368772,6.327173083986575,0.1522426263473061
27.371168000000004,6.361720653354859,0.1515733302982858
27.373568,6.3887263504463006,0.1509992867440147
27.375955999999995,6.410517141231408,0.1505495045751623
27.37834,6.429746752762657,0.150177549998947
27.38074,6.453492422465939,0.1497369069003159
27.383128000000006,6.479379962542498,0.1492484804145885
27.385512,6.5070372859399965,0.1486909790691877
27.387912000000007,6.531202264523858,0.1482337337567474
27.390300000000003,6.555040482025757,0.1478513928908998
27.392684,6.591542930312215,0.1472583717208897
27.39508,6.629023765986696,0.1466032441432671
27.397468,6.657752024570832,0.14606514114315
27.399852000000003,6.686247965729492,0.1455150137322044
27.402248000000007,6.718468569127265,0.1449126706302465
27.404636000000004,6.753901978084955,0.1442485763675092
27.40701600000001,6.779092565885082,0.1437262940433112
27.409416,6.80484223219265,0.1431734449906389
27.411804,6.825796301074465,0.1426949178440292
27.414188000000003,6.844049421075561,0.1422934781453506
27.416584000000007,6.861463923315498,0.1419405739333953
27.418972000000004,6.877667720741935,0.1416170153566744
27.421356,6.896944554101429,0.1412397351624273
27.483492000000005,6.762936164905372,0.140937454506208
27.485876,6.767593888562132,0.1407580653274846
27.488272,6.78105141113748,0.1404462060941368
27.49066,6.796883121511581,0.1401228829637875
27.493044000000005,6.814577163005237,0.1397743248394496
27.495439999999995,6.838929133044204,0.1393287208453035
27.497828000000005,6.864352038269807,0.1388680040498714
27.500208000000008,6.894198453868826,0.1383253694175902
27.502608,6.923672782415506,0.1377737323764036
27.504996,6.956732003574442,0.1371848714824735
27.507376,6.9903030814125735,0.1366104885218008
27.509772000000005,7.027738591116679,0.1359842226078649
27.51216,7.067036431940341,0.1353438582090451
27.514544000000008,7.104052632763866,0.1347540123235521
27.51694,7.146376287692339,0.1341091583692273
27.519332,7.185719454486374,0.1335483128275776
27.521716000000005,7.222641211653412,0.1330413180530343
27.524111999999995,7.255838306581339,0.1325907194509631
27.52650000000001,7.299837301174267,0.1319938342654706
27.528884,7.347700727633168,0.1313445880740019
27.531284000000007,7.3938415925993715,0.1307154099213916
27.533672000000003,7.436537334580185,0.130129963676747
27.536052000000005,7.47299445689627,0.1296102268739132
27.538452,7.503724816226823,0.1291581434523252
27.54084,7.533663779624459,0.1287094951605984
27.54322,7.562951116716036,0.1282599757292644
27.545620000000007,7.592657762688194,0.1277963234985931
27.548008000000003,7.617568811234602,0.1273942652857995
27.550391999999995,7.637916579780733,0.1270751790111251
27.552792000000004,7.653840837953452,0.1268300602241589
27.55518,7.667390908327415,0.126594192280243
27.55756,7.68028935239532,0.1263570199797974
27.55996,7.688531968664333,0.1261695228924651
27.562348000000007,7.692910153067373,0.126026581431151
27.564732,7.694634610417939,0.1259061773481335
27.567132000000008,7.698408390343165,0.1257214359170683
27.569520000000004,7.702229392096636,0.12549824236437
27.571904,7.700463400491435,0.1253330067858548
27.5743,7.688966444407869,0.1252845866817941
27.576688,7.677189949070585,0.1252494049869597
27.579072000000004,7.668905798546934,0.1251514658996463
27.581468000000008,7.659038856157449,0.1250583336422459
27.58386000000001,7.647821439327603,0.1249943140626137
27.586248000000005,7.64139961992351,0.1248769792828577
27.588648,7.639493858691448,0.1247202706486675
27.591035999999995,7.63707624078019,0.1245528944111395
27.59342,7.62907162951026,0.1244402003593034
27.595816000000006,7.618413291187857,0.1243478425548348
27.598212,7.611898923985147,0.1241986070698139
27.600600000000007,7.611018771969349,0.1239571042874578
27.602996,7.610557928834134,0.1236951305713242
27.605384000000008,7.607722897900164,0.1234407985809595
27.607772000000004,7.603677162152695,0.1232076683031911
27.61016800000001,7.6036356278980595,0.1229235199957759
27.612556000000005,7.604525259203203,0.1226299734575464
27.614944,7.598756961963037,0.1224061689407782
27.61734000000001,7.592988664722871,0.1221818703004296
27.619728,7.58973432490832,0.1219423887309753
27.622116,7.589133712146245,0.1216804298856318
27.624512000000003,7.585087976398777,0.1214416791902432
27.6269,7.57303383766564,0.1213050389938808
27.629287999999995,7.557906662999448,0.1212094592227746
27.631688000000004,7.546504150572369,0.1210765359195443
27.634076,7.533658615906315,0.1209411067019978
27.636464,7.514574461575533,0.120855970319017
27.638864000000005,7.49521076799103,0.1207835606520435
27.641252,7.476778239966305,0.1207017127309145
27.64364800000001,7.4625822308598915,0.1205943460219011
27.653232,7.377162483648718,0.1205762135836704
27.65562000000001,7.358495742340646,0.1205761852294581
27.658016,7.340899936219214,0.1205592220081883
27.660412,7.322652503791724,0.1205370924670601
27.6628,7.315718827708433,0.1204002444980857
27.66520000000001,7.309157238677479,0.1202815876859497
27.667596,7.303526815206306,0.1201538809964661
27.669988,7.298315700615711,0.12000535220071
27.672384,7.295618543450731,0.1198432701285006
27.674788,7.294504178151587,0.1196758265629941
27.677176,7.295252143972,0.1194898554648288
27.679572,7.294137778672857,0.1193221421775064
27.681968000000005,7.294466435612691,0.11915726347732
27.684363999999995,7.294096244418222,0.1190260917415757
27.68676,7.291304643596757,0.1189410663120233
27.689152,7.289816295387408,0.1188655234813668
27.69155200000001,7.289538651991557,0.1187670871798884
27.693948,7.289912634901763,0.1186731179309006
27.696335999999995,7.289075912998472,0.1186020082355355
27.698736000000004,7.287959651841459,0.1185451754479585
27.70113200000001,7.288333634751665,0.1184508331554534
27.703520000000005,7.28884738728873,0.1183497866161916
27.70592,7.290943931691634,0.118245261053985
27.710704,7.288152330870169,0.1181595449911152
27.71308800000001,7.284754429713018,0.1181416983789659
27.715484,7.282427463742508,0.118108070272245
27.717876,7.285547721503807,0.1180293106370072
27.720256,7.289738914451743,0.11793528915898
27.722656000000008,7.297282682586457,0.1177880446642996
27.725044000000004,7.306409242587005,0.1176379935026327
27.727428,7.317537903333972,0.1174644103817045
27.729824,7.328666564080938,0.1172917834595272
27.732212,7.346081066320875,0.117034638680354
27.734596000000003,7.369921179680642,0.1166879411093214
27.736992000000008,7.396834328973466,0.1163047795937143
27.739380000000004,7.4226765430796515,0.1159398311486366
27.741764,7.453593893865309,0.1155163165332831
27.74416,7.490657316517077,0.1150175668868092
27.746552,7.528651904728624,0.1145145289763496
27.748932000000003,7.565947644805868,0.1140450104988855
27.751332,7.602963845629393,0.1135914424051605
27.75372000000001,7.6350446794003055,0.1131922376293587
27.756104,7.669267383544495,0.1127662872204714
27.758503999999995,7.705631958061962,0.1123093519837161
27.760892000000005,7.737852561459736,0.1119039210213457
27.763276,7.771004330417287,0.1114944373064838
27.765672,7.79749817082953,0.1111499390864458
27.768064000000003,7.824271550495494,0.1107950091208828
27.770444000000005,7.850765390907736,0.1104555007705236
27.772844,7.872882942774807,0.1101414035861462
27.775231999999995,7.896723056134575,0.1098216406656236
27.777616,7.919771773561425,0.1095043999043576
27.780012000000006,7.94095815986872,0.1092058210876835
27.782400000000003,7.9570694094965395,0.108965407891787
27.78478400000001,7.970666701698746,0.1087360869497048
27.78718,7.982541432408255,0.1085153244634092
27.789568,7.992973140878789,0.108293156364405
27.791952,8.003404849349325,0.1080737847389956
27.794352,8.0119742267003,0.1078689786839476
27.796740000000007,8.025386423305273,0.1075904170463055
27.799124,8.039217928790826,0.1072950501900883
27.801520000000004,8.055470843903377,0.106961495155054
27.803912000000004,8.070792593456149,0.106636814701585
27.806296,8.090398083755476,0.1062651522408416
27.808692,8.114566854055075,0.1058320331763772
27.81108,8.1378044587949,0.1054083894475955
27.813464000000003,8.162904394654278,0.1049709955487406
27.815860000000008,8.186514086446438,0.1045649948192565
27.818252000000008,8.20998400861174,0.1041664409600774
27.820632,8.239040924135708,0.1037306904098903
27.823032000000005,8.264233407793704,0.1033278374781212
27.82542,8.292871014437095,0.1029147813393284
27.827804000000008,8.320158146640125,0.1025269856788427
27.8302,8.349307609962711,0.1021273082100589
27.832592,8.379900095524274,0.1017349520398857
27.834972,8.40914210664548,0.101364608892444
27.837380000000003,8.433960607393269,0.101049340508664
27.839768,8.454635137021361,0.1007775735367385
27.84215200000001,8.473447335529903,0.1005174500971687
27.844552,8.486765088478387,0.1003243465279089
27.84694,8.500734467732931,0.1001382518808573
27.84932,8.513493142173976,0.0999697764072973
27.851720000000007,8.5271829821748,0.0997967476229891
27.854108000000004,8.535518146242433,0.0996824481807117
27.856492,8.543853310310064,0.0995694663959956
27.858892000000004,8.551117539191054,0.0994681381423675
27.86128,8.560383868818466,0.0993505577232052
27.863664000000007,8.571140442513094,0.0992053497633357
27.86606,8.581245389901664,0.0990548851447216
27.868452,8.584552639118066,0.0989541937340254
27.870836000000004,8.590421067588327,0.0988147801329841
27.873256000000005,8.587257379714524,0.0987188152041622
27.875644,8.58423346146758,0.0986172474151362
27.878028000000008,8.58041814728772,0.0985156251112403
27.880428,8.572366314189546,0.0984243304154599
27.882816,8.566735890718373,0.0982995761126914
27.885216000000007,8.561245236874058,0.0981687808708926
27.887616,8.557244827096962,0.0980098528627443
27.890008,8.55831955399934,0.0978071122586499
27.892388000000004,8.559813589782298,0.0975871891040693
27.894788,8.556000171460306,0.0973882613071684
27.89717600000001,8.55432862351159,0.0971673403730723
27.89956,8.548932413323763,0.0969679946357619
27.901959999999995,8.546097382389794,0.0967299790057012
27.90434800000001,8.538047445149491,0.0965407744439014
27.906732,8.530277047162908,0.0963403019830014
27.909128000000003,8.521855022870266,0.0961343278685993
27.911516,8.513572768204487,0.0959230207349121
27.913900000000005,8.506501218352204,0.0956956622885181
27.916296,8.508509006672229,0.0953955559467908
27.918688,8.508095385365257,0.0951277871259669
27.921072,8.518483663723288,0.0947834787726732
27.923468000000007,8.53222451726809,0.0944046602893523
27.925856000000003,8.546244910066617,0.0940158395960132
27.928239999999995,8.566131835477535,0.0935884490282767
27.930636,8.587881092008008,0.0931538148496445
27.933024,8.615776420404591,0.0926717422882314
27.935408,8.643392209547454,0.0922019189136564
27.937804000000007,8.66807473238412,0.0917548772338208
27.940192000000003,8.695690521526982,0.0912910135921813
27.942575999999995,8.729964239215155,0.0907912355138311
27.944972,8.764377726530185,0.090289552904837
27.94736,8.799862149031856,0.0897774155859554
27.949744000000003,8.830923061160112,0.089309680471681
27.952152000000005,8.865196778848285,0.0888114226153158
27.95454400000001,8.895466295043624,0.0883400573809544
27.956924000000008,8.922662775305907,0.0878935701959647
27.959324,8.946925989261993,0.0874666301898564
27.961712,8.968907563217943,0.0870654485227548
27.964096000000005,8.982880734188225,0.0867220078778371
27.966496,8.998344149225726,0.0863535342460287
27.968884,9.00659055721048,0.0860430835253777
27.97127200000001,9.010692994075535,0.085766216276951
27.973668,9.014655661313736,0.0854950508908646
27.97606,9.012612026312686,0.0852641301084016
27.97844,9.007914664259156,0.0850403252148121
27.980836000000004,8.996140064779741,0.0848649674643933
27.983228000000004,8.984365465300325,0.0846894460177622
27.985608000000006,8.971380161007408,0.0845278600718182
27.988008,8.95317995040816,0.0844059928052016
27.990396,8.928554128689083,0.0843381255982371
27.992784000000007,8.90057573178323,0.0843019880062992
27.995192,8.874319896370071,0.0842626049177464
27.997584,8.850857557636246,0.0842119256335946
27.999972000000007,8.828466154089062,0.0841513481376263
28.002379999999995,8.813943383900686,0.0840446627172761
28.004772,8.80314527595142,0.0839227872287195
28.007172000000004,8.793790190241133,0.083808625540217
28.00956800000001,8.785645809344345,0.0836802171338361
28.011956000000005,8.78029492512689,0.0835402804224116
28.014356,8.77610752389469,0.0834189332307121
28.016752000000004,8.771640583408772,0.083307491288568
28.01914,8.766894103669133,0.0832061983826408
28.02154000000001,8.76279925023555,0.0831116012797993
28.023948,8.76415162053378,0.0830001531349195
28.02634,8.767598639377043,0.0829037513691817
28.028736,8.774770320459417,0.0827926125292934
28.03114,8.780731296728295,0.0826954169881511
28.033532,8.786692272997172,0.0825980679341056
28.035936,8.79758861631866,0.0824721385878376
28.038328,8.814119174827061,0.0822918625302869
28.04072800000001,8.83279160370874,0.0820936624126767
28.043128000000003,8.85025332777692,0.0819100116670517
28.045516,8.871998792591654,0.0816930688433908
28.047916000000008,8.891322847779392,0.0815044325200767
28.050316,8.903569665541239,0.0813617160456904
28.052704,8.912883216996892,0.0812350339205727
28.055100000000003,8.920334437332988,0.0811149996891198
28.05750800000001,8.928437283975143,0.0810021393401428
28.05990000000001,8.938682000990571,0.0808727861830789
28.06228000000001,8.947204156513306,0.0807455834760094
28.064680000000003,8.959870283155736,0.0805895962412971
28.067068,8.97374711461166,0.0804200186849061
28.069452000000005,8.987623946067588,0.0802511092439026
28.071848,9.001780316777234,0.0800739064278353
28.07424,9.014633434874764,0.0798838785337647
28.076624,9.02562422185274,0.0797005929654811
28.079035999999995,9.037825713644214,0.0795039580982989
28.081427999999995,9.054031406928525,0.0792852796418335
28.083812,9.066232898719996,0.0790897229934839
28.086212,9.07680437681739,0.0789234088975461
28.088600000000007,9.09002958196726,0.0787535096499346
28.090984,9.104605261557488,0.0785661861084711
28.093380000000003,9.114245574095106,0.0784053507043344
28.095768,9.129892188871972,0.0782127359906723
28.09815200000001,9.151265566634368,0.0779972361586467
28.100552,9.176643145889598,0.0777611898997142
28.10294,9.20923773219758,0.0774820290385259
28.10532,9.243182792945916,0.0771876639022906
28.107720000000008,9.275265522574696,0.0769011472837514
28.110108000000004,9.30855895701698,0.0766034002382825
28.11248800000001,9.341200765153202,0.0763013620704991
28.114884,9.375984443662704,0.0759863487205484
28.117276,9.408254164746593,0.0756705115526707
28.119656,9.436659453964502,0.0753720656727039
28.122056000000008,9.464273347249495,0.0750724841516738
28.124444000000004,9.494308650161486,0.0747498178289053
28.126824000000006,9.525414888260116,0.0744212148093147
28.129224,9.552796464119632,0.0741049143537807
28.131612,9.584601550352565,0.0737558990851848
28.133996000000003,9.620178520652852,0.0733703770190178
28.136392000000008,9.651518972034824,0.0729848446095067
28.138780000000004,9.6828594234168,0.0726014645854996
28.141164,9.715410579612277,0.0722072291421044
28.14356,9.741443576889305,0.0718321264900211
28.145948,9.764171220807796,0.0714542776238644
28.148332000000003,9.780240936180984,0.071097440324486
28.150728000000008,9.79044411894178,0.070765615095997
28.15312000000001,9.797574265769518,0.0704503542602688
28.1555,9.80363347741062,0.070141873781665
28.157900000000005,9.807830357932165,0.069838118608716
28.160295999999995,9.812167008080571,0.0695310248570921
28.162676,9.812499456736145,0.0692415683940896
28.16507600000001,9.816696337257689,0.068939790080144
28.167464,9.819962052219456,0.0686394000715278
28.16984800000001,9.826952429420334,0.0683321175006034
28.172244,9.832732101807714,0.0680366127498304
28.174631999999995,9.84079341419523,0.0677258048256886
28.177016,9.848854726582749,0.0674148606567635
28.179412000000006,9.85491393822385,0.0671133161656457
28.181800000000003,9.852685207625566,0.066853032660025
28.184180000000005,9.851108103333337,0.0665992323537175
28.18658,9.845666567175131,0.0663565209561839
28.188968,9.84101642694985,0.0661167787243037
28.191352,9.834224416351288,0.065888049280493
28.193752,9.828223801685647,0.0656618516766957
28.196140000000007,9.828089719632397,0.0654164133107055
28.198519999999995,9.828095407206003,0.065166334664017
28.200920000000004,9.8243764325405,0.0649215636734037
28.203312000000004,9.824801428994686,0.0646576687764394
28.205696,9.826157591008652,0.0643921702693878
28.208116,9.822159077089426,0.0641561173196345
28.210504000000007,9.82416686540945,0.0638981633656999
28.212888,9.82324138742328,0.0636496864682873
28.215288000000008,9.825388945370165,0.0633879380380435
28.217676000000004,9.82553440257063,0.0631347626616482
28.22006,9.828613126077297,0.0628740070483432
28.222456,9.824335072904349,0.0626489855614551
28.224844,9.822710746783878,0.0624245007177043
28.227228000000004,9.819735946223048,0.0622142433650679
28.229628,9.82169651271483,0.0619881692533529
28.23201600000001,9.8290117551398,0.0617351315828376
28.2344,9.84019142943075,0.0614725450690579
28.236796000000005,9.85043993816192,0.0612119742654883
28.239184,9.867905453945836,0.0609216958975654
28.241568000000008,9.886302135289531,0.0606312141507153
28.243964,9.902836485513674,0.0603445841132072
28.246356,9.92095362760365,0.0600648846943288
28.248740000000005,9.947870568612212,0.0597629809461514
28.251148000000008,9.96957260331444,0.059484728391646
28.253540000000008,9.990343472456892,0.0592080353682344
28.25592,10.020333449398512,0.0588976746195961
28.258320000000005,10.041244088167822,0.0586181401231592
28.260708,10.060944022123635,0.0583477511621768
28.263092000000007,10.077570920146393,0.058089216791379
28.265488,10.08726035037012,0.0578492533111549
28.267876000000008,10.089872543167962,0.0576330125638724
28.27026,10.096768476712354,0.0573953068230079
28.27266000000001,10.101010683204272,0.057156650006932
28.275048000000005,10.106603364136552,0.0569043751833113
28.277432,10.111264879509047,0.0566535707142791
28.27983200000001,10.110571718948352,0.0564292031389113
28.28222,10.109226932081604,0.0561976631406897
28.28460400000001,10.108021914841713,0.0559621162407948
28.287004000000003,10.103464322415045,0.0557463233422497
28.289396000000004,10.100257204428738,0.0555180764798991
28.29177600000001,10.09784148237535,0.0552936413832863
28.294172,10.092772033269483,0.0550669032026298
28.296560000000007,10.08183605155123,0.0548525533372951
28.29894000000001,10.074112875392894,0.0546238152211082
28.301340000000003,10.067460634421192,0.054390194335913
28.303728,10.052799990463823,0.0541776729393974
28.306108,10.044425187999428,0.0539406261667279
28.308508,10.038192255908308,0.0536939212354002
28.310896000000007,10.033030259003825,0.0534419848061056
28.31327600000001,10.036947600271647,0.0531645606281122
28.315676000000003,10.045148682286026,0.0528679293767303
28.318064,10.053349764300403,0.0525718963974616
28.320444,10.059688515195225,0.0522760296521776
