Time,Force,Position
6.276608,21.260527564572627,0.1450624142725447
6.280691999999998,21.360652878702943,0.1447071662600481
6.284783999999998,21.437404883380815,0.1444037205475529
6.288915999999997,21.50009933973171,0.144116379597901
6.292995999999999,21.556257575131053,0.1438188223811977
6.297079999999998,21.60107274817951,0.1435528124883255
6.3011680000000005,21.6377901340018,0.1432944823539345
6.305303999999996,21.669555700498226,0.1430362436398444
6.3094319999999975,21.68975675484389,0.142813439744496
6.313563999999996,21.70332228101361,0.1425966128530102
6.317648000000002,21.710141554107445,0.1423872864994739
6.321676,21.71739230912548,0.142153819707466
6.325711999999999,21.72541813844306,0.1419040149905839
6.329795999999998,21.73097376693548,0.141662020969368
6.333935999999998,21.734624236777936,0.1414305900838174
6.338072,21.735472331095423,0.1412134375329863
6.342203999999999,21.738336308962804,0.1409838887022238
6.346340000000001,21.73447686910536,0.140791077320338
6.350475999999997,21.731625371022865,0.1405918399108275
6.354547999999998,21.73124407376554,0.1403860388740497
6.358684,21.72739605158363,0.1402084271911827
6.362819999999996,21.724899563552007,0.1400326032169223
6.366907999999999,21.72913791092073,0.1398356436114393
6.3709919999999975,21.73450634263988,0.1396453177027331
6.375075999999996,21.738313208084403,0.1394731289237864
6.37922,21.750416475203902,0.1392623389987839
6.383351999999999,21.763539101773883,0.1390606161117501
6.387488000000001,21.779242654068963,0.1388502646545077
6.39162,21.802799708439277,0.1386108694693927
6.395755999999995,21.82882696363476,0.1383657939399681
6.399891999999998,21.8569922449556,0.1381211157442063
6.403975999999997,21.881912251151736,0.1378998712375681
6.408059999999995,21.905713590672985,0.1376875694230342
6.412195999999998,21.92716687194454,0.137494539210806
6.416335999999998,21.95142252874107,0.1372887975792265
6.420427999999998,21.97736189438768,0.1370782908157231
6.424567999999997,22.00767661950941,0.1368531457527368
6.428699999999996,22.04348537078116,0.1366041116378787
6.432832000000001,22.08489887310284,0.1363298316663846
6.436911999999996,22.127431042099403,0.1360489644231394
6.4410440000000015,22.17231126934567,0.1357497622834989
6.445176,22.221333988591653,0.1354264911864786
6.449316,22.267997231912407,0.1351084989656521
6.453451999999995,22.313763258358147,0.1347944901612545
6.457539999999998,22.364347543878765,0.1344575639165507
6.461687999999999,22.41112151209945,0.1341409075138622
6.465836,22.460132813669905,0.1338094752278323
6.469975999999999,22.50914411524035,0.1334793938348644
6.474127999999997,22.55669315776058,0.1331512470882839
6.478280000000002,22.600431882980896,0.1328420980640922
6.482415999999997,22.649996809051025,0.132505348599165
6.486547999999996,22.69934028532128,0.1321729041859732
6.490680000000001,22.75025674554169,0.1318391014062311
6.494820000000001,22.80430775598688,0.1314869295112899
6.498955999999996,22.85342978245727,0.1311610344586805
6.503095999999996,22.902662533827588,0.1308337700473012
6.50724,22.944496100397945,0.1305386740429344
6.511375999999995,22.98565389989316,0.1302437871228102
6.5155080000000005,23.023112106988396,0.1299657185528646
6.519648,23.054965563033683,0.1297122191008687
6.523779999999999,23.09388602917913,0.1294369079795066
6.527919999999998,23.12888545312473,0.1291823412697201
6.532051999999997,23.164449919245538,0.1289318486399587
6.536187999999999,23.20572986131622,0.128657063013219
6.540316000000001,23.24297803628712,0.1284047588005776
6.544447999999999,23.281123428133025,0.1281500426844823
6.548576000000001,23.313331894229187,0.1279250702892723
6.552716,23.34374592657533,0.1277069078831554
6.556851999999996,23.37415995892147,0.1274897005702678
6.560991999999995,23.40759781659245,0.127257306163296
6.565132000000002,23.435541648113425,0.1270466326067013
6.5692720000000016,23.46695220455898,0.1268123799272683
6.573412000000001,23.497011226854248,0.1265763607203083
6.577555999999998,23.526615931874247,0.126335810718342
6.581687999999996,23.557782203168863,0.1260794634343111
6.585840000000001,23.5905100407381,0.1258084290251863
6.589967999999995,23.627147502831654,0.1255057371675968
6.594052000000001,23.66164693879986,0.1252022748548293
6.598184,23.694229798442564,0.1248934608449594
6.602319999999995,23.72892784885956,0.1245587445637426
6.606452000000001,23.751053445350863,0.1242523421078352
6.610587999999996,23.774507740641383,0.1239217375329996
6.614727999999996,23.79570186723107,0.1235781929057826
6.618867999999996,23.80892034917006,0.1232455052555102
6.623003999999998,23.820100112208088,0.1228952379816541
6.627140000000001,23.82779031497047,0.1225407045870635
6.6312159999999984,23.84173820050687,0.1221390251546293
6.635352000000001,23.85589611816761,0.1217198009407893
6.639436,23.867240242627844,0.1212978719715623
6.643567999999998,23.875881298787508,0.1208711086748484
6.647651999999997,23.884843111971445,0.1204248062704887
6.651727999999995,23.891888348829887,0.1199731406993668
6.655863999999998,23.89780350133792,0.1195147687334853
6.659947999999996,23.903153611670746,0.1190536765311089
6.664079999999995,23.913199838502965,0.1185623983838378
6.668164000000001,23.921783806284964,0.1180714183539001
6.6723040000000005,23.928573340316944,0.1175864774311511
6.676387999999999,23.93569504904873,0.1170957103695504
6.680527999999999,23.944721916430467,0.1165979946760941
6.684619999999999,23.9557646673621,0.1160919374751157
6.688708000000002,23.97353083601856,0.11555977804487
6.692792000000001,23.986589470500085,0.1150448186998445
6.696879999999997,24.002450480506585,0.1145210887053468
6.701011999999995,24.02100314113812,0.1139898363506312
6.7051399999999965,24.042358177294624,0.1134497108758382
6.709271999999995,24.06695848857584,0.112892713340292
6.713363999999995,24.09155879985705,0.1123381149681093
6.717488,24.117167052913214,0.111780210399948
6.721520000000002,24.143783247744324,0.1112184862739006
6.725607999999998,24.171185934550508,0.1106569648823912
6.729744,24.199375113331765,0.1100963427253443
6.733836,24.22946945076298,0.1095306061101375
6.737923999999996,24.26169039664403,0.1089553202262968
6.741963999999999,24.29255980837479,0.1083776837111831
6.746099999999995,24.32051611968065,0.1078130938165244
6.750219999999995,24.346788722136424,0.1072518358168902
6.754347999999997,24.371377615742094,0.1066933818153325
6.758475999999998,24.39428280049769,0.1061376717467133
6.762604,24.41763088485303,0.1055753669717993
6.766743999999999,24.44097896920836,0.1050148425351504
6.770875999999998,24.46399487886389,0.104461866831441
6.775015999999997,24.4886944973695,0.1039063593024401
6.779155999999997,24.51137823232522,0.1033601501526217
6.783287999999995,24.53574567613103,0.1028128932614891
6.787375999999998,24.55798651148702,0.1022763421058248
6.791467999999998,24.57978444724326,0.101748732265002
6.795599999999997,24.59766134079965,0.1012360475805301
6.799691999999997,24.61419811788129,0.1007337570011769
6.803836,24.632086429113222,0.1002360389226892
6.807967999999999,24.65288784077005,0.0997299140993937
6.812059999999999,24.67335707772708,0.0992305341646758
6.816203999999996,24.69047031465946,0.09874901088598
6.82028,24.70904581064206,0.0982707945100912
6.824431999999998,24.72807562389993,0.0977987070968695
6.8285639999999965,24.746662537558063,0.097335075058959
6.832695999999995,24.76872759381631,0.0968670088931036
6.836836000000002,24.79315212599978,0.096399560889572
6.840971999999997,24.82195201765838,0.0959259618043457
6.845047999999995,24.850198284817303,0.0954628584924539
6.849127999999997,24.87508855195159,0.0950169881320316
6.853267999999996,24.896954993761028,0.0945825868664707
6.857403999999999,24.9235289697454,0.0941370424364984
6.861543999999999,24.94898427905489,0.0936973138304267
6.865675999999997,24.972423704814485,0.0932655556208215
6.869759999999996,24.9953095060744,0.0928431340639949
6.873887999999997,25.0169659157595,0.0924285551050066
6.878024,25.04019530939476,0.09201490314195
6.882147999999997,25.063535427929956,0.0915998970599858
6.886287999999997,25.086421229189877,0.0911801529998628
6.890435999999998,25.1049430886502,0.090780385111353
6.894572,25.12223555653571,0.0903881788437116
6.898700000000002,25.13963874932116,0.089994166058418
6.902827999999996,25.150097074581915,0.0896220864388899
6.906955999999997,25.16123116691781,0.089252522182125
6.911083999999999,25.169784333528607,0.0888858229946071
6.9152200000000015,25.17262202418953,0.0885338379413256
6.919360000000001,25.17545971485045,0.0881822399732058
6.923500000000001,25.17527358018653,0.0878410178732871
6.92764,25.17239579489757,0.0875041196813056
6.93178,25.168952967433416,0.0871628983282936
6.935923999999996,25.164723647994176,0.086820960425307
6.940055999999995,25.15455740280519,0.0864968547036797
6.944203999999996,25.14820147491612,0.0861637022653445
6.948291999999999,25.13994038837709,0.0858348852200153
6.952435999999995,25.135821793837785,0.0854917355596073
6.956568000000001,25.130019490448397,0.0851492860349224
6.960703999999996,25.121304086634098,0.084814357592958
6.964836000000002,25.113375174794875,0.0844799708637866
6.968971999999997,25.09850139543096,0.0841650718084539
6.973108,25.085864949416813,0.083840205009671
6.977243999999995,25.075576561652365,0.0835038890387154
6.981335999999995,25.066971882738,0.0831667178348636
6.985427999999995,25.064193404673446,0.0828143973540029
6.989519999999995,25.061636376408767,0.0824587972456442
6.993659999999995,25.061438824069317,0.0821047169850199
6.997739999999997,25.065838081004856,0.0817425929376966
7.001828,25.07135600461528,0.0813762699601407
7.005911999999999,25.07507949447568,0.0810122406290713
7.010003999999999,25.081383910061177,0.0806463846067537
7.014087999999997,25.09004780157191,0.0802823281964275
7.018176,25.1031977774577,0.0799127458315044
7.022259999999999,25.122063229293367,0.0795314071146707
7.026351999999999,25.137007638929184,0.0791606534157735
7.030427999999997,25.155540916065043,0.0787856196286212
7.034507999999999,25.171836859851137,0.0784208042444893
7.038588000000001,25.194634771562196,0.0780455538321689
7.042723999999996,25.224266825897995,0.0776548111087215
7.046868,25.253001663358795,0.07726581643685
7.050999999999998,25.29305672781941,0.0768558151783486
7.055131999999997,25.331993125605138,0.0764511971659208
7.059263999999995,25.36667630649121,0.0760618502203968
7.063335999999996,25.403375370927183,0.0756681849117484
7.067475999999996,25.44097165223816,0.0752749056629105
7.071611999999998,25.48025164239923,0.0748826735314295
7.075743999999997,25.52165824101013,0.0744845410131871
7.079883999999996,25.563175564520957,0.0740860344326652
7.084019999999999,25.602455554682024,0.0736972751108381
7.088148,25.65025339631793,0.0732948380784872
7.092235999999996,25.699059179728795,0.0728909714906263
7.096371999999999,25.74920507961441,0.0724806380904693
7.1005,25.79486489512496,0.0720756716293366
7.104628000000002,25.83491995958557,0.0716803540919034
7.108763999999997,25.876658732896267,0.0712855448373835
7.1129,25.916935247156747,0.0708883547858914
7.117035999999995,25.955860227266943,0.0704867048138548
7.121176000000002,25.99007767320221,0.0700939684201349
7.125311999999997,26.01667448453765,0.0697152767659906
7.129459999999998,26.04517645452304,0.0693341099275409
7.133599999999998,26.06728718148341,0.0689612578854118
7.137744000000001,26.09073802491854,0.0685815545196681
7.141879999999997,26.117434143478377,0.0681915207229428
7.146011999999995,26.1406521194381,0.0678035593503531
7.150144000000001,26.16061340259758,0.0674142246132514
7.154275999999999,26.176088601382,0.0670288721006619
7.158411999999995,26.18718844069129,0.0666457823402199
7.162555999999999,26.196383121350635,0.0662662161682351
7.166692000000001,26.20691791848473,0.0658797355866508
7.170827999999997,26.21005353081885,0.0655027751592657
7.174967999999996,26.21273482587771,0.065120460692886
7.179100000000002,26.21541612093656,0.0647388711951369
7.183232,26.2267259923702,0.0643447050887612
7.187372,26.243186297578507,0.0639383725679285
7.191512,26.263224052611324,0.0635185063251375
7.195643999999998,26.28337253254408,0.0630975326335263
7.199771999999999,26.30722060487681,0.0626736379236216
7.203900000000001,26.329384968359456,0.0622493088112982
7.208027999999995,26.35950214114174,0.0618105176068971
7.212155999999997,26.3881570548738,0.0613688598003423
7.2163,26.420843735705656,0.06091989561528
7.22044,26.45565702498734,0.06046672733865
7.224583999999997,26.491810430743776,0.0600080876751161
7.228728,26.52930395297496,0.0595433908210912
7.232879999999998,26.570829242305933,0.0590720526599103
7.237019999999998,26.617837140111376,0.0585857032194925
7.241159999999997,26.667979588141595,0.0580928299499767
7.245299999999997,26.716094734946388,0.0575920735588093
7.249435999999999,26.76285834760089,0.0570868085624057
7.253572000000002,26.809278367880065,0.056574505131491
7.257699999999996,26.85222024555912,0.0560626697806284
7.261835999999999,26.89011099668792,0.0555485273679247
7.265972000000001,26.913424828016648,0.055042605879704
7.270112000000001,26.92373472349547,0.054545930347052
7.274243999999999,26.92003274134945,0.0540601184383548
7.278379999999995,26.90713714065344,0.0535783109380878
7.282520000000002,26.87798091130728,0.0531001150447975
7.286652,26.83906602123592,0.0526199413804449
7.290792,26.77683491008979,0.052154530920264
7.294931999999999,26.697900270693776,0.0516967905696629
