Time,Force,Position
10.75916,21.177009833187885,0.1450306231460545
10.763244,21.30669763349146,0.1444670378504401
10.767332,21.405677993740436,0.1439333181421192
10.771428,21.484286034510745,0.1434032021667005
10.775564000000005,21.54803861730346,0.1428755290655404
10.779644,21.598531561419804,0.142378942630238
10.78378,21.64508062798523,0.1418786805254087
10.787912000000002,21.67782784905014,0.1414322555491962
10.792044,21.70573397568912,0.1409850170913828
10.796176000000004,21.729585499877253,0.1405342490323624
10.800316000000002,21.75286056421464,0.1400672408844512
10.804456000000002,21.778483686801724,0.1395825037537162
10.808588,21.800197184864487,0.139137823986196
10.812724000000005,21.832234385827658,0.1386591926034935
10.816864000000002,21.86933413101663,0.1381831803135845
10.821008000000004,21.91048847865645,0.1377144242369158
10.825152000000005,21.95670537052208,0.1372479104558379
10.829288000000002,22.010554314663068,0.1367598497532829
10.833416,22.06318528490477,0.1362995573837949
10.837544,22.11740065677216,0.1358530604247176
10.841672000000004,22.176235673265616,0.1354180907497651
10.8458,22.242271260110225,0.1349875271958058
10.849932000000004,22.31741257595596,0.1345504658769267
10.854076000000004,22.393584668927694,0.1341390722292927
10.858220000000005,22.47784313145008,0.133713921281785
10.862356000000002,22.56435034499776,0.1332899469900079
10.866496,22.65142260072064,0.1328724962047199
10.870636,22.747577750093576,0.1324202435352099
10.874772,22.846092375391745,0.1319680579574308
10.878912,22.950444619215254,0.1315050147668565
10.883048000000002,23.0545754132389,0.1310500663769349
10.88718,23.155006614862565,0.1306130707016191
10.891316,23.25564784861056,0.1301604542666985
10.895448000000002,23.347084046133038,0.1297340968090962
10.89958,23.42774222347984,0.1293341611466049
10.903724,23.508377565475573,0.1289095067456876
10.907864,23.58327459617037,0.1284849157366442
10.911992,23.651314648889336,0.1280676050648692
10.916136000000002,23.713505665407432,0.1276499391918619
10.920272,23.7754523967746,0.1272107998105668
10.924408,23.82907989111571,0.1267767346575812
10.928548000000005,23.8697913391558,0.1263651212889827
10.932688000000002,23.9020728252699,0.1259604917474699
10.936780000000002,23.93220486758311,0.1255414577914145
10.940864,23.952788281295465,0.1251365268147647
10.945,23.96909564275709,0.1247293229861838
10.949092,23.981126951968,0.1243197669351706
10.95318,23.987087775178164,0.1239138570292969
10.957272,23.98597017061263,0.1235158189901596
10.961408000000002,23.97990074672124,0.1231143278832804
10.965536,23.97191474650436,0.1227075733779974
10.969632,23.96593321216184,0.122277794071655
10.973764000000005,23.95636281031926,0.1218595131131499
10.977856000000004,23.94679240847669,0.1214408730709244
10.981984,23.942826757684056,0.1210011500819668
10.986072,23.932813456241743,0.120590638928017
10.990160000000005,23.919665604574654,0.1201960703108965
10.994248000000002,23.90865577903293,0.1198035934347936
10.998336000000002,23.90280780494141,0.1193985916046297
11.002424,23.895398264575263,0.119008995260147
11.006552000000005,23.893039850759383,0.1186091776382675
11.010688000000002,23.89921070609388,0.118190631581189
11.014836000000004,23.91054341287858,0.1177604643031077
11.018980000000004,23.9253542622634,0.1173229034806578
11.023064000000002,23.944319021323462,0.1168785807882677
11.027204,23.966540473183773,0.1164307986789776
11.031292,23.9898920093945,0.1159904795223484
11.035376000000005,24.01470580465545,0.1155517176127801
11.039516000000004,24.042887017616565,0.1151070290692337
11.043604000000002,24.06771223055304,0.1146825910718047
11.04774,24.09141877681464,0.114265472112637
11.051816000000002,24.114793148376428,0.1138557799509596
11.0559,24.140969895463183,0.1134373881453809
11.060044,24.16848675902469,0.1130089745377476
11.064124,24.191738988011025,0.1125892766562422
11.068268,24.21745000014698,0.112152955077039
11.072408000000005,24.250216604707564,0.1116866975171861
11.076552,24.28286106669268,0.1112103075196992
11.080640000000002,24.317177819852347,0.1107196235373729
11.084780000000002,24.353388313986443,0.110210396571063
11.088868000000002,24.39328698284499,0.1096792038821219
11.093004,24.429696091427896,0.1091434719859255
11.09714,24.464410073485173,0.1085986613863729
11.101228000000004,24.49227849524216,0.1080667648556209
11.105368000000002,24.51643590692364,0.1075328569859681
11.1095,24.535309324579444,0.10699736310881
11.113644,24.55360628238451,0.1064454647872012
11.117784,24.56897872208913,0.10589076395912
11.121872,24.585458410793112,0.1053178922362029
11.126008000000002,24.60091874004661,0.1047349516138866
11.130144,24.61737559339952,0.1041353466466529
11.13428,24.632026595326877,0.1035275743245614
11.138360000000002,24.645879687603617,0.1029078669410626
11.142496,24.65849197063001,0.1022829355148065
11.146636,24.678049121181097,0.1016335521295411
11.150784000000002,24.698946388206934,0.1009758048184241
11.15492,24.716586962432533,0.1003222424831625
11.159048000000002,24.73455971135793,0.0996644870606258
11.16318,24.75073802653331,0.0990124816539162
11.167308000000002,24.76400324128378,0.0983710000807266
11.171436,24.77065576320936,0.0977495958057429
11.175568000000002,24.777984052210087,0.0971305518886687
11.179708000000002,24.78598810828596,0.0965144205615671
11.183844,24.8017235238616,0.0958755595297273
11.187988,24.82295296558724,0.0952253064875854
11.192140000000002,24.849233533863146,0.0945708660647311
11.196284000000002,24.87518192743925,0.093922681268201
11.200416,24.907521564040376,0.0932623328035346
11.204568000000002,24.94020479301684,0.0926117793723779
11.2087,24.98197091564335,0.0919449829581119
11.212832000000002,25.024302080445068,0.0912840419229872
11.216968,25.06899272117202,0.0906258184290689
11.221096000000005,25.11391622937437,0.0899789346663391
11.225232000000002,25.16500953080188,0.0893257141622998
11.229368,25.212857557104662,0.0886890994454264
11.233508,25.25947619183264,0.0880612866559574
11.237644,25.30307100123577,0.0874441116468728
11.241780000000002,25.34364198531407,0.0868379198589307
11.245920000000002,25.382529260542277,0.0862342052796744
11.250056,25.42141653577048,0.0856312751494085
11.254132000000002,25.46142247767356,0.0850240528498497
11.258276000000002,25.50254708625153,0.084413536970681
11.262408,25.54389314462937,0.0838014585041916
11.266544,25.58120743590742,0.0832041255478048
11.270676000000002,25.61482213478549,0.0826154574492664
11.274708,25.643950749288503,0.0820339343868825
11.278840000000002,25.673300813591386,0.0814495553535442
11.282972,25.69402230151948,0.0808856341914487
11.287068,25.712052138822543,0.0803263144665213
11.2912,25.721896299350576,0.0797807134625213
11.295328,25.72983530122864,0.0792397546632893
11.299464,25.736766361331757,0.0787027980193924
11.303600000000005,25.74212443748472,0.078165083237711
11.307740000000004,25.73705950351288,0.0776482049043027
11.311880000000002,25.72829497714105,0.0771371546773138
11.315968000000002,25.722222101394262,0.076623661933393
11.320108,25.71861942647264,0.0761101887938386
11.324252,25.715581793726223,0.0756005542614413
11.328392,25.711990536480133,0.0750994375702389
11.332532,25.70986153828426,0.0746017263968857
11.336676,25.708862624438808,0.0741126379785719
11.340812,25.70630214431873,0.0736352032317139
11.344948000000002,25.7020693730241,0.0731710637470469
11.349084,25.69638576035478,0.0727163429758305
11.353224,25.691721507135934,0.0722718694510255
11.357364,25.696926639542227,0.0718187779679488
11.361504,25.705842782024035,0.0713740790844551
11.365640000000004,25.72496048483077,0.0709156703011494
11.369776000000002,25.74643766356274,0.0704606178634526
11.373908,25.771625852370228,0.070013724253487
11.378044000000004,25.799849284178084,0.069573022153968
11.382184000000002,25.824495266161428,0.0691484753594161
11.38632,25.85038205739512,0.0687314598892203
11.39046,25.88714617602889,0.0683044609885247
11.394592000000005,25.928285654137788,0.067876133604903
11.39872,25.967077073996983,0.0674590808810602
11.402848000000002,26.006433536031384,0.067047224189026
11.406940000000002,26.05027608244085,0.0666332097893218
11.411072,26.09490512082539,0.0662208561898033
11.415216,26.138747667234856,0.0658085861540706
11.419356,26.181914446569177,0.0653946770359187
11.423440000000005,26.228105051228336,0.0649753210227799
11.427580000000004,26.273619888812355,0.0645540379749054
11.431716000000002,26.323277218396097,0.0641234307606642
11.435868000000005,26.375504056029403,0.0636818633944967
11.440008000000002,26.41752933333777,0.0632532954847978
11.444152000000004,26.45752730942073,0.0628182995629971
11.448236,26.49192053445373,0.0623915727578865
11.452388000000004,26.52182767511168,0.0619679387120607
11.45652,26.552509890069167,0.0615342983213066
11.460652,26.57993541222642,0.0610986614334031
11.46478,26.611159834008056,0.0606460284228652
11.468916,26.639803330064595,0.0601936114774729
11.473048000000002,26.665079408420947,0.0597417524523808
11.477192000000002,26.68878250282715,0.0592884887231365
11.481272,26.709339629333044,0.0588307004076498
11.485408,26.729442438563662,0.0583676023662586
11.489540000000002,26.744383396344084,0.057904439542717
11.493672,26.76066447059926,0.0574352222551817
11.497808000000004,26.7797479203794,0.0569644068734056
11.501892000000002,26.799839311934484,0.056492422262923
11.506020000000005,26.81522316931464,0.0560258477522638
11.510156000000002,26.831393518669884,0.0555608358844525
11.514304000000005,26.84173766717531,0.0551042652470347
11.518444000000002,26.847152831705937,0.0546558628785176
11.522572,26.85223582153676,0.0542114460304123
11.526708000000005,26.853962811342942,0.0537772680450356
11.530836,26.84975287539937,0.0533515414396126
11.534976,26.84610798163101,0.0529296414340163
11.53912,26.83339161188813,0.0525230428148435
11.54326,26.818548633695425,0.052120937223376
11.5474,26.794302004828392,0.0517382043906878
11.551536000000002,26.76692082573658,0.0513611285887238
11.555680000000002,26.726657853370337,0.0510019619274017
11.559820000000002,26.676315463254628,0.0506583813679515
11.563964000000002,26.621387681539456,0.0503278442213131
11.5681,26.55828564072477,0.0500110255232418
11.572236,26.490487483410693,0.0497089525149784
