Time,Force,Position
7.053147999999997,21.199326053372623,0.1433862566483071
7.057283999999999,21.30971798202568,0.142922583346365
7.061427999999999,21.404013643450792,0.1424605300551572
7.065567999999999,21.48581332282354,0.141995752339778
7.069711999999999,21.56005742179425,0.1415142159229473
7.073843999999998,21.623512082913766,0.1410522336894706
7.077979999999997,21.68020907328185,0.1405855315915949
7.082059999999999,21.733637953174167,0.1401159284857076
7.086143999999997,21.783023648291163,0.1396578152403936
7.09028,21.829606967883187,0.1392153901377592
7.094415999999999,21.87372008665005,0.1387811966398538
7.098551999999998,21.918398247592112,0.1383528227390234
7.102691999999998,21.958479599259185,0.1379469383108381
7.106827999999997,22.0019169509509,0.137518044407526
7.110955999999998,22.04231905964224,0.1370942809232584
7.115047999999998,22.08170180888311,0.13666366576388
7.1191359999999975,22.12141673282377,0.136228263082746
7.12322,22.157554206939928,0.1358234567440372
7.127355999999999,22.19527608268177,0.1354327084651675
7.131487999999997,22.23413946044956,0.1350651351944354
7.135623999999996,22.27839755714295,0.1346917764195576
7.139759999999999,22.32770678038661,0.1343056855530982
7.143895999999998,22.37578661205545,0.1339321148444871
7.148035999999998,22.42296922684928,0.1335632243409046
7.152123999999997,22.46600934964339,0.1332209874657246
7.156215999999997,22.516559382137395,0.1328460526930129
7.1603039999999964,22.56823949898181,0.1324797273154023
7.164439999999999,22.61667434070153,0.1321362547529257
7.168527999999999,22.672508367221205,0.1317638310131055
7.1726639999999975,22.730247552390843,0.1313839318142675
7.176791999999999,22.793137171335147,0.1309767965439215
7.180919999999997,22.85321299707895,0.1305695627529889
7.185055999999999,22.915969055772244,0.1301394771169968
7.189191999999999,22.971093062190175,0.1297314690673401
7.1933279999999975,23.02329255050768,0.1293240413234029
7.197467999999997,23.07514844644983,0.1289110483015139
7.201611999999997,23.12307188251661,0.1285045715824917
7.205751999999997,23.171648250307463,0.1280716238143658
7.209843999999997,23.218075174297415,0.1276250994476208
7.213932,23.26369277096124,0.1271534691275415
7.218019999999999,23.30637443184909,0.1266688750503118
7.222171999999997,23.342985606736185,0.1261888809112256
7.226315999999997,23.376660845847315,0.1256954459316007
7.230463999999998,23.411886233557528,0.125173792149534
7.234607999999998,23.449448261841905,0.1246227922468377
7.238688,23.47982113745066,0.1240835495281063
7.24278,23.50760166965878,0.1235384976389457
7.246872,23.53671090066612,0.1229691133733398
7.251003999999998,23.556282920748128,0.1224270671196679
7.255087999999997,23.57505703117953,0.1218733080688672
7.2591759999999965,23.588890739960604,0.1213302798098534
7.263263999999999,23.60338879814128,0.120775804287545
7.267355999999999,23.61955914749652,0.1202059179040488
7.271443999999999,23.63886404707653,0.1196193612182067
7.275535999999999,23.66320865553128,0.1190098464336126
7.279667999999997,23.684075121385916,0.1184099277369406
7.283752,23.70538448684028,0.1178020402025914
7.287835999999999,23.727812518969536,0.1171886151344442
7.291931999999999,23.74934333422378,0.1165790143159476
7.296028,23.76426145665313,0.1159941096059181
7.30012,23.78141691243225,0.1153972014567033
7.304207999999999,23.80249341041122,0.1147847272181932
7.308295999999999,23.82615083411529,0.1141679503220557
7.3123879999999986,23.847460199569664,0.1135678705778547
7.316475999999998,23.865069972624056,0.11298070320702
7.320507999999997,23.88817377182845,0.1123780471374283
7.324643999999999,23.91430139635769,0.1117637601677417
7.328791999999996,23.94132623776194,0.1111489324061137
7.332879999999999,23.97227212136604,0.1105188741242492
7.336975999999996,24.00602038049511,0.1098823512240962
7.341003999999998,24.041341623574333,0.1092468673988592
7.345091999999997,24.072631099553767,0.1086292685599539
7.349135999999998,24.10067530040849,0.1080304811455748
7.353235999999999,24.13163260168813,0.1074228400532744
7.357271999999998,24.162479178067827,0.106819927910315
7.361307999999997,24.196460304672303,0.1062034888756373
7.365347999999997,24.23335453170168,0.1055782429278606
7.369435999999997,24.274280525830843,0.1049399098879314
7.373575999999996,24.31396571070966,0.1042971500426461
7.377707999999998,24.361603704888115,0.1036250826949016
7.381795999999998,24.40374767291656,0.1029687580120373
7.385935999999997,24.44454010679473,0.1023111767739141
7.390075999999997,24.481067906097696,0.1016610943683113
7.394163999999996,24.52049738815005,0.1009898958647945
7.398247999999999,24.56339359512697,0.1003008065372601
7.402335999999998,24.60045218357856,0.099619645222442
7.406415999999997,24.633246137454957,0.0989460673741013
7.4105079999999965,24.661664731856224,0.0982810327958584
7.414651999999997,24.68895324190708,0.0976096530812955
7.418683999999999,24.709174741857776,0.0969523029269915
7.422767999999998,24.72266140640812,0.0963018046003463
7.426851999999997,24.7395040709831,0.0956345926700709
7.43094,24.75398725963285,0.0949670958144828
7.4350239999999985,24.76678673943252,0.0943031598793532
7.439111999999998,24.774313642882053,0.0936485016394991
7.443199999999997,24.77982466278169,0.0930017052206563
7.447287999999997,24.781303915581542,0.0923696962919168
7.451371999999999,24.77191725865685,0.0917730007398272
7.455463999999999,24.766573786507475,0.09117610627933
7.459599999999998,24.758550081408597,0.0905984601577821
7.463739999999998,24.75815842858509,0.0900144305936645
7.467879999999997,24.75576230988722,0.0894506370164933
7.472023999999998,24.757409375964677,0.088886665661139
7.476115999999997,24.7551468175178,0.088348202410526
7.480255999999997,24.74998257632155,0.0878314579489949
7.484387999999999,24.747410678525934,0.0873251853497157
7.488539999999997,24.74877124060572,0.0868213022711637
7.492663999999998,24.755182929235755,0.0863146668492323
7.496799999999997,24.762392527516408,0.0858221344804628
7.500931999999999,24.772637368797437,0.0853328838344862
7.505067999999998,24.79062498725376,0.0848367575151914
7.509211999999998,24.808956198085426,0.0843493249700085
7.513351999999998,24.832449260367287,0.0838582594230952
7.517487999999997,24.852697047524444,0.0833808201561672
7.521631999999997,24.876877294556984,0.0829064181184261
7.525767999999999,24.90072536688972,0.0824378152155426
7.529903999999998,24.92636787297248,0.0819670251212639
7.534043999999998,24.96030678073021,0.0814814772857813
7.538179999999997,24.99021392138816,0.0810093404458354
7.542316,25.018326628296087,0.0805403702514503
7.546451999999999,25.03904015040405,0.0800856200483714
7.5505799999999965,25.0617695560619,0.079625423823059
7.5547119999999985,25.08349101994481,0.0791693357109581
7.5588039999999985,25.106220425602658,0.0787106895388089
7.562943999999998,25.13365736543544,0.0782439660144353
7.567079999999997,25.16232369684304,0.0777719925105883
7.571216,25.18505310250089,0.0773160316131705
7.575347999999998,25.20318569888375,0.0768680311529065
7.579431999999997,25.22199406234175,0.0764233728924604
7.583568,25.242375409749908,0.0759809226402388
7.587707999999999,25.260408698908364,0.0755504660248162
7.591791999999998,25.27990424711704,0.0751243366859264
7.595931999999998,25.296941012176088,0.0747117375662525
7.600027999999998,25.315440036285345,0.0743024779740695
7.604123999999999,25.33203390174465,0.0738975902260661
7.608211999999998,25.350090026254176,0.0734963787383848
7.612307999999999,25.37050562668893,0.0730984546559876
7.616399999999999,25.387454502199105,0.0727161914870427
7.620495999999999,25.40788152030939,0.0723326803543027
7.624635999999999,25.432573172994864,0.0719490378264809
7.628727999999999,25.46332389400556,0.0715632867722917
7.632823999999999,25.4956475989664,0.0711804310964508
7.636915999999999,25.527639129227435,0.0708035843179609
7.641011999999996,25.559974251863817,0.0704350909495193
7.645103999999996,25.589064099375477,0.0700788353897813
7.649243999999999,25.6177110472874,0.0697304670180001
7.653331999999999,25.653867904899226,0.069371432863836
7.657419999999998,25.694965164161378,0.0690153845918244
7.661511999999998,25.73516520654853,0.0686610787386881
7.665651999999998,25.77715968268569,0.0683067329154108
7.669735999999997,25.821170042372756,0.0679487729702972
7.673883999999997,25.864172460284863,0.0675945302344808
7.677979999999998,25.911206645296765,0.0672322880702764
7.6821119999999965,25.9629483644836,0.0668646969117337
7.686247999999999,26.01569802544538,0.0664957497384598
7.690331999999998,26.072258003707077,0.0661224967383102
7.694467999999997,26.12803148999369,0.0657498503908216
7.698604,26.187382426104826,0.0653633989480632
7.702748,26.24314449471591,0.0649806007524873
7.706883999999999,26.29442047895194,0.0646020931503026
7.711019999999998,26.341542553512703,0.0642228740259696
7.715152,26.388099585898274,0.0638408865696658
7.719291999999999,26.43779116850861,0.0634522123397044
7.723427999999998,26.490162984068466,0.0630508866349607
7.727563999999997,26.543088424127976,0.0626425947600854
7.731703999999997,26.5966782135871,0.0622262025403732
7.7358319999999985,26.647908527120997,0.0618085898789114
7.739959999999996,26.70002463985437,0.0613803290808467
7.744087999999998,26.75493171043718,0.0609385022859036
7.748215999999999,26.80669281311968,0.0604937633538493
7.752347999999998,26.857102381651902,0.0600452417560528
7.75648,26.908287024483663,0.0595872699262855
7.760623999999996,26.95330187409028,0.059132042237797
7.764751999999998,26.99416281402164,0.0586757374435553
7.768883999999996,27.037261087302767,0.0582139204333032
7.773023999999999,27.07552968383349,0.0577480296642173
7.777155999999998,27.112336021314,0.0572792593374014
7.781299999999998,27.14555349129446,0.0568130056643826
7.785435999999997,27.17921386087466,0.0563408954396321
7.789591999999999,27.21163342120452,0.055861702443206
7.793723999999997,27.24326648955929,0.0553814643963577
7.797855999999999,27.268508314889047,0.0549049039402349
7.802,27.28455652166881,0.0544342861904291
7.806131999999998,27.291189660098727,0.0539721708016843
7.810275999999998,27.2922180474787,0.0535142112360464
7.814363999999998,27.283499191809007,0.0530685572452957
7.818499999999997,27.263570834039434,0.0526304448028567
7.822591999999997,27.230084915920287,0.0522080041795269
7.826723999999999,27.18181204587674,0.0518053246068295
7.830859999999998,27.121997499033505,0.0514134514125266
7.834992,27.04750672516581,0.0510388161034905
