Time,Force,Position
17.069268,8.90731802932868,0.1588512534076309
17.073412,9.077405814104894,0.1583656313531985
17.077548,9.233291072627594,0.157845909738278
17.081692,9.372736471547016,0.1573324400644561
17.085832,9.496982820113502,0.1568442310731599
17.089968,9.612986403527284,0.1562866894074387
17.094096,9.712794412488725,0.1557931912178725
17.098232,9.802798090022833,0.1552791296392772
17.102368,9.883451753404888,0.1547547357075188
17.106507999999998,9.957447053259925,0.1541878465086049
17.110644,10.019977148188612,0.1536773853925644
17.114784,10.079571307341327,0.1531493128539309
17.11892,10.129849705368589,0.1527116497959358
17.123056,10.176871410595608,0.1522987928640874
17.127192,10.225454682097247,0.1518495292895956
17.131336,10.264279292873692,0.1515011644840896
17.135472,10.2952504015749,0.1512279927254853
17.139612,10.326885859675714,0.1509258738480283
17.143743999999998,10.35504317517642,0.1506574469647995
17.147872,10.38678935817717,0.1503529053545941
17.152003999999998,10.41159067365323,0.1501455191934495
17.156144,10.436834888729027,0.1499201900006567
17.16028,10.458158061604976,0.1497473307167708
17.16442,10.479481234480922,0.1495751357791125
17.16856,10.4980020318319,0.1494360102014237
17.172648,10.516744278982744,0.1492891090532349
17.17678,10.535486526133592,0.1491419993378812
17.180932,10.553553006209295,0.1489950267861431
17.185068,10.571730211184931,0.1488441030766475
17.189216,10.59091535793552,0.1486814213789438
17.193352,10.61491876376097,0.1484619303411041
17.197488,10.635333302086371,0.1482777055715257
17.201624,10.654961348436698,0.1480972348510399
17.20576,10.676937453036722,0.147876806342825
17.209896,10.697008398986789,0.1476800349941081
17.214032,10.720889662236768,0.1474393945581676
17.218168,10.752845877361857,0.1471252407654217
17.222296,10.78256475913718,0.1468482502634788
17.226436,10.811497148937429,0.1465744092928256
17.230576,10.83818078771238,0.1463076482068298
17.234716,10.867323209636965,0.1459956156199618
17.238796,10.89197954718649,0.145725624559071
17.24294,10.91607084256081,0.1454488801104337
17.247072,10.94217802148502,0.1451482048069016
17.251208,10.967720158234023,0.1448419104038024
17.2553,10.989784152382915,0.144565254731847
17.259428,11.01465052205678,0.1442608547530428
17.263552,11.036714516205672,0.1439857510014429
17.267648,11.05698407660454,0.1437273558970525
17.271776,11.078040128978486,0.1434686088588589
17.275908,11.095961631127658,0.1432531121406514
17.280044,11.117693450576745,0.1429986372762045
17.28418,11.144022079300823,0.1427029107333055
17.288276,11.165310999150174,0.1424690786311449
17.292364,11.184694760349563,0.1422557634865192
17.29646,11.20677017217399,0.1420211326825059
17.300556,11.222343616073465,0.1418499992032107
17.304648,11.242403144347996,0.1416423835962653
17.308744,11.26482214854776,0.1414261299942315
17.31284,11.289157729073011,0.1412201119199159
17.316936,11.317536494373588,0.1409977141870998
17.321068,11.349847719549546,0.140761205808042
17.325208,11.386423579300692,0.1404981476324007
17.329296,11.422777989251973,0.1402469929010421
17.333388,11.461381150228547,0.1399932361908017
17.337528,11.50032790358046,0.1397547929139247
17.341664,11.540282598707318,0.1395079289765364
17.345807999999998,11.583936886234156,0.139229197622552
17.349904,11.630282824386034,0.1389306237006537
17.354044,11.67281844523799,0.1386710737960371
17.35808,11.71837789141479,0.1383785019168486
17.36218,11.761024237166684,0.1381183911855762
17.366319999999998,11.797168614993623,0.1379167746113235
17.370408,11.837455484820287,0.1376655845570296
17.37456,11.87964751329691,0.1373969150401548
17.3787,11.918250674273484,0.1371575217664279
17.382828,11.962790760999802,0.1368574226545598
17.386912,12.002058271375986,0.1365955041416781
17.391048,12.04457105687688,0.1362952192874285
17.395184,12.085953758027356,0.1359842923968654
17.39932,12.121953157927765,0.1357155444108463
17.40346,12.15727679075303,0.1354463445946179
17.407595999999998,12.190916714728209,0.135188217203236
17.411732,12.224556638703383,0.1349323051860846
17.415864,12.25841801247843,0.1346700127590032
17.420004,12.296311153353264,0.1343676201484255
17.424136,12.32826736847835,0.1341244378325469
17.428276,12.359780684003695,0.1338994460348576
17.432416,12.390961824829244,0.1336882626612275
17.436556,12.425510383354966,0.1334609598532735
17.440684,12.460623984055896,0.1332418175076289
17.444816,12.496191902032098,0.1330331151069857
17.448944,12.538937555008394,0.1327761846444008
17.453088,12.582026800360026,0.1325349995985103
17.457232,12.625902537686734,0.1322934684055622
17.461376,12.673145692713623,0.1320368991532206
17.46552,12.717143572615798,0.1318211061503054
17.469612,12.766524753768048,0.1315709982202481
17.473755999999998,12.813336426870729,0.1313631918831304
17.477847999999998,12.863404792773654,0.1311460331686592
17.481991999999998,12.91717275107656,0.1309030542409552
17.486136,12.970043492504454,0.1306667365850839
17.490276,13.02470866768237,0.1304212986833764
17.494416,13.078365901085345,0.1301872860979075
17.498552,13.12911003406341,0.1299788729709227
17.502692,13.175933124841624,0.1298065258367273
17.506828,13.230709024919475,0.129563627675465
17.510964,13.284133390847044,0.1293179588713739
17.515044,13.337214164399274,0.1290607021116269
17.519184,13.389054128701154,0.1287978413652675
17.523272,13.440329050827833,0.1285317676133646
17.527411999999998,13.494173481004072,0.1282308433589819
17.531496,13.544539768580202,0.12795089133755
17.535632,13.596246172631083,0.1276532097439492
17.539768,13.650079185131792,0.1273373071612595
17.543904,13.705473763907124,0.126998393293921
17.547984,13.76299495113228,0.126640650346393
17.552072,13.819840371282298,0.1262851881661383
17.556204,13.87746086573186,0.1259070882682047
17.560284,13.930927450506164,0.125545926402428
17.564367999999998,13.982821051330315,0.1251905180532006
17.568456,14.038070652179114,0.1248017181666207
17.572536,14.090063560227671,0.124424302509785
17.576616,14.143618034550846,0.1240236885346244
17.580756,14.201536450673611,0.1235814300626157
17.584832,14.25911127442104,0.1231271959034048
17.588968,14.3113027969184,0.1227056409047712
17.593104,14.364834435890511,0.1222677483343534
17.59724,14.415220106962312,0.121836263151672
17.601376,14.462459810133806,0.1214110483305732
17.605512,14.50397261967989,0.1210020571037388
17.6096,14.540545027575645,0.1206093380581266
17.613692,14.575422308945775,0.1202010251121551
17.617828,14.606588580240397,0.1197938256782842
17.621956,14.63113074103459,0.1194076188464105
17.626048,14.649835283303448,0.1190413235268506
17.630176,14.662247889771685,0.1186844082946914
17.634268,14.664226068439588,0.1183703535647165
17.63836,14.664066220982129,0.1180535933822186
17.642452,14.666254431774364,0.1177117844381793
17.646536,14.667312558216189,0.1173592700020886
17.650624,14.66679770070786,0.1170103404601099
17.65466,14.669638843224174,0.1166296090452048
17.658748,14.670685551990465,0.1162586163458715
17.662836,14.670270001706536,0.1158878073342667
17.66692,14.671083842997422,0.1155034776279924
17.671056,14.67402429273814,0.1151018687253609
17.675144,14.680885784678708,0.1146768614785485
17.679275999999998,14.693019852969414,0.1142321899977998
17.683364,14.710315772710318,0.1137713904803467
17.687492,14.73658386120134,0.1132727683043736
17.691624,14.767116584267557,0.1127625465659047
17.695716,14.801581767209152,0.1122515223877645
17.6998,14.840311584725942,0.1117304996509779
17.703892,14.889132237667727,0.1111655966237774
17.707984,14.94210680028477,0.1105938113827644
17.712068,15.002602690277245,0.1100068601853405
17.716196,15.076778283194765,0.109359586058542
17.720323999999998,15.151740368087363,0.108715371629479
17.72446,15.228718336529855,0.1080642080091506
17.728596,15.310293114247338,0.1073983870795666
17.732736,15.391867891964822,0.1067378410877511
17.736876,15.47131606123248,0.106098928633252
17.741016,15.549412696349853,0.1054574171708235
17.7451,15.6257148977172,0.1048269933375894
17.749244,15.70357866535917,0.1041799749715545
17.753276,15.783003999275763,0.1035176653232097
17.757368,15.858164698617166,0.1028728807501104
17.7614,15.932195313608153,0.1022225876132027
17.765492,16.007222452698553,0.1015527601357639
17.769628,16.08111950743854,0.1008798746906827
17.773712,16.157475345328162,0.1001904492328132
17.777804,16.23270109886737,0.0994951834358382
17.781896,16.308480476906247,0.0987927101117127
17.786036,16.37686067014516,0.0981257115014849
17.790176,16.446802429658696,0.0974448270031079
17.79432,16.517629988371713,0.0967488449181618
17.79846,16.588113954709392,0.0960510465445325
17.802608,16.661511021471973,0.0953448822648055
17.806696,16.73412159625948,0.0946451412560889
17.810832,16.805834954171974,0.0939551949138054
17.814968,16.87788048678427,0.0932616718240023
17.819108,16.95137686077126,0.092556248343194
17.823236,17.029359319133302,0.0918431599534209
17.827372,17.111373544595132,0.0911151356938975
17.831516,17.196976637557007,0.0903859956024814
17.835656,17.28146106384401,0.0896708506000767
17.839792,17.36415105638098,0.0889636896590186
17.843928,17.446841048917953,0.0882621830870196
17.848064,17.525499274355138,0.0875853716113251
17.852204,17.599449965617396,0.0869291885448651
17.856292,17.669025297404534,0.0862862945575824
17.860436,17.737138370141444,0.0856437828357775
17.864572,17.798970924753274,0.0850186407895177
17.868704,17.859451945214822,0.0843886747485217
17.872792,17.911747288901324,0.0837809300678111
17.876928,17.95507046383771,0.083194822415191
17.881052,17.990207961999054,0.0826312012257417
17.885144,18.018389174960173,0.0820787439112072
17.889228,18.041408536471096,0.0815335659783545
17.893264,18.056685120806712,0.0809976951098877
17.8973,18.068815737242023,0.0804599421138238
17.901388,18.081167803477204,0.0799195131874772
17.905524,18.092279060462037,0.0793727568493111
17.909616,18.09778556639692,0.0788422309393261
17.913752,18.09499567065684,0.0783324442102107
17.917888,18.08962484919165,0.0778256319583109
17.922016,18.08626991127636,0.0773114138911546
17.926104,18.08324714806087,0.0767915422939044
17.930191999999998,18.076967692045137,0.0762696958846904
17.934283999999998,18.07281484447924,0.0757382452609534
17.938368,18.06664611336344,0.0752145138557998
17.94246,18.0623825408976,0.0746867960594255
17.946559999999998,18.062937227506627,0.0741456096183127
17.950644,18.065507797665543,0.0735972775844019
17.954732,18.07939859482428,0.0730231970574406
17.958824,18.101585793657996,0.0724342644135508
17.962903999999998,18.127804759591488,0.0718319982833583
17.966992,18.16287375169964,0.0712048282116276
17.971072,18.19984790245775,0.0705737423668452
17.975108,18.243434746040744,0.0699289885238353
17.979192,18.289602515348843,0.0692855527556361
17.98328,18.332292142056826,0.068646643655498
17.987364,18.367582583964843,0.0680217799521814
17.991444,18.40835563434733,0.0673735119543826
17.995524,18.45158746787946,0.0667102328226483
17.999556,18.495372925911266,0.0660371083228179
18.00364,18.53971200844273,0.0653557917141901
18.00772,18.580351498574228,0.0646828874671647
18.0118,18.627825131330475,0.0639948213041429
18.015888,18.673725780136568,0.0633065513574801
18.019976,18.72129872011722,0.0626029476126889
18.02406,18.760685983322823,0.0619093196841738
18.028148,18.79300623642828,0.0612203263042205
18.032232,18.81937814610845,0.0605291570413022
18.036364,18.8241061258884,0.059854636203717
18.0405,18.81268420191814,0.0591892505161566
18.044636,18.7848909243978,0.0585346792244957
18.048768,18.73277348402773,0.0579107212816333
