Time,Force,Position
10.353516,6.6148668250570735,0.159997613645259
10.3576,6.785443180135159,0.159468796087369
10.361736,6.941629812186458,0.1590511918953219
10.36582,7.093185381936164,0.1585999371903702
10.369955999999998,7.242912264909248,0.1580620097452517
10.374035999999998,7.382735509230603,0.1575536395788959
10.378172,7.51411737395045,0.1570752818159801
10.382252,7.634587658243619,0.1566510832505441
10.386332,7.743703462510375,0.1563106411676375
10.390412,7.846626638200917,0.1559740272452808
10.394492,7.946835327915356,0.1555986611261932
10.398624,8.038060431204144,0.1553175277454747
10.40276,8.130049191116944,0.1549490430664734
10.406896,8.21428375617891,0.1546409415802601
10.411036,8.288748242840146,0.1544287198274272
10.415176,8.357806592900245,0.1542123479640171
10.419312,8.423375382684696,0.1539971487109184
10.423444,8.486019654368711,0.1537996223382457
10.427524,8.545529375827952,0.1536649447900881
10.431612,8.614232715837185,0.1534104846961687
10.435695999999998,8.686192748646656,0.1531323195406885
10.43978,8.754010289456405,0.1529358614412393
10.443867999999998,8.827764756015899,0.1526446262583285
10.447996,8.89736531290014,0.1523976402185057
10.452132,8.960353176959494,0.1522486337175126
10.456268,9.031072400518616,0.1519964587643736
10.460404,9.101005132102658,0.1517509573319459
10.464543999999998,9.174748180986622,0.1514589884642327
10.46868,9.248380504970648,0.1511728812524689
10.472768,9.325147379179452,0.1508412356997512
10.476896,9.402135703188126,0.1505068905955879
10.480984,9.483598693896324,0.1500946501733374
10.485108,9.564950959704587,0.1496966304370523
10.489192,9.650113542812768,0.1492565602467624
10.493227999999998,9.741888818745837,0.1487437161758149
10.497364,9.837252962178953,0.1482039109371797
10.501504,9.933625047387013,0.147651310764962
10.505632,10.028091973945116,0.1471292491094646
10.509764,10.121871715752542,0.1465752310007659
10.513891999999998,10.208916622159617,0.1460852453432772
10.51798,10.293147735366189,0.1455994737806002
10.522116,10.37467578027219,0.145107632883006
10.52626,10.452160640402871,0.144646110296279
10.530404,10.526278082833375,0.1442097510285706
10.534548,10.597803181863249,0.1437607169105129
10.538692,10.658561678392978,0.1434218645248621
10.542776,10.717514323497149,0.1430704292182827
10.546924,10.772313058926068,0.1427511898661003
10.551011999999998,10.829116260229346,0.1423783565468094
10.555152,10.880757610082425,0.1420495637993587
10.559296,10.927237108485302,0.1417620699046335
10.563436,10.965530930113138,0.1415535469947723
10.567571999999998,10.997311366140488,0.1413809459634219
10.571708,11.024372850317372,0.1412298807371234
10.57998,11.048211894720618,0.1411873983144417
10.58406,11.058104115696814,0.141162041134203
10.588188,11.069447178047696,0.1411062133790151
10.592268,11.079671573723695,0.1410675745406305
10.5964,11.089785244499762,0.1410339274694752
10.600544,11.100231089975631,0.1409868645768438
10.604679999999998,11.112692819001396,0.1409158028541358
10.608808,11.125375997827028,0.1408361255289695
10.612944,11.137604859377388,0.1407452768706477
10.617083999999998,11.151849604477643,0.1406304271428937
10.621232,11.166205074477832,0.1405103868889507
10.625368,11.1813470364531,0.1403881200623249
10.629496,11.19592395625316,0.1402602175828725
10.633628,11.207255600928509,0.1401782216220817
10.637756,11.217911478528716,0.140094615023113
10.641888,11.228899530828723,0.1399973084300478
10.645972,11.248848334203322,0.139799043741732
10.650064,11.274180438827988,0.1395577288718986
10.654152,11.301196252302743,0.1393082642838951
10.65828,11.336840642152282,0.138971625999553
10.662412,11.374500915551714,0.1386115466565916
10.666548,11.406556437901203,0.1383046618983972
10.67064,11.436141759425528,0.13801301967059
10.674779999999998,11.465162038774649,0.1377153683637673
10.678868,11.491712117298595,0.1374305034184325
10.683004,11.516246312272656,0.1371696922426707
10.687092,11.54369360767162,0.1368820755872663
10.69118,11.570243686195573,0.1366028165111126
10.695268,11.600271907319634,0.1363011974946903
10.699352,11.630078678643828,0.1360094503597067
10.703436,11.664814433942825,0.1356674947686701
10.707576,11.69707998841665,0.1353380761068062
10.711664,11.727440384240518,0.1350270957676002
10.7157,11.761267504988966,0.1346679919175141
10.719784,11.795094625737413,0.134309206452528
10.723928,11.830040413160743,0.1339361454625389
10.728012,11.854673915359204,0.1336560009863973
10.732152,11.875264232782344,0.1333932149974822
10.736236,11.89147919073036,0.133159655473408
10.740324,11.900627138578216,0.1329750602610883
10.744408,11.90820210247592,0.1327951613827191
10.7485,11.919919558373348,0.1325680008651398
10.752584,11.92962113072088,0.1323626199988416
10.756668,11.939544152868278,0.1321489265214074
10.760808,11.951483058565572,0.1319140035384444
10.764892,11.965770022512563,0.1316457830650455
10.768976,11.972547076759655,0.1314422307770724
10.773112,11.976964655081517,0.1312451375730878
10.777252,11.982943799678,0.1310179022185238
10.781339999999998,11.9901523358493,0.1307725563141072
10.785428,11.994669221395563,0.1305471561938711
10.789464,12.001988482466796,0.1302994863710752
10.793544,12.015809711462987,0.1300021140966027
10.797628,12.02369401470943,0.1297627453185541
10.801716,12.032696984630752,0.1295094954829765
10.805803999999998,12.045288822052123,0.1292340788440084
10.8099,12.062366743848552,0.1289280594495007
10.813987999999998,12.084606517095184,0.12859635258686
10.818084,12.108419274291968,0.1282604505204012
10.822224,12.140085533563989,0.1278810409791763
10.826364,12.178818802936169,0.1274621666345627
10.830504,12.22013299803345,0.1270345662009202
10.834587999999998,12.265933277505791,0.1265801039027053
10.838672,12.317227583128137,0.1260921311215831
10.842812,12.372897248225604,0.1255851920697399
10.846896,12.429696997673492,0.125095399804218
10.85104,12.494903873696286,0.124546543442659
10.855132,12.56583764334449,0.1239816441580628
10.85922,12.634312629843066,0.1234569061955341
10.863359999999998,12.704249875391858,0.1229377999776661
10.8675,12.776435871965946,0.1224219766345757
10.871644,12.849973402690315,0.1219154633408338
10.87578,12.921495049864792,0.1214344986569255
10.879912,13.00142382361418,0.1208995652396907
10.884048,13.086625173713706,0.1203446726664614
10.888124,13.171715798913295,0.1198020169369656
10.892264,13.262411175162825,0.1192288563176335
10.896396,13.352209334537344,0.118668250948537
10.900544,13.447612244961803,0.1180760490089509
10.90468,13.540544954561096,0.1174987070710385
10.908767999999998,13.62899157978533,0.116952396627892
10.912904,13.716540988134552,0.1164183188320814
10.917032,13.800501528983729,0.1159057189458291
10.92116,13.881548969408,0.1154207998885637
10.92524,13.957999600557274,0.1149664790157031
10.929324,14.033098697556266,0.1145106493808451
10.933404,14.105506143930224,0.1140739525637845
10.937487999999998,14.177680722828775,0.1136261798596089
10.941567999999998,14.24940098445206,0.1131712528045905
10.9457,14.32268281234996,0.1126973866482211
10.949836,14.393040122147426,0.1122226670514796
10.953971999999998,14.46495899821951,0.1117288721628244
10.95812,14.533621181491352,0.1112443747418111
10.962256,14.594319137788023,0.1107966573651839
10.966392,14.649965967534428,0.1103675480231249
10.97052,14.700450945830632,0.109958023846005
10.974604,14.746671289551644,0.1095658876472763
10.978696,14.78862699869747,0.1091882597476197
10.982784,14.827436739942987,0.1088164073804776
10.986864,14.864673497238352,0.1084477582056451
10.991,14.89944005370855,0.1080847766423515
10.995128,14.93252290132866,0.1077284850326256
10.999212,14.972661341373398,0.1073273473821294
11.003291999999998,15.013131956117938,0.106919488090703
11.007424,15.056958570887124,0.1064845816864291
11.011516,15.101903852331192,0.1060426442004986
11.01564,15.147181308475064,0.1055946140383394
11.019732,15.19256948951887,0.105147773156199
11.02382,15.241435813162791,0.1046935571637857
11.027907999999998,15.286491819506791,0.1042623896368012
11.032,15.33581246042598,0.103823564131735
11.036092,15.38255217562007,0.1033953640694319
11.04022,15.43299148321414,0.1029537232581613
11.044312,15.492513684458268,0.1024805332708384
11.048452,15.555514028302506,0.1020014400741893
11.052587999999998,15.624008398296748,0.1015036178499906
11.056724,15.69328926026607,0.1010092681972384
11.06086,15.769747857235483,0.1004943055803942
11.064948,15.848565930130132,0.0999838274761507
11.069083999999998,15.932767304274847,0.0994607993376837
11.073228,16.02324919654465,0.0989209231870031
11.07732,16.11362036391451,0.0983872380382707
11.081464,16.198951822409647,0.0978886766501633
11.0856,16.28596698975487,0.0973924043785843
11.089752,16.37164204062534,0.0969151791800449
11.093884,16.46000874212084,0.0964351818164764
11.09802,16.54714605204153,0.0959700772253219
11.10216,16.632046028612457,0.09552539000889
11.106292,16.714475804358212,0.0950870360120235
11.110436,16.79881073875393,0.0946436321038085
11.114576,16.880786197224417,0.0942037425614218
11.118659999999998,16.96466681434486,0.0937602973544418
11.1228,17.04495856396526,0.0933300147879228
11.126888,17.117286086610484,0.0929234247848439
11.13102,17.187143408430543,0.0925223643184353
11.135148,17.253411862750557,0.092134148534434
11.139288,17.319004549995427,0.0917456954147553
11.143424,17.380664777364917,0.0913598116145681
11.147568,17.437273878184136,0.0909819887065777
11.1517,17.48771318577821,0.0906205241430917
11.155788,17.53590374234699,0.0902586790248548
11.15988,17.582632039865548,0.0898947376213985
11.163964,17.626890136558938,0.089533138884111
11.168056,17.666207831601998,0.0891761450134848
11.172144,17.703387500519696,0.088814161405443
11.176227999999998,17.732824392262092,0.0884651692251092
11.180316,17.76012325787913,0.0881104701319192
11.184452,17.788307922695644,0.0877367450248175
11.188588,17.81704621201183,0.0873520350245844
11.19268,17.844322242277805,0.0869654462940989
11.196808,17.871143955268504,0.0865723397865555
11.2009,17.891574425234182,0.0861965923044935
11.204984,17.91222634499973,0.0858163966325785
11.209116,17.935569915390314,0.0854312508760601
11.213208,17.96036432715559,0.0850336500395563
11.217304,17.983807204770578,0.0846305737321452
11.221384,18.00589854823528,0.0842225419457379
11.225516,18.02507679127508,0.0838261237046287
11.229608,18.04649236766464,0.0834169122553575
11.233692,18.067453626778928,0.083000164698779
11.237784,18.08213436776813,0.0825964412857744
11.241872,18.098155225232084,0.0821819701334718
11.245956,18.114729707195718,0.0817553573943837
11.250048,18.130296247384404,0.0813329903989816
11.254128,18.14496557069808,0.080912847839045
11.25822,18.16142932776177,0.0804891915463116
11.262308,18.17576647637564,0.0800760397845618
11.266388,18.185174641014708,0.0796815326008307
11.27048,18.18875660480397,0.0793068748211845
11.274572,18.18785248421817,0.0789401496305828
11.27866,18.182916596532586,0.0785896508385902
11.282752,18.182909692821795,0.0782214884441416
11.28684,18.18312423891088,0.0778487626713455
11.290928,18.179074150424768,0.0774789304681006
11.29502,18.16908713618892,0.0771307267918516
11.299104,18.15787073037825,0.0767910018587175
11.303192,18.144416991217813,0.0764638068959889
11.307332,18.12625571788245,0.0761478422379025
11.311419999999998,18.105070619222257,0.0758433539391028
11.315512,18.07873508678739,0.0755597351280749
11.3196,18.05688563872757,0.0752683348461157
