Time,Force,Position
10.791956,8.71659976539983,0.1575618432632213
10.796044000000002,8.87230924482479,0.157157828404441
10.800131999999998,9.006982055371477,0.156838196954489
10.804223999999998,9.12924677341467,0.1564561800637323
10.808312,9.24078710780446,0.1559823975990099
10.812399999999997,9.335776857691036,0.1555107511857144
10.816491999999997,9.41490320782507,0.1550892966889042
10.820524,9.47739108390702,0.1547495592548196
10.824616,9.523916253012027,0.154491549574863
10.828708,9.558632624815347,0.1542727781477564
10.8328,9.585129066817029,0.1540517723255895
10.836888000000002,9.598587319942204,0.1538969358174168
10.906768,9.526192353353135,0.1538566855011629
10.927464,9.598453759691209,0.1538369219210396
10.931612,9.621960629394646,0.1537802609213397
10.935747999999997,9.649842858573209,0.1536809664789219
10.939884,9.682543346826638,0.1535168145088819
10.944015999999998,9.716141051955075,0.153342047424912
10.948144,9.751643915733474,0.1531443050338364
10.952275999999998,9.786814604812069,0.1529635482117893
10.956423999999998,9.82130952681552,0.1527831867715139
10.960507999999995,9.85714456529372,0.1525755373836425
10.964647999999997,9.896003429096764,0.1523250451914163
10.968787999999996,9.939004784899526,0.1520089233033948
10.972924,9.983678431876848,0.1516475319878165
10.977047999999996,10.029802920228851,0.1512554130704121
10.981187999999996,10.073678657555565,0.1508699141630378
10.985335999999997,10.111384601657123,0.150549189945212
10.989463999999998,10.152225095983464,0.1501829518861219
10.9936,10.190816839284505,0.1498262154459894
10.997728000000002,10.23085942396023,0.1494378245928538
11.00186,10.269218299785868,0.1490624583452394
11.005988000000002,10.310146683661074,0.1486353390004019
11.010080000000002,10.350399300461138,0.1482095688148495
11.014215999999998,10.386620150161416,0.1478426516818355
11.018355999999995,10.42014934923666,0.1475042669263609
11.022495999999997,10.455472982061924,0.147153163911417
11.026635999999996,10.496179916137262,0.1467537961524904
11.030772,10.535768183537716,0.1463757118468855
11.034860000000002,10.57423778426329,0.1460153337760205
11.039,10.61663984486425,0.1456410009849942
11.043143999999998,10.655464455640695,0.1453333000909525
11.047292,10.694632658792475,0.145044915292644
11.051428,10.73235002056957,0.1447896671545984
11.055515999999995,10.77119746669708,0.144549581665179
11.059652,10.808483346549966,0.1443494141240248
11.063788000000002,10.847907252528216,0.1441483592158823
11.06792,10.889358459731891,0.1439522962389562
11.072052,10.92935882556088,0.1437906904987091
11.076195999999996,10.971607942415169,0.1436258476459312
11.080280000000002,11.014532826344594,0.1434659860610118
11.084424,11.063959678198977,0.1432448593438592
11.08856,11.11473806420364,0.1430310373264135
11.092692,11.168318825733277,0.1427931405903502
11.096828000000002,11.224136920612672,0.1425229247710978
11.100963999999998,11.283765332791988,0.1422164466741453
11.105103999999995,11.34249652809629,0.1419230999680855
11.109187999999996,11.39774958080048,0.1416592187713296
11.113335999999997,11.454010575279616,0.1413856308298743
11.117463999999998,11.514192611958608,0.1410706048537223
11.121595999999997,11.570552913662148,0.140768776628654
11.125687999999997,11.628806956340112,0.1404209226080675
11.129776,11.68671740664274,0.1400617821647378
11.133864000000004,11.748205306769885,0.1396489500011982
11.137991999999995,11.810357556296632,0.1392148986883579
11.14208,11.872276938347982,0.1387647209828558
11.146172,11.938892436898726,0.1382495201289963
11.150303999999998,12.008077443499038,0.1376959827464171
11.154395999999998,12.077140307523884,0.137123100672362
11.158484,12.14697824584827,0.1365273594846459
11.162576,12.214124533547626,0.1359556775656274
11.166663999999995,12.276219694696715,0.1354178604042667
11.1708,12.335058163045558,0.1348976072398143
11.174888000000005,12.392212922544312,0.1343917701076422
11.178980000000005,12.44936768204307,0.1338898960945631
11.183107999999995,12.50383079091679,0.1334114284110772
11.187236,12.554594307390524,0.1329642506365808
11.191372,12.607262982514223,0.1325042907119459
11.195515999999998,12.660939599412863,0.1320380663058754
11.199652,12.71685354966127,0.1315501111429587
11.203739999999996,12.77400830916003,0.1310722188034305
11.207879999999996,12.835427703233972,0.1305788673413222
11.212020000000004,12.895839155532972,0.1300986832959386
11.216167999999996,12.957823591782123,0.129621645447982
11.220315999999997,13.017681419581448,0.129171533456553
11.22446,13.08090666508095,0.1287114324778273
11.228595999999996,13.139546518980987,0.1283129849340128
11.232732,13.194265330681176,0.1279514110635222
11.236868,13.252019385381738,0.1275907371053496
11.241003999999997,13.308101148907742,0.1272652817234535
11.245136000000002,13.369455488783885,0.1269146973104395
11.249276000000002,13.43563950541042,0.1265547610996793
11.253416,13.506198881512084,0.1261758642435929
11.257543999999996,13.578441966463837,0.1257945955936335
11.261679999999998,13.652590210065544,0.1254037819481358
11.265763999999995,13.730438046067237,0.1249934122366319
11.2699,13.810756082894091,0.1245756964994297
11.274031999999998,13.890963394821016,0.1241663255593537
11.278171999999998,13.974083807172844,0.1237414583172211
11.282303999999996,14.057093494624738,0.1233280664919497
11.28644,14.14356990700121,0.1228808325458284
11.290568,14.226457451877634,0.1224588419693397
11.294703999999996,14.310352938529006,0.1220315956615795
11.298831999999996,14.392564716330288,0.1216163237380853
11.302976,14.479816203006305,0.1211663530614594
11.307116,14.562913780007063,0.1207335456856772
11.311256,14.64801582288219,0.1202654892015426
11.315396,14.735465924007013,0.119774486597048
11.319539999999996,14.819205015056315,0.1192869388949978
11.323684,14.901138254680069,0.1187880312583757
11.327820000000004,14.978241817553418,0.1183037910504519
11.331964,15.04703756107626,0.1178456092013009
11.336104,15.112011569623656,0.1173935726138112
11.34024,15.170361467670627,0.1169610226869553
11.344324,15.226905514292048,0.1165195617541993
11.348456,15.277833392187992,0.1160910681003441
11.352592,15.33412173598294,0.1156001127305636
11.356676,15.386588344802435,0.1151124660483604
11.360816,15.430525684471558,0.1146551003510065
11.364896000000002,15.46514726301522,0.1142271946509953
11.369031999999995,15.49393122303354,0.1138171013839957
11.373179999999998,15.523600982251343,0.1133845748370307
11.377316,15.553148598893674,0.1129364012354251
11.381451999999996,15.576858597010665,0.1125035375814638
11.385536000000002,15.592150050877208,0.1120951050885001
11.389671999999996,15.60508202881852,0.111688877636132
11.393755999999996,15.61733823968469,0.1112822587675595
11.397888000000002,15.630258799950475,0.1108594959974554
11.402023999999995,15.642614318041048,0.1104321402378068
11.406163999999997,15.656874994781584,0.1099956814638678
11.410303999999996,15.670792079146777,0.1095485653977045
11.414436000000002,15.692440523011742,0.109059316460002
11.418563999999996,15.71330247490163,0.1085718500756395
11.422691999999998,15.740777119616403,0.108052261376859
11.42682,15.766014430981413,0.1075535842860578
11.430948,15.792935451196517,0.1070521690226505
11.435035999999997,15.81179293721204,0.1066051336908704
11.439175999999996,15.83154764010258,0.1061552709096373
11.443272,15.855899152268112,0.1056864424433291
11.447372,15.888436341208685,0.1051858563858749
11.451472000000004,15.924562397649304,0.1046744626475268
11.455564000000004,15.957775353665022,0.1041813588619569
11.459708,15.98908315103078,0.1036996788643994
11.463796000000002,16.029695291846462,0.1031804608091285
11.46794,16.075358559212408,0.1026529943392318
11.472032,16.126626577628297,0.1021035882201512
11.476115999999998,16.174870770719345,0.1015742114788385
11.480263999999998,16.218861746910736,0.1010768726064838
11.484352,16.265322923927293,0.1005790058895128
11.488492,16.313910709393674,0.1000704995644372
11.492632,16.363850029010344,0.0995700679445708
11.496724,16.412781406852066,0.0990806331187797
11.500824,16.460483393118974,0.0986035193283432
11.504919999999998,16.505272278960973,0.0981437583534988
11.509064000000002,16.55387148210289,0.0976698832637232
11.513156000000002,16.602470685244807,0.0971980512801218
11.5173,16.652188555061606,0.0967189071908261
11.521444000000002,16.702803641753416,0.0962387955644152
11.525579999999998,16.75061635292026,0.0957713632984571
11.52966,16.79540523876226,0.0953232659674779
11.533791999999998,16.838067516154428,0.0948912782803468
11.53788,16.882413502396687,0.0944587870408128
11.541959999999996,16.93146702281388,0.0940112235281754
11.546044000000002,16.971216199781146,0.093599739549867
11.550171999999996,17.011862593623423,0.093188813875396
11.554308,17.049706611940735,0.0927906079863265
11.558439999999996,17.092368889332906,0.0923742336950099
11.562516000000002,17.138952208924927,0.0919418755418612
11.566648,17.18284387789192,0.0915186429364617
11.570728000000004,17.2264033721591,0.0911070771626457
11.57486,17.27029504112609,0.0906898410831445
11.579003999999998,17.30925772611828,0.0902963845453577
11.58314,17.355951770610236,0.0898746422657121
11.58728,17.407574799077,0.0894350063522702
11.591411999999998,17.457403393793733,0.089002855753003
11.595495999999995,17.51093158091045,0.0885626486281835
11.599635999999997,17.56793791062728,0.0881192020415532
11.603768000000002,17.63166765806893,0.087655533188402
11.607908000000002,17.702907315210474,0.0871717025660714
11.612043999999996,17.779075956326825,0.0866718669062248
11.616183999999995,17.859165639643024,0.0861604023475099
11.62032,17.94048471453404,0.0856433084216237
11.624451999999998,18.017882747225208,0.0851455352460558
11.628576000000002,18.1025692398164,0.0846326869542841
11.632716000000002,18.186579965332456,0.0841211449156349
11.636856000000002,18.272495849498466,0.0836070049907326
11.640991999999995,18.35661729991445,0.0831008013742487
11.645131999999997,18.441968141905257,0.0825902120284589
11.649268,18.529334867445957,0.0820739424461774
11.653411999999996,18.615239333936437,0.0815579599014735
11.657552000000004,18.70204101730192,0.08104422080706
11.661699999999996,18.794890351317093,0.0805094055992261
11.665832000000002,18.882467108982127,0.0799874503731254
11.669967999999995,18.963431173822272,0.0794877676191948
11.674048,19.04360874668734,0.0789901592064374
11.678176,19.121537568527117,0.0784921267391731
11.682308,19.19822558111654,0.0779892643186114
11.686439999999996,19.266617192030985,0.0775085446110457
11.690576,19.32973622659529,0.077038395331098
11.694716,19.387471959909533,0.0765800807551391
11.698856,19.440832333748656,0.076129211548074
11.702992000000002,19.49340621561269,0.0756803169269998
11.707124,19.54933609750137,0.0752166086031482
11.711264,19.60301722836476,0.0747511088302715
11.715407999999996,19.655125375277997,0.0742862084149209
11.719552,19.70924940574112,0.0738178617431662
11.723688000000005,19.765500044654075,0.0733435526832382
11.727815999999995,19.81715387429204,0.0728798326863077
11.731948000000004,19.870823587479894,0.0724123180779902
11.736036,19.923817533592604,0.0719439653690168
11.740128,19.97725437930505,0.0714699712221694
11.744248,20.024410706892425,0.0710059629929508
11.74834,20.07336146822982,0.070542302312674
11.752471999999996,20.1234308962421,0.0700742804471611
11.756563999999996,20.178540033129103,0.069593690147081
11.760688000000002,20.232641228241167,0.0691187460544435
11.764775999999998,20.286742423353232,0.0686465726176627
11.768867999999998,20.34678054421504,0.0681607448569907
11.773007999999995,20.40872382372681,0.067673783575743
11.777099999999995,20.472572261888534,0.067185107008468
11.781239999999997,20.540563192049984,0.0666854655337538
11.785331999999997,20.607546180436483,0.0661913536285098
11.78942,20.67060812662313,0.065709801748743
11.79356,20.73669389813461,0.065223463406666
11.797648000000002,20.803001119445973,0.0647354710415216
11.801735999999998,20.8649329812822,0.0642522984698092
11.805827999999998,20.927086292918304,0.0637689279844724
11.809964,20.99416858852921,0.0632764171985319
11.814056,21.060796566864838,0.0627802547991516
11.818143999999997,21.12944042875036,0.0622818097145236
11.822283999999996,21.195281915110915,0.0617900933835563
11.82642,21.2687440360713,0.0612884477974653
11.830564000000004,21.339846681106454,0.06078546117434
11.834704000000002,21.41699697679129,0.0602707039448008
11.838844000000002,21.487756029451106,0.0597653770463168
11.842984,21.560641690560757,0.0592560863417398
11.847112000000005,21.63274085969532,0.0587481518407634
11.851244,21.700132494654955,0.0582498620807411
11.855376,21.76606187056438,0.0577496724708571
11.85946,21.831536929198528,0.0572448359247338
11.863588,21.89376671270797,0.0567539371673217
11.867724000000004,21.95643939581715,0.0562575103061947
11.871868,22.020341470501148,0.0557568349725282
11.876008,22.077409402560384,0.0552707606726861
11.880144,22.13257217596967,0.0547889813241024
11.884276,22.18616196542879,0.0543053506269933
11.888416,22.22742358611316,0.0538375172163364
11.892552000000002,22.260278080222616,0.0533791229453127
11.896696,22.28461472285722,0.052931376062684
11.900832,22.294828762967036,0.0524979820607124
11.904960000000004,22.29383330097697,0.0520734483972627
11.909087999999995,22.27322121031212,0.0516657245586183
