Time,Force,Position
10.238032,9.967891006288571,0.1664715533477703
10.242168,10.003638155217908,0.1662885842724423
10.246304,10.04116832022173,0.1660515001150422
10.250439999999998,10.07566324222518,0.1658313290613262
10.254579999999995,10.109593122053424,0.165605057170033
10.258723999999996,10.144076626381343,0.1653539972917505
10.262856,10.181240363658764,0.1650399837031582
10.266991999999998,10.218503408160585,0.1646905654683941
10.271116,10.257316601261495,0.1642690496177333
10.275199999999998,10.291632292311816,0.1638665595856435
10.279335999999995,10.32458503153632,0.1634305979580116
10.283416,10.351700152235477,0.1630451943139411
10.287551999999998,10.374317770884044,0.1626818933657879
10.291628,10.395240263006988,0.1623049069352301
10.295772,10.412341020154482,0.161947638974983
10.299908,10.425620042326528,0.1616112299676189
10.30404,10.434855879723257,0.1613061298847845
10.308132,10.443858849644576,0.1609810435767512
10.312259999999998,10.44658130144082,0.1607260443289735
10.316347999999998,10.448738711061852,0.1604657454344717
10.320432,10.449212411832796,0.1602208330838063
10.324555999999998,10.453607154803594,0.1599212399596559
10.328647999999998,10.457891172874454,0.1596275262255312
10.332736,10.46508829137022,0.1592958506161812
10.336828,10.479230277390675,0.1588701432402464
10.34096,10.49236432163619,0.158460698377035
10.345047999999998,10.506063408056908,0.1580595937806467
10.349176,10.518987420178084,0.1576947280331474
10.353268,10.5322550246746,0.1573483096120494
10.35736,10.552478914371337,0.1569400701889847
10.361452,10.579105464768626,0.156496764872383
10.365583999999998,10.614593459016096,0.1559700311780236
10.369671999999998,10.65289524646407,0.1554439046410893
10.373804,10.691994943562651,0.1549476567945732
10.377896,10.735924317411634,0.1544242931286547
10.381988,10.784351193311206,0.1538906135449203
10.386124,10.836931978886035,0.1533327340542203
10.390263999999998,10.894342441211256,0.1527549808482135
10.39436,10.958819913636642,0.1521174917469916
10.398452,11.02935645438724,0.1514386762920224
10.402544,11.10326041283801,0.1507429574177993
10.406683999999998,11.180199614289156,0.1500444878885452
10.410767999999996,11.259498291665537,0.1493405024139295
10.414904,11.33846479434211,0.1486584129948758
10.418992,11.409478487719042,0.1480807652656098
10.423127999999998,11.483183831721014,0.1474846320737223
10.427215999999998,11.55991300104782,0.1468610775613917
10.431352,11.639665995699472,0.1462051799847689
10.435499999999998,11.718300323676242,0.1455712422114617
10.439639999999995,11.790211233928188,0.1450115307543842
10.443728,11.85897617627983,0.1444722161514667
10.447872,11.923365759156342,0.1439728238021499
10.452008,11.984498649232616,0.1434913518201101
10.456139999999998,12.043493513183527,0.1430121664133399
10.460276,12.10046107590901,0.1425330013836639
10.464408,12.152820411683969,0.142070313834104
10.468528,12.1982234622587,0.141658925932255
10.472663999999998,12.237002402333012,0.1412875508849659
10.476744,12.27073021585706,0.1409494956622618
10.480828,12.29728029438101,0.1406706440539012
10.484968,12.318779246354694,0.1404226716010906
10.489048,12.337353680227942,0.1401790051967351
10.493195999999998,12.356813913300668,0.1399044547596528
10.497332,12.375487654398317,0.1396341135311422
10.501464,12.396509453745663,0.1393295387386193
10.505599999999998,12.41293444381802,0.1390637892501817
10.509736,12.421849524190472,0.1388650885047129
10.51388,12.42415191173804,0.1387254870199874
10.51802,12.425889257110398,0.1385804995632774
10.522151999999998,12.431879819382416,0.1383843125261281
10.526239999999998,12.437427482054687,0.1382053139196314
10.530331999999998,12.44454812867712,0.138022135703616
10.534423999999998,12.457838568524698,0.1377985468945893
10.53856,12.473488484297508,0.1375685361637181
10.542692,12.493403034645503,0.1373168723685075
10.546784,12.51422621954405,0.137084740771888
10.550912,12.544697340267852,0.1367926325521181
10.555004,12.5760770955422,0.1365200147703091
10.559127999999998,12.610381368916988,0.1362476570943556
10.563267999999995,12.650633985717054,0.1359451768788583
10.567363999999998,12.698518654792483,0.1356060059520326
10.571503999999996,12.7503357837433,0.1352597054767048
10.575636,12.801156388594702,0.1349530578742619
10.579724,12.853660702296192,0.1346411721990638
10.583816,12.91289985139804,0.1343023431315053
10.587951999999998,12.979206010600045,0.1339231636882446
10.592036,13.05347639677722,0.1334977581061118
10.596176,13.138845560154342,0.1329945638625472
10.600264,13.231171008731692,0.1324606571493215
10.604404,13.332468626059155,0.131882675557959
10.608548,13.43667934381153,0.1312860724362945
10.61264,13.542008728238782,0.1306829019932572
10.61678,13.646773070490829,0.1300841045326989
10.620924,13.752877529217624,0.1294715387382933
10.625,13.853487961794418,0.1289004723311577
10.62914,13.960699669520563,0.1282649062885975
10.633276,14.06039004987128,0.1276656129139005
10.637408,14.166903155171218,0.1269965177762638
10.641544,14.271942583745403,0.1263093232251728
10.64568,14.372705960068872,0.1256238746538479
10.649815999999998,14.464485749966686,0.1249710352273831
10.653963999999998,14.547846995614051,0.1243526204541996
10.658051999999998,14.626034972135692,0.123735512746204
10.662188,14.69983617150667,0.1231199055430885
10.666324,14.762970075601908,0.122540842786092
10.67046,14.820033493696402,0.1219705746664662
10.674595999999998,14.870129208915136,0.1214127155356283
10.678728,14.914154438133124,0.1208649456044789
10.682876,14.947512372075373,0.1203499574254012
10.687012,14.96606051874216,0.1199022195361959
10.691147999999998,14.9782060047084,0.1194681760565086
10.69528,14.98641903079925,0.1190410687855646
10.699372,14.988905163264697,0.1186294724219636
10.70346,14.985664402104732,0.1182324479877546
10.707587999999998,14.984206657019255,0.1178051609075855
10.711679999999998,14.976468393808702,0.1174098051425283
10.715808,14.972651172797995,0.1169883970846579
10.719843999999998,14.961324042087396,0.1166116904334695
10.72394,14.948988969601842,0.1162425705303327
10.728032,14.935424505541476,0.115887050669419
10.73216,14.927243342731176,0.1155071721202776
10.736248,14.926007047445577,0.1150797146744582
10.740379999999998,14.928470344559951,0.1146329432391931
10.744463999999995,14.935198276249524,0.1141736300022931
10.748552,14.948206726064171,0.1136872168543492
10.752644,14.959985784304004,0.1132143153681215
10.756736,14.973448551393927,0.1127372168945022
10.760824,14.982879551384064,0.1122888595687964
10.764916,14.997804577524208,0.1118147467009887
10.768999999999998,15.016429196064331,0.111321199991267
10.773091999999998,15.03987207367932,0.1108002103137055
10.777188,15.062639184219169,0.1102769125693318
10.781271999999998,15.08753290320884,0.1097374826789603
10.785363999999998,15.119936531898414,0.1091614849187182
10.789455999999998,15.152229435688051,0.1085913562461072
10.793584,15.183957297302484,0.1080168158446049
10.797672,15.215230841641644,0.1074374995957815
10.801764,15.246050068705529,0.1068496391408847
10.80586,15.2783201371441,0.1062450948509224
10.809952,15.312151771857296,0.1056196989501937
10.814048,15.343734655545193,0.1049955038009083
10.818147999999995,15.376546930807908,0.1043642531681053
10.822243999999998,15.410810047445308,0.1037180233420011
10.826335999999998,15.442713688157475,0.1030756326728431
10.830468,15.476178895144267,0.1024173262893075
10.834595999999998,15.51781836123057,0.1017110805576802
10.838683999999995,15.55979000201667,0.1009982894987535
10.84282,15.605793409902562,0.1002626323242242
10.846916,15.64910516716342,0.0995393323739965
10.851011999999995,15.69644869152406,0.0987958783993131
10.855107999999998,15.744689432759712,0.0980551666729288
10.859203999999998,15.79752698327036,0.09730031482003
10.863291999999998,15.853842676381118,0.096542328481673
10.867376,15.905561560216883,0.0958070332682666
10.871508,15.960414994277428,0.0950573654460597
10.875643999999998,16.019865237612958,0.0942961129679042
10.879783999999995,16.076070205823786,0.0935607183492223
10.883927999999996,16.13765847528468,0.0928137352043797
10.888012,16.199479612220976,0.0920857427820122
10.892148,16.263770949982444,0.0913605424626496
10.896296,16.331429705444084,0.0906363193303864
10.900432,16.39674040265603,0.0899374560975036
10.904519999999998,16.465983559743357,0.0892483145885149
10.908663999999998,16.539823526105675,0.0885505880880562
10.912807999999998,16.611093984418424,0.0878831029043118
10.916943999999996,16.680913601356497,0.087240447561116
10.92108,16.75690301151971,0.0865917427015375
10.925216,16.836481289182974,0.0859408673892138
10.929351999999998,16.924134518721342,0.0852779001605565
10.933432,17.012463515334854,0.0846253606730035
10.937576,17.099563120373553,0.0839883405897471
10.941712,17.190583767612097,0.083344067416844
10.945847999999998,17.2805964730757,0.0827106926090577
10.94998,17.375205987814294,0.0820713120908894
10.954059999999998,17.46858611097807,0.0814482116523158
10.958195999999996,17.56117974216677,0.0808312206474363
10.962328,17.65982102400515,0.0801937387960222
10.966463999999998,17.760478189393424,0.0795559996672932
10.970603999999998,17.86482352950615,0.0788974930045981
10.97474,17.972524869643518,0.0782275490078612
10.97888,18.076858792080703,0.0775643687384491
10.983012,18.18062767234269,0.0769000481800001
10.987136,18.27766171720432,0.0762439163959935
10.99126,18.37200411144092,0.0755986666288806
10.995344,18.464994971527226,0.074950285534332
10.999471999999995,18.55349974723848,0.074314007505253
11.003604,18.63594545462452,0.0736883551191924
11.007744,18.717826119835347,0.0730637106456203
11.011888,18.79196400787088,0.072449081479587
11.015975999999998,18.86486108665605,0.071830458479202
11.02012,18.939541181515725,0.0711967206893871
11.024255999999998,19.006822091575422,0.0705820453499293
11.028395999999995,19.072862192384783,0.069962101408659
11.032528,19.13374044174394,0.0693481947092346
11.036676,19.19259138987767,0.0687273017718066
11.040812,19.24785347051135,0.0681137119373608
11.04494,19.300534625419928,0.0675057555222995
11.049067999999998,19.347156712003297,0.0669040189933093
11.053148,19.390079206186687,0.0663125522678063
11.057228,19.425491790670176,0.0657382067147313
11.061308,19.462355216528348,0.0651541807067157
11.065444,19.499772266886197,0.0645617043645671
11.069523999999998,19.53662427506883,0.0639645898044385
11.07366,19.570219590451234,0.0633658180997972
11.077792,19.60268482148321,0.0627567819855264
11.081927999999998,19.633012026389835,0.0621398190257478
11.086064,19.65896387182133,0.0615243514467654
11.090204,19.67493560672776,0.0609191589197453
11.094292,19.68473754840905,0.0603150607566169
11.098319999999998,19.683551437790324,0.0597216208209791
11.1024,19.66666974069666,0.0591446749062397
