Time,Force,Position
9.02188,9.060072925410138,0.1510037259052291
9.026031999999995,9.17922592857962,0.1508654824042331
9.030163999999996,9.302399281173356,0.1506317078492299
9.034299999999998,9.428806491216267,0.1503079531545401
9.038436,9.555866632983255,0.1499231032929751
9.042571999999996,9.677532055824644,0.1495638074705931
9.046711999999996,9.786735749640265,0.1493053825921398
9.050851999999995,9.89075475665462,0.149033303180633
9.054991999999997,9.989024034692502,0.1487422633233905
9.059127999999998,10.074709441129151,0.1485192884711871
9.063259999999996,10.158233986089376,0.1482344616353016
9.067396,10.236573844248332,0.1479315242791851
9.071527999999995,10.308942523630945,0.1476184315947025
9.075664,10.374221357562332,0.1473080597582675
9.079799999999995,10.43319683801757,0.1469984697077276
9.083927999999997,10.492813832521351,0.1466004781970702
9.088055999999998,10.54411158999909,0.1462312810465268
9.092179999999995,10.58732297792619,0.1459095165545842
9.096307999999995,10.626147588702633,0.1455973087230746
9.100444,10.666300898278298,0.1452303191675537
9.104579999999997,10.701624531103562,0.1448921509386901
9.108720000000002,10.738841904903254,0.1445031467585134
9.112863999999998,10.77011093527767,0.1441616670034758
9.117003999999998,10.796107389301946,0.1438674139822434
9.121092,10.816720542076157,0.1436234300164179
9.125184,10.840468245075137,0.1433376254038808
9.129327999999996,10.870607191099134,0.1429910283391902
9.133459999999996,10.897722311798292,0.1426838294346825
9.137607999999997,10.92237864934782,0.1424225495171049
9.141687999999998,10.950623854397392,0.1421294483027628
9.145732,10.978426159847224,0.1418580968915495
9.149832,11.010382374972313,0.1415652412428065
9.153927999999995,11.043579399347747,0.1412835584634648
9.158019999999995,11.081151783198312,0.1409700879887643
9.162119999999998,11.12467251047415,0.1406215821478607
9.166215999999997,11.164505063025542,0.1403409512917699
9.170312,11.209278017227264,0.1400362653342766
9.174404,11.257418389129162,0.1397103051466309
9.178499999999996,11.306688845381476,0.1393982395424123
9.182596,11.354397735359168,0.1391254584926143
9.186691999999995,11.404798275961898,0.1388332174832888
9.190788,11.45677180051478,0.1385399624800541
9.194887999999995,11.511215525892828,0.1382366275509496
9.198924000000002,11.56723223522103,0.1379293507516895
9.203059999999995,11.628521520899367,0.1375872062149941
9.207156,11.690597298552785,0.1372473518167527
9.211243999999995,11.75357029308121,0.1369051953810138
9.21534,11.822148038659575,0.1365168737091366
9.21948,11.894646826437796,0.1360919180349408
9.223567999999997,11.970734481716065,0.1356454298010706
9.227664,12.047608628969405,0.1352009003317767
9.231759999999998,12.121901850497649,0.134778202749511
9.235856000000002,12.19698156400097,0.1343587004137376
9.239952,12.271950552604354,0.1339486568004965
9.244044,12.342433456832682,0.1335757466451272
9.24818,12.414035027735888,0.1331904317683655
9.252332,12.482158456038984,0.1328289794487605
9.256468000000002,12.553637884366722,0.1324288632992329
9.260603999999995,12.6279082705439,0.1319850627781279
9.264732,12.699143413720703,0.1315479075486857
9.268863999999995,12.76869484804742,0.1311224473799259
9.273008,12.838799906873811,0.1306841958412162
9.277143999999996,12.905648272899958,0.1302599712747714
9.28128,12.973160988325716,0.1298157893975464
9.285416,13.033717418551246,0.129412308151312
9.289548,13.088436230251434,0.1290353849239424
9.293679999999998,13.143819391351231,0.128640659130631
9.297811999999997,13.196621626725928,0.1282637619914986
9.301956,13.244040560850554,0.1279223385229101
9.306091999999996,13.289997235924965,0.1275850275100752
9.310219999999996,13.33359443507414,0.1272547306450517
9.314356,13.377191634223314,0.1269268430514321
9.318479999999996,13.41540553212242,0.1266323886620107
9.322608,13.4518249962715,0.1263505126826491
9.326747999999998,13.485442084895611,0.126088428004108
9.330884,13.521075057069616,0.1258107738767488
9.335019999999997,13.56119411361868,0.1255088058289506
9.339167999999995,13.604459138068052,0.1252059553666322
9.343307999999997,13.644257437592843,0.1249465207958003
9.347460000000002,13.687201705017944,0.1246824670432732
9.3516,13.733845564843024,0.1243974370422082
9.355747999999997,13.778030641518471,0.1241469053274633
9.359835999999998,13.825583135894105,0.1238849620475075
9.363972,13.874487164420014,0.1236303464518806
9.368099999999997,13.932252636796107,0.1233324431583417
9.37224,13.997871611247438,0.1230003124386107
9.376372,14.057553659949026,0.1227168233950187
9.380507999999995,14.113314666450758,0.1224635764632015
9.384647999999997,14.176474857752456,0.1221677649126043
9.388783999999998,14.236943398429116,0.1218887742345285
9.39292,14.299095647955868,0.1216055305041694
9.397052,14.357659029982573,0.1213417376270059
9.401188,14.421372845783946,0.1210354343552059
9.405315999999996,14.486426778060068,0.1207131309954589
9.409451999999998,14.559322794735897,0.1203364644151742
9.413591999999998,14.62952716078669,0.119977063248496
9.417731999999996,14.697704225612055,0.119615580082489
9.421868,14.75757347108691,0.1192824089166316
9.425999999999998,14.8173205739863,0.1189315718537423
9.430136,14.876048317435208,0.1185690227387781
9.434223999999997,14.92950348453398,0.1182319366107239
9.438312,14.981828567282342,0.1178853843988626
9.442443999999998,15.029323973280302,0.1175491931232273
9.446539999999995,15.071989702527867,0.1172238360545466
9.450631999999995,15.107244829299937,0.1169193960912584
9.454731999999996,15.134081411821558,0.1166419867257996
9.458868,15.163376777492818,0.1163371096684654
9.463004000000002,15.19725753476354,0.1159874907875476
9.467147999999998,15.223395514858954,0.1156672495639927
9.471284,15.247849786104284,0.1153523487439363
9.475416,15.272071189874213,0.1150239579302468
9.479511999999996,15.299759318568714,0.1146618586204167
9.483651999999996,15.323072087788097,0.1143181497266516
9.487748,15.34503332285719,0.1139714182524959
9.491843999999997,15.35891960605118,0.1136617275864364
9.49594,15.371786529794692,0.1133386071708675
9.500039999999997,15.378262210513189,0.1130459086676474
9.504136,15.382722007681789,0.1127667746627646
9.508231999999996,15.386506037775243,0.1124856458599992
9.512328,15.38659047546872,0.1122231856142394
9.51642,15.385323379011908,0.1119556044414265
9.520515999999995,15.383380515479958,0.111685847758043
9.524612,15.385923736323065,0.1113975547290532
9.528707999999998,15.391380057591082,0.1110922260006813
9.532803999999995,15.400646696159011,0.1107666170416054
9.5369,15.417091069727038,0.1104124285553754
9.540995999999996,15.432195326820311,0.1100749172052331
9.545135999999996,15.446070192338768,0.1097520412132711
9.549227999999996,15.464320417332347,0.1094149439420032
9.553319999999996,15.486270234725914,0.1090613636176664
9.557408,15.507101385444598,0.1087189019507328
9.561551999999995,15.529284070313564,0.1083837506648345
9.565636,15.554944897782642,0.108038830928794
9.56972,15.58094931762706,0.1077070564113331
9.573871999999998,15.612337038721549,0.107355829485392
9.577963999999998,15.645862785941397,0.1070112450914662
9.582055999999998,15.686455543261404,0.1066432668895097
9.586147999999998,15.73321809380656,0.1062555367120281
9.590236,15.783237337151958,0.1058657688919607
9.594371999999996,15.838639881747426,0.1054577230532949
9.598455999999995,15.900998711543124,0.1050320546315069
9.602588,15.963701133714157,0.1046193967327653
9.606728,16.025395614110238,0.1042157493056894
9.61086,16.087765861581467,0.1038179632496636
9.614991999999996,16.147001558827917,0.103443907246154
9.619136,16.206347980974307,0.1030716076548969
9.623271999999996,16.268939678245403,0.1026773540627324
9.627408,16.331642100416435,0.102282786435409
9.631536,16.395241739462477,0.1018886232843304
9.635671999999996,16.457157669658432,0.1015001505259727
9.639808,16.520978758504345,0.1011053809315381
9.643944,16.584345530074987,0.1007058105738913
9.648084,16.646704359870682,0.1003145603560722
9.652219999999996,16.71130052301614,0.0999092513206959
9.656311999999996,16.776450310661268,0.0994942950726873
9.660439999999998,16.841035056131194,0.0990766283543348
9.664568,16.90606270120086,0.0986518223449242
9.668691999999997,16.969960261920114,0.0982191980027139
9.672819999999998,17.031387621814197,0.0977918469067311
9.676956,17.092028489733206,0.097367798952609
9.681099999999995,17.1491912150521,0.096955136117549
9.685239999999997,17.210607157270648,0.0965186147582236
9.689379999999996,17.275157649713975,0.0960671145389036
9.693516,17.342621242582208,0.0956069365942383
9.697655999999998,17.415800311400314,0.0951270079053323
9.701792,17.48315317936861,0.0946750543457931
9.705940000000002,17.551403264211917,0.0942245043653644
9.710083999999998,17.622234274780325,0.0937728099170207
9.71422,17.693065285348737,0.0933247736667734
9.718352,17.765580004767234,0.092877116153066
9.722487999999997,17.83921339086061,0.0924258023427691
9.726623999999996,17.910609443604226,0.0919920285304574
9.73076,17.983234887922663,0.0915509749566369
9.734844,18.05686827401604,0.0911096221991155
9.738984,18.126924210284905,0.090698088043525
9.743072000000002,18.195640030079016,0.0903007398703673
9.747215999999998,18.26323718319825,0.0899139705186095
9.751352,18.330391436717743,0.0895397393099836
9.755487999999996,18.397545690237237,0.0891671805240971
9.759624,18.466605102406685,0.088791297699012
9.763763999999998,18.5375696732261,0.088411668941822
9.767903999999998,18.605731868520536,0.0880439291927767
9.77204,18.67209963006495,0.0876837326689484
9.776172,18.732186873484284,0.0873397518282727
9.780303999999996,18.786890815653543,0.0870098861355376
9.784392,18.844950757847453,0.0866608253905939
9.788519999999997,18.901437716091205,0.08631338572328
9.79266,18.95388148955964,0.0859678354178972
9.796803999999998,19.002392803152688,0.0856212512129711
9.800943999999998,19.05235495812042,0.0852634518731801
9.805032,19.10343577976304,0.08490239911142
9.809172,19.155856717880404,0.084531617137357
9.813259999999996,19.206028904972477,0.0841586476003567
9.817348,19.25092851571441,0.0837957026276644
9.821488,19.2949194919058,0.0834181433775503
9.825639999999996,19.338001833546645,0.0830261144120817
9.829779999999996,19.37793820728718,0.0826328768614884
9.833932,19.41775243845225,0.0822266924737622
9.838075999999996,19.45923896079188,0.0818045226130093
9.842212,19.49510931440603,0.0813816226842987
9.846287999999998,19.5270472081448,0.0809568327824146
9.850427999999996,19.55853078460829,0.0805260520403666
9.854503999999997,19.58686839317148,0.0800937369593564
9.858639999999998,19.61665684310935,0.0796492539285569
9.862771999999996,19.64699891754689,0.0791943833692819
9.866908,19.678791833359128,0.0787291399495768
9.870991999999998,19.710130431896086,0.0782582354373687
9.875063999999998,19.7428091469078,0.0777783899245487
9.879147999999995,19.777614470369343,0.0772903828008231
9.883287999999997,19.808376609055568,0.076802370972578
9.887364000000002,19.832182462541564,0.0763222188929521
9.891504,19.855866173452096,0.0758296067211748
9.895644,19.881676492812453,0.0753295087265244
9.899731999999997,19.907032494897532,0.0748222065637394
9.903828,19.93664171388228,0.0742985840736807
9.90792,19.972409308416637,0.073755073336842
9.912055999999996,20.010635686100624,0.0731977249649712
9.916147999999996,20.050988672234443,0.072634432430945
9.920236,20.09066589129312,0.0720706625287777
9.924323999999997,20.13124032722681,0.0715067514595297
9.928456,20.170241779210343,0.0709413446352967
9.932583999999997,20.2082238717434,0.0703648546967124
9.936728,20.24945123940116,0.0697767659414233
9.940856,20.29101078175873,0.0691841279594344
9.944996,20.332902498816104,0.0685869676666893
9.949088,20.370529581298285,0.0679926459085023
9.953168000000002,20.40658367983032,0.06739774999367
9.957252,20.441175519312125,0.0668001379782284
9.961339999999996,20.47520231661873,0.0661991548176326
9.965419999999998,20.50933983882527,0.0655973335143142
9.969503999999995,20.54459602770669,0.0649907188952423
9.973536,20.581868100138006,0.064381531761595
9.977616,20.618464405494176,0.063771736511562
9.981695999999996,20.660997636600097,0.0631497715534801
9.985828,20.700052725105905,0.0625314350601824
9.989867999999998,20.73238439588689,0.0619289922707722
9.993903999999995,20.76270018311797,0.0613337342251253
9.997984,20.788529885974008,0.0607435053425245
10.002071999999997,20.81335164705509,0.0601576963049098
10.0061,20.843102392110968,0.059563296892059
10.010179999999997,20.878568613116727,0.0589613802232656
10.014211999999995,20.915386368272767,0.0583685306585314
10.018295999999996,20.946377922579,0.0577879775602241
10.022431999999998,20.97546431823527,0.0572114707645199
10.026507999999996,21.00107257129143,0.0566353551217811
10.030596,21.02354627412281,0.0560681823526609
10.034628,21.03761285037929,0.0555091253064461
10.038768,21.040359199635947,0.0549622815794625
10.042863999999998,21.030212337942636,0.0544239097422534
10.046959999999997,21.005156381749455,0.0538972165389025
10.050988,20.96642072263123,0.0533750026107463
10.055075999999996,20.90066925003825,0.0528743255427327
