Time,Force,Position
26.166776,8.435568148667217,0.1336040932692623
26.17086,8.476996520519828,0.1333295965197002
26.174944,8.50887626377158,0.1331036330175143
26.17902,8.537598621447492,0.1328531463034716
26.183104,8.55554295894773,0.1326717885198148
26.187188,8.576831878797078,0.132391637236184
26.191272,8.597544338795688,0.1320658966292076
26.195356,8.616450947368739,0.1317213666814322
26.19944,8.633108804916494,0.131379377734043
26.203532,8.646177794964203,0.1310743352938222
26.207628,8.6583495681369,0.1307790210294202
26.211724,8.668726907559574,0.1305018677765695
26.215852,8.674839612407057,0.1302573587419383
26.219936,8.69024524302893,0.1298721453697967
26.22402,8.703967164800714,0.1295000819154623
26.228108,8.718021261272305,0.1291129391163671
26.232196,8.729272982218923,0.1287596581773907
26.236288,8.739516761390593,0.1284207840201322
26.240384,8.750879207237148,0.1280640326858498
26.24448,8.765498345883946,0.1276904056010981
26.248576,8.778666643156058,0.127356550683329
26.25266,8.791392040828427,0.1270466907247113
26.256748,8.806919814025768,0.1267080436132454
26.260888,8.824242020973132,0.1263559345518629
26.26502,8.851200746070225,0.1258908390499539
26.269164,8.873341212092454,0.1254863838635251
26.273247999999995,8.89884909581486,0.1250667181566748
26.27738,8.92570851368755,0.1246557748471692
26.281508,8.957275465735169,0.1241976466649372
26.285596,8.99422571903286,0.1236980482335911
26.28968,9.034875564730532,0.1231677166182177
26.293764,9.079003553028317,0.1226163326694526
26.297836,9.125380292351398,0.1220647555227551
26.30192,9.164590714349918,0.1216128747228696
26.306,9.206382062073535,0.1211483030318491
26.310084,9.244473817397177,0.1207188331910338
26.31416,9.281779080745736,0.1202927319009255
26.318236,9.32311611119408,0.1198202543251324
26.322324,9.363445199867485,0.1193638811756659
26.326456,9.407916780540605,0.1188587195257668
26.33054,9.449918160388563,0.1183652908937424
26.334676,9.492251714936325,0.117858616127319
26.338756,9.53145071925931,0.117394763751588
26.342839999999995,9.567060856082248,0.1169606405858597
26.346924,9.598749950705336,0.1165739345516107
26.351008,9.63424936262834,0.1161537255222945
26.355092,9.664144023501404,0.1157860534511347
26.359228,9.694149409274402,0.1154156881152625
26.363356,9.7218067367977,0.1150862193917375
26.367488,9.744756530146072,0.1148013333375704
26.371624,9.762888064419585,0.1145645922473891
26.375764,9.780233106718011,0.1143313493745059
26.379904,9.798475365891456,0.1140929061958694
26.383992,9.822322376114837,0.1138086443131481
26.388128,9.845272169463206,0.1135330821721872
26.392216,9.87640763958662,0.1132010114209247
26.396344,9.912029194085092,0.112842452822887
26.40048,9.944848373058594,0.1125100059903268
26.404616,9.977446102232223,0.1121885512682677
26.408764,10.006344239005871,0.111898932792082
26.412904,10.03883124327957,0.1115880870576225
26.417036,10.071994014628412,0.1112832039374591
26.421168,10.109975045052114,0.1109376427562467
26.4253,10.156031027350926,0.1105467387884052
26.429432,10.202984226524746,0.1101526083877157
26.43356,10.247921542148672,0.1097831733982976
26.437692,10.299360825697551,0.109370164275844
26.441824,10.353037442596197,0.1089335229911065
26.445964,10.410070059519484,0.1084580911985431
26.4501,10.468553517817456,0.1079568161346371
26.454232,10.529495759265062,0.1074196520928435
26.458372,10.587746350087636,0.1069006287844618
26.462512,10.64722633248502,0.1063674660962572
26.466656,10.70648486508254,0.1058497436453104
26.470796,10.76709493183034,0.1053441896514915
26.474884,10.822432422228006,0.1048705630931739
26.478972,10.87429177002556,0.1044169478586123
26.483104,10.92379164189788,0.1039656917991117
26.487232,10.973955863169811,0.1034908600558004
26.491364,11.025128026216688,0.1030105568083879
26.495444,11.074395030613609,0.1025470738220973
26.499584,11.126685860335368,0.102062265473553
26.50372,11.175498547457014,0.1015949475461724
26.507864,11.21544979072848,0.101172474147847
26.512004,11.256065383399552,0.1007281797663183
26.51614,11.2972346005703,0.1002662885390655
26.520276,11.332455474315768,0.0998257483755536
26.52436,11.363533856061515,0.0994256670043748
26.528496,11.391477687582489,0.0990576671243597
26.532624,11.42155954522882,0.0987005601094926
26.536764,11.457479021400497,0.0983362148263634
26.540844,11.499568290797324,0.0979509394183727
26.544924,11.542100459793888,0.0975540372157921
26.549004,11.580810893815004,0.0971548581340496
26.553148,11.617150434235356,0.0967299744150241
26.557288,11.654608641330588,0.0962960066509178
26.561376,11.692066848425824,0.0958639486929935
26.565512,11.736370615821349,0.095417090608263
26.56964,11.783820351117178,0.0949757165688998
26.573768,11.831835128588214,0.0945458241099844
26.577896,11.881079297634068,0.0941030825062337
26.581988,11.92572665740493,0.0936855865925515
26.586079999999995,11.972279175825747,0.0932594286684247
26.590168,12.019618186221644,0.0928332319190339
26.5943,12.065506355242851,0.0924327869552496
26.598388,12.110951624664324,0.0920508231482667
26.602516,12.160882978460856,0.0916551443368057
26.606656,12.215964766032052,0.0912234688239754
26.610792,12.272386670078005,0.0907760542636731
26.614884,12.326781272898524,0.0903194580954688
26.619028,12.372314431868862,0.0898948928089039
26.623168,12.4152666651141,0.0894806889474744
26.627304,12.455981565009578,0.0890906560472396
26.631448,12.50085037458031,0.0886989884429039
26.635544,12.54673854360152,0.0883295527072424
26.639636,12.589602887297888,0.08798152869484
26.643775999999995,12.635269606519229,0.0876239124422835
26.647924,12.676560966265445,0.0872804420754645
26.652064,12.71639006696144,0.086935598691302
26.6562,12.755543400582296,0.0865886425118311
26.660332,12.796712617753045,0.0862324475657002
26.66446,12.83777111002386,0.0858805147828573
26.668596,12.879616094269746,0.08553206265247
26.67274,12.926168612690564,0.0851650653707571
26.67688,12.976420723511367,0.0847868859980828
26.681012,13.02667283433217,0.0844108225995678
26.685148,13.073790394928194,0.0840591481968272
26.68928,13.115192479574343,0.083735783937166
26.693356,13.154246505970798,0.0834359299348374
26.69744,13.19386557454246,0.0831458437295858
26.701576,13.238757219464253,0.0828455518992138
26.705708,13.282862372410971,0.0825467081229895
26.709856,13.32775401733277,0.0822503794867283
26.713992,13.370064736529464,0.0819601769883674
26.718124,13.409683805101126,0.0816778570552491
26.722256,13.45131875722268,0.0813848485491796
26.726384,13.488246175169303,0.0811117458171055
26.730516,13.527078751765886,0.0808325007324941
26.734604,13.562776778137694,0.0805748550430904
26.738744,13.596569645859544,0.080326038957048
26.74288,13.626220021581672,0.0801042485532117
26.747012,13.659902164403588,0.079862024025628
26.751152,13.6910033815004,0.0796243556487641
26.755292,13.721207381722202,0.0793909930790435
26.759436,13.745917355794,0.0791747378319053
26.763576,13.772753938315624,0.0789462417644974
26.76772,13.797685362187291,0.078725192551843
26.771864,13.82138739448414,0.0785156091062403
26.775996,13.849231918780712,0.0782827586278708
26.78014,13.875171284427328,0.07805798813254
26.784272,13.896956740398686,0.0778347109669076
26.788356,13.915829095945137,0.0776243881362719
26.792488,13.929096700441647,0.07743219595206
26.796628,13.941356363163214,0.0772456369264704
26.80072,13.957426343184697,0.0770454249597766
26.804812,13.97629869873115,0.0768375067381528
26.808896,13.996289720952484,0.0766215232962723
26.81298,14.011462484098953,0.076425007947206
26.817112,14.02786463882024,0.0762175063613431
26.821204,14.043701751366322,0.0760025952043913
26.825292,14.059981763512145,0.0757753493785481
26.829428,14.070435574808153,0.0755724870349671
26.83352,14.08189732787911,0.0753651652940327
26.837652,14.087754329900124,0.0751751650362731
26.84174,14.092714115046128,0.0749866845256854
26.845876,14.089266773617222,0.0748237276440974
26.849952,14.087491723362868,0.0746369179978526
26.85408,14.091875048658132,0.0744179591722684
26.85816,14.092448056653478,0.0742129379482432
26.862296,14.092123847773813,0.0740095710276239
26.866375999999995,14.0933726228443,0.0738091718397833
26.870508,14.095850789489608,0.0735977244083922
26.874536,14.108186924084508,0.0733451576292074
26.87862,14.122538942229305,0.0730838102240829
26.882748,14.134985801724142,0.0728298942314028
26.886884,14.144408835894138,0.0725912106153435
26.890968,14.15641279578924,0.0723516141305514
26.895,14.172337797884186,0.0720967597369516
26.899088,14.187144133304256,0.0718500869446051
26.903124,14.204309944649555,0.0716084951093446
26.907264,14.22204079817006,0.0713750933331499
26.911404,14.245154952940638,0.0711331710394509
26.915536,14.26771548321154,0.0709071391869377
26.919675999999995,14.296999431207263,0.0706592800241429
26.923808,14.33199885515286,0.0703944717034231
26.927948,14.374286738998494,0.0701150055674868
26.932084,14.41972059074443,0.0698438330688102
26.936224,14.462695659340731,0.0695956936826124
26.940352,14.5055600030371,0.0693510941282243
26.94448,14.55223466403339,0.0690959926865712
26.9486,14.598012108154668,0.0688431557705694
26.952744,14.64525181132616,0.0685977464541037
26.956892,14.684538705198015,0.0683855716663465
26.960988,14.720580323945162,0.0681928163328528
26.96512,14.753930292067272,0.0680043497660855
26.969256,14.785485826439356,0.0678188028276331
26.9734,14.814571159986276,0.0676322207234619
26.97754,14.843656493533198,0.0674467705249968
26.98168,14.874868435529947,0.0672508148997808
26.985828,14.907309769101513,0.0670461292461092
26.989968,14.940083277372882,0.0668335489470931
26.994104,14.968813600868934,0.0666163624123693
26.99824,14.997200331989646,0.0663863489710858
27.002372,15.021666020910509,0.06617090150261
27.006504,15.044337276081343,0.0659592143979628
27.010644,15.061514505102174,0.0657573771457617
27.014784,15.073419157772872,0.0655598562897834
27.018872,15.083972276293284,0.0653535359046004
27.022964,15.095865511288446,0.0651351379302467
27.0271,15.106185762333457,0.064914077891689
27.031232,15.118411172028422,0.0646886438745683
27.035316,15.127379888923146,0.0644590536197139
27.039404,15.139704605842516,0.0642095745317644
27.043484,15.1556067725864,0.0639349804675944
27.047616,15.173524822880175,0.0636528202900114
27.051744,15.19289371454864,0.0633558669501376
27.05588,15.213159823092113,0.0630587298098417
27.060024,15.231852947685434,0.06275878998548
27.064096,15.247743696753783,0.0624650873123892
27.06818,15.262172186771918,0.0621661489954184
27.072324,15.27469551814009,0.0618721722067846
27.076456,15.286210907733317,0.0615817876645725
27.080484,15.295931863576524,0.0612931449106694
27.084564,15.302174676819613,0.0610045920110983
27.088704,15.303034188812632,0.0607208922539769
27.092792,15.307138975930362,0.0604205087175101
27.096928,15.313481096397856,0.0601073761954247
27.100956,15.317131566240311,0.0597963269296587
27.104988,15.315288009932765,0.0594921647646898
27.109072,15.307053210600197,0.0591952640876852
27.113156,15.292980792742288,0.0588917292056298
