Time,Force,Position
22.425428,10.362100450567992,0.1391580230098855
22.429572,10.404326732071212,0.1389426465698965
22.43366,10.444403569773538,0.1386958125067168
22.437752,10.476172588125356,0.1385005709431872
22.44184,10.505238538176604,0.1383004106474815
22.445927999999995,10.53238791190236,0.1380902874976627
22.450016,10.561885343877815,0.1378433566832123
22.454164,10.59765187630282,0.1375162628356385
22.458256,10.63375058342763,0.1371753144572151
22.462396,10.673548882952424,0.1368020161831466
22.466491999999995,10.713790082076956,0.136410903426242
22.470583999999995,10.76097614872618,0.1359416603416197
22.47472,10.809059432250416,0.1354676807933436
22.478863999999994,10.85153796472471,0.1350521384854399
22.482996,10.890206179899089,0.1346792994914553
22.487131999999995,10.929993061748345,0.1342936875305051
22.491264,10.97190655204743,0.1338818373709226
22.4954,11.015270883721202,0.133445391282816
22.499531999999995,11.063674924269712,0.1329567605362991
22.503671999999995,11.117340123492822,0.1324064538676463
22.507808,11.176720798665803,0.1318074324172781
22.511944,11.233188373413888,0.1312433628547824
22.516072,11.290209572661642,0.130661532543717
22.520204,11.353056972759209,0.1300261790077561
22.524339999999995,11.416236547556576,0.1293842806748726
22.528416,11.484345106328744,0.1286999476629966
22.532556,11.54976201447588,0.1280416731545182
22.536696,11.608344779998257,0.1274557614409453
22.540828,11.671967254395364,0.1268242602922767
22.544964,11.733008803067372,0.1262117932215137
22.549088,11.7978606690393,0.1255730542187376
22.553216,11.861815318136214,0.1249498389621887
22.557344,11.925991417032998,0.1243225391249455
22.56148,11.992969891454754,0.1236767525852955
22.565616,12.06264001650154,0.1230182018494586
22.569756,12.133207358423345,0.1223614815948775
22.573892,12.205569134095173,0.1217001595733455
22.578024,12.272891200892262,0.1210912033283606
22.582116,12.332814082889389,0.1205393175638869
22.58626,12.388815922686664,0.1200270747037713
22.590399999999995,12.439655911033736,0.1195445841497394
22.594548,12.490495899380813,0.1190640653212738
22.598684,12.539995771253134,0.1186076667316684
22.602816,12.585906775625409,0.1181765745554702
22.606952,12.62890467957278,0.1177714783105294
22.611087999999995,12.667416499145093,0.1173964711276909
22.615224,12.704355334767248,0.117025262102322
22.619367999999994,12.743642228639102,0.1166258144608399
22.623508,12.774521995936045,0.1162853325107664
22.627644,12.804615271257914,0.1159469404940375
22.631775999999995,12.831119679079736,0.1156312424578262
22.635915999999995,12.853924494501571,0.1153407926974966
22.640048,12.877847976598291,0.1150401496601681
22.644192,12.90019847474486,0.1147432011466703
22.648328,12.91671135436608,0.114465000166312
22.652463999999995,12.927619482937365,0.1142232510654534
22.656596,12.938073294233371,0.1139731319641315
22.660723999999995,12.95087516377908,0.1136954061724984
22.664852,12.967708800424573,0.1133849489157784
22.668983999999995,12.984088119794798,0.1130650222790702
22.673123999999994,12.999127322690263,0.1127646787653687
22.67726,13.014387975385606,0.1124578431044476
22.681352,13.030091527680684,0.112137146391601
22.685488,13.044332820925549,0.1118149026324824
22.68958,13.057787622195333,0.1114934700999672
22.693715999999995,13.069115815015286,0.111192285811748
22.69786,13.081451949610184,0.1108836683529811
22.702,13.093898809105024,0.1105729383993355
22.706095999999995,13.111163927674726,0.1102297157454928
22.710235999999995,13.129658437819243,0.109872200107606
22.714375999999994,13.146358514213738,0.1095238981212937
22.718467999999994,13.161374881758144,0.1091804303019437
22.722556,13.171794440027554,0.1088627179792813
22.72664,13.18041956454694,0.1085538785102287
22.73072,13.194427990316395,0.1082204179161252
22.734808,13.211681691210565,0.1078564608203351
22.738892,13.222101249479977,0.1075401362819517
22.742932,13.232520807749385,0.1072248587363942
22.747028,13.243726857993872,0.1069109541675597
22.75112,13.252806299788531,0.1066159409217208
22.755216,13.266249683382783,0.1062806929683818
22.759312,13.27980379187697,0.1059429782228879
22.763404,13.295041609221244,0.1056026205065298
22.7675,13.31544127801572,0.1052478542566611
22.771595999999995,13.33684888858514,0.1048859647994077
22.775692,13.36250971605422,0.1044888256542831
22.779832,13.388170543523302,0.1040931627455478
22.783924,13.412036937242355,0.1037067041159284
22.78802,13.436800547836423,0.1033190734050157
22.79216,13.462129200605697,0.1029400343750674
22.796316,13.492054662649966,0.1025411257918802
22.800411999999994,13.525458267294349,0.1021319329111643
22.804508,13.563237231413853,0.101709348236076
22.808644,13.605723729708286,0.1012644439280866
22.812732,13.64260547695278,0.1008488670570912
22.816816,13.681060208147423,0.1004358580220678
22.820947999999994,13.726914124142036,0.0999888394305996
22.825084,13.774230299186865,0.0995478100768712
22.829224,13.822111516406904,0.0991174220408865
22.833304,13.878067685502048,0.0986595175688177
22.837436,13.932240838522702,0.0982353444238246
22.841564,13.989781409243532,0.0978083850976278
22.845704,14.045306096414468,0.0973972530912861
22.849836,14.101949450260287,0.0969822109462759
22.853972,14.16487332223119,0.096549150616458
22.858107999999994,14.226346352827406,0.0961391540701113
22.862236,14.292526917598552,0.0957117999860104
22.86638,14.3612884080948,0.0952814373554949
22.87052,14.428034015041147,0.0948666404584724
22.874652,14.49668478063746,0.094446339730198
22.87878,14.563208937783942,0.0940450969357404
22.882908,14.63354341223034,0.0936304367544093
22.88704,14.704996553351622,0.0932108295187358
22.891132,14.775220302898084,0.0928077714117552
22.895224,14.8545269460946,0.0923766707110064
22.899348,14.93663596481609,0.0919397245617175
22.903479999999995,15.0205394172876,0.0915031159585683
22.907619999999994,15.106680203108874,0.0910539017661545
22.91176,15.188445629455025,0.0906170009782905
22.9159,15.265946421225983,0.0901920299865493
22.920044,15.34702466282146,0.089739554375184
22.924188,15.427648587141665,0.0892831074519712
22.928324,15.510509844811628,0.0888129362701908
22.932468,15.585639742981824,0.088380009660657
22.936604,15.654489123026938,0.0879678086583248
22.940732,15.72097902714682,0.0875553944717446
22.944872,15.77625942916682,0.0871842505052947
22.949008,15.83086406411168,0.0868123740645549
22.95314,15.888603249281314,0.0864247461093559
22.957276,15.94297501675077,0.0860429500167455
22.96136,15.996892466944953,0.0856537618198817
22.965504,16.04464012391399,0.0852800237543769
22.969636,16.08711520453289,0.0849183059556343
22.973772,16.12723080922656,0.0845562077947932
22.9779,16.163303229144905,0.0841968245683941
22.98204,16.193095130938172,0.0838541410076525
22.986172,16.214812080856333,0.0835312855759677
22.990255999999995,16.231145729524425,0.0832221437005949
22.994336,16.248819494667263,0.0829001199933733
22.998416,16.263912334085006,0.0825820637626552
23.00244,16.271495263802844,0.0822890660738196
23.006471999999995,16.27548932602064,0.0820049369723276
23.010496,16.27690246251333,0.0817245821432561
23.014568,16.280885107055592,0.0814210312903437
23.0186,16.283405492547637,0.0811129278282102
23.022631999999994,16.288838978464582,0.080794231672952
23.026716,16.30491692430621,0.0804361999426332
23.030739999999994,16.321105595047765,0.080076956324754
23.034831999999994,16.3279899223394,0.0797440452731086
23.038875999999995,16.333866307856088,0.0794158329186272
23.042912,16.338956201397696,0.079087256016514
23.047,16.344046094939305,0.0787586764215183
23.051027999999995,16.34902526358098,0.0784324186430943
23.055112,16.353107215347645,0.0781080569070757
23.059204,16.350244299589615,0.0778117152887408
23.06324,16.348500050506466,0.0775082671387352
23.067276,16.346866526323257,0.0772012575164118
23.07132,16.346019494115122,0.076895339172756
23.075404,16.344053795232103,0.0765965816757255
23.079436,16.340182937699133,0.0763033632894066
23.08352,16.339003730791195,0.0760049221275449
23.087608,16.33580864033336,0.0757150494803671
23.091704,16.33239210007566,0.0754307916823346
23.095732,16.327635443343205,0.0751589920222023
23.099764,16.325459712335853,0.0748852315949439
23.103792,16.324181198203505,0.0746108968200774
23.107884,16.31304471612157,0.0743734013824941
23.112016,16.29597130828989,0.0741581170201663
23.1161,16.28809151900819,0.0739222500599574
23.120176,16.28211688837645,0.0736807865162783
23.124264,16.27300770751994,0.0734541554346701
23.128352,16.264463568838636,0.0732340458394946
23.132487999999995,16.2613027314074,0.0730056174587348
23.136624,16.26251725345129,0.0727733240130855
23.14076,16.272360351869963,0.0725151436737934
23.144844,16.27996611693887,0.0722704639545425
23.148979999999995,16.293176633057715,0.0720126122041528
23.153127999999995,16.30638714917657,0.0717551493212064
23.15726,16.319486940395482,0.0715004007322898
23.161396,16.337072815989455,0.0712392715343458
23.165524,16.354658691583428,0.0709786038487057
23.169656,16.372023117377527,0.0707230102598481
23.17378,16.388379601396686,0.0704716251834568
23.17792,16.404957535215708,0.0702150481879581
23.18206,16.4214247441348,0.0699619195386679
23.186195999999995,16.432065752204082,0.0697272802528262
23.190335999999995,16.453572669997904,0.0694558633839547
23.194475999999995,16.479111354891515,0.0691687386592514
23.19862,16.500950447385147,0.0688904020001144
23.202756,16.52099510612875,0.0686150629457743
23.2069,16.54585802394722,0.0683262854512109
23.21104,16.57206105824044,0.0680266026175383
23.215176,16.593888733058538,0.0677311621229145
23.219324,16.608538672876534,0.0674451650805102
23.223456,16.62038623716957,0.0671664002965117
23.227591999999994,16.63525762678744,0.0668767775178475
23.231736,16.646318699105393,0.0665974058435352
23.235872,16.657490496323284,0.0663158350643607
23.240012,16.66798652646603,0.0660299878292301
23.244144,16.677806789533637,0.0657408787646906
23.24828,16.68784850240111,0.0654470197020588
23.252412,16.6991196068434,0.0651442584445586
23.256491999999994,16.71251731973552,0.0648322484277766
23.260632,16.724009873977682,0.0645244740493328
23.264768,16.735723878019712,0.0642123534989421
23.268899999999995,16.749785940311444,0.0638852433394897
23.273028,16.755330151128323,0.0635776748042134
23.277156,16.760087869970132,0.0632686248046938
23.281244,16.76237538798677,0.0629568548451227
23.285371999999995,16.764773630903345,0.0626425004474901
23.28946,16.764812397894687,0.0623234775033301
23.293552,16.75935713873603,0.0620114247489095
