Time,Force,Position
23.263396,8.080951481279474,0.1346078121270841
23.267532,8.17861004644002,0.1342443863145475
23.271671999999995,8.270629607524027,0.133830891007209
23.275763999999995,8.352081180556693,0.133448015817203
23.279855999999995,8.421170331788,0.1331139801985552
23.283996,8.478794278092955,0.1328211136888677
23.288092,8.525518061646766,0.1325733172951037
23.292228,8.565827766824496,0.132323024934881
23.296376,8.599280494026402,0.1320922483007416
23.30046,8.630140877827676,0.1318442953660016
23.304548,8.65919541020339,0.1315788251902601
23.308636,8.681747974654158,0.1313902493971526
23.312728,8.704411264004856,0.1311966722388074
23.316816,8.72595588668067,0.1310259549813681
23.320908,8.747168334656683,0.13087313069676
23.324996,8.770064491482785,0.1307085841216524
23.329092,8.79284992340895,0.1305488495964751
23.333184,8.814295238860364,0.1304222716432775
23.337276,8.831254469936718,0.1303398540492764
23.341408,8.847992251213205,0.1302700597481015
23.3455,8.866856640939519,0.1301669166755159
23.34964,8.886839697340713,0.130046712848201
23.353728,8.907044203541778,0.1299168070230623
23.35782,8.92937531819267,0.1297545515491761
23.361892,8.95461953326847,0.1295569952674954
23.365984,8.978069314594247,0.1293757771054885
23.370072,9.003756429269785,0.1291571690091749
23.37416,9.027649110195297,0.1289559861543478
23.378252,9.051873965820617,0.1287391939270925
23.38234,9.07945482147058,0.1284680207083289
23.386436,9.104676201195314,0.1282058245942648
23.39058,9.131902046794409,0.1278825747911925
23.394664,9.161586675543134,0.1275149491368594
23.398756,9.191935653691472,0.1271190718818431
23.402848,9.223735473214496,0.1266908741927061
23.406936,9.259567059837304,0.1262157671752367
23.411024,9.300438355334844,0.1256797712532044
23.415112,9.345562867732044,0.1250888088479395
23.419204,9.395505639204108,0.1244498472763275
23.4233,9.445780585375974,0.1238001983570391
23.427436,9.49605553154784,0.1231559133829026
23.43152,9.542520160419793,0.122555628241358
23.435612,9.586968905741848,0.1219821835921324
23.439704,9.631417651063906,0.1214133757713958
23.443856,9.675079904410884,0.1208498118013458
23.447992,9.7237818666326,0.1202305330637001
23.452128,9.773270320829388,0.1196157062571407
23.456216,9.825561150551149,0.1189793781276937
23.460356,9.87942496422306,0.1183441782042694
23.464488,9.934185994769988,0.1177135942763162
23.468624,9.994551776366851,0.1170422175846654
23.472764,10.051561557939076,0.1164219728273874
23.476904,10.10924710658644,0.1158154518890175
23.48104,10.162679438334148,0.1152653402218118
23.48512,10.216787537156996,0.1147240414424188
23.489204,10.266974593779995,0.114227016103846
23.493344,10.315932258828177,0.1137566768476909
23.49748,10.357945056351666,0.1133590198104695
23.501616,10.397720520525391,0.1129961103162962
23.505696,10.436266593124303,0.1126552035439673
23.509832,10.474812665723212,0.1123171478953432
23.513908,10.517058330722106,0.111954527875621
23.518048,10.566138138345751,0.1115349099850593
23.52218,10.617012379719426,0.1111090031494552
23.526316,10.667886621093102,0.1106853911372886
23.530444,10.716412804217072,0.1103000952750889
23.534572,10.76695487089094,0.1099012418674114
23.5387,10.816599720689798,0.109511487020502
23.542828,10.866908919888264,0.1091000134486392
23.54696,10.911502643136853,0.1087357504748152
23.551096,10.950270165535631,0.108422879548218
23.555236,10.9930694550342,0.1080738885210913
23.55938,11.032169152132784,0.1077523766659208
23.563476,11.077427224780983,0.1073736890033758
23.567616,11.12111231347903,0.1069989498789825
23.571704,11.167145460426772,0.1065962496824637
23.575796,11.211605623424362,0.1061974546922142
23.579884,11.262002712171697,0.1057507564272271
23.584024,11.313850642293716,0.1052822613409748
23.588164,11.366141472015476,0.1047990399108772
23.59226,11.419550968412118,0.1043072723308071
23.5964,11.468363655533768,0.1038449520099117
23.600544,11.511571591605472,0.1034238260390321
23.604676,11.55219860195208,0.1030152190681483
23.60876,11.594952220748514,0.1025888144185529
23.612844,11.63814873914469,0.1021488264355995
23.616932,11.674843289615913,0.1017494235868397
23.621064,11.708956914362032,0.1013599290012796
23.625148,11.740943930658323,0.1009939422715042
23.629232,11.77214445497954,0.1006273435165376
23.633316,11.80389860380043,0.1002412902647838
23.637412,11.834866260646244,0.0998583851362657
23.6415,11.864482383341777,0.0994684731592963
23.645636,11.885691379462392,0.0991283502118955
23.64972,11.907011100482944,0.0987856347071933
23.653804,11.924520504203578,0.0984682301142002
23.657892,11.941243415949138,0.098151720775604
23.66198,11.954488185094585,0.0978487441707591
23.666072,11.9630254200651,0.0975737146847821
23.67016,11.970665438160603,0.0973031638489181
23.674248,11.973487197181248,0.0970637859752975
23.67834,11.97484669715167,0.0968196270428498
23.682428,11.975419705147011,0.0965756979666789
23.68652,11.974419729192206,0.0963316256956598
23.690604,11.970617377712424,0.0961032386065118
23.694696,11.966139259157508,0.0958713087246144
23.698784,11.96558218280244,0.0956133319668359
23.702876,11.966930265097329,0.0953444453065554
23.706964,11.968389072292153,0.0950723170395245
23.711056,11.977579238986747,0.0947539594813496
23.715196,11.98845311453143,0.0944335126241597
23.719288,11.999437714976048,0.094110902329835
23.723368,12.011319532295678,0.0937852538800842
23.72752,12.03082198421514,0.0934178798508666
23.731652,12.050324436134604,0.0930519076710445
23.73578,12.068929671179054,0.092688876644434
23.739908,12.089440064873465,0.0923168993036988
23.743988,12.10961828386807,0.0919569218787247
23.748072,12.134504037037605,0.0915741849677263
23.752156,12.16028700708215,0.0911894500598166
23.756292,12.194133511326273,0.0907518225595269
23.760424,12.236165692345436,0.090284573122716
23.76456,12.27741138138952,0.0898178098130891
23.768699999999995,12.31944356240868,0.0893527091831066
23.77284,12.363270177177863,0.0888836790811361
23.776976,12.40295429994733,0.0884457913368453
23.781108,12.4406225391669,0.0880234615911557
23.785248,12.479409445061352,0.0875934663581456
23.78938,12.52010150960576,0.0871568967594547
23.793528,12.554967373300364,0.0867562617336308
23.797664,12.589046745019884,0.0863571761619309
23.801752,12.622228899864396,0.0859633141201268
23.805844,12.657094763558996,0.0855693726180791
23.80998,12.690055468603637,0.0851880403031441
23.814108,12.723802665623356,0.0848094795041824
23.81824,12.765170497242906,0.0843981417651206
23.822372,12.805530387087511,0.0839954270916566
23.82646,12.848914102256956,0.0835764913602176
23.8306,12.888376775226549,0.0831801827042896
23.83474,12.93064182372111,0.082775855971178
23.838884,12.965740554891113,0.0824199246342064
23.843032,12.997361143461005,0.0820740451425159
23.847124,13.030554715981047,0.0817311610886193
23.851264,13.06733715600114,0.0813809392744752
23.855408,13.104008871121296,0.0810362241973852
23.859504,13.147404003966274,0.0806627178170728
23.863648,13.19292574526108,0.0802763880143591
23.867688,13.238336761655953,0.0798964368480954
23.871828,13.276237868350924,0.079544889056719
23.875968,13.312344541295875,0.0791979441931877
23.880116,13.347332547565946,0.0788612157564876
23.884248,13.379296728511171,0.0785416985378525
23.888388,13.412158126331414,0.0782222306867278
23.892524,13.443900857476768,0.0779132503962796
23.89666,13.473284112696897,0.0776017529655975
23.9008,13.49706261686708,0.0773118866384307
23.904931999999995,13.520165353962122,0.0770184826670547
23.909068,13.537884789807096,0.076737867052572
23.913152,13.55884950077678,0.07643567763656
23.91724,13.575106677571531,0.0761510808933671
23.921324,13.592814695740977,0.0758483773744715
23.92546,13.608506830360522,0.0755571488966796
23.929587999999995,13.625317631654951,0.0752586614656912
23.933672,13.638650290349268,0.0749657704973988
23.937752,13.652536573543255,0.0746581786612473
23.941836,13.660928830587244,0.0743654737230885
23.945972,13.66528932053144,0.0740930412288881
23.950104,13.663823609625826,0.0738438321306421
23.954236,13.667065432895145,0.0735786996416107
23.958383999999995,13.672212414814416,0.0733067033695517
23.962524,13.675786412783536,0.0730316136063288
23.966616,13.681487019202484,0.0727432497715287
23.9707,13.681915049271298,0.0724621753453975
23.97484,13.679872878514947,0.0721797034888583
23.978924,13.681530300158576,0.0718880383561849
23.983016,13.682179780027258,0.0716012633951551
23.987148,13.684402243846096,0.0713183042150871
23.991272,13.69391316756496,0.0710202421502586
23.9954,13.699170874384173,0.0707478814642164
23.999528,13.703752814128238,0.0704704149193921
24.00362,13.706883912497618,0.0702104475642712
24.007752,13.707999127317107,0.0699597175576672
24.011852,13.710011559011608,0.0697085497113191
24.015988,13.712810482681183,0.0694594657750682
24.020084,13.712253406326116,0.0692340783190055
24.02418,13.716403864145978,0.0689956026264815
24.028268,13.7253725810407,0.0687410304361216
24.032356,13.742969874310209,0.0684587152476802
24.036496,13.765385426654577,0.068161914159005
24.040632,13.789595412748968,0.0678634475756032
24.044772,13.815156932993649,0.0675748162842217
24.048916,13.841394220313465,0.0672919415801505
24.05306,13.872793359083484,0.0670081415313048
24.0572,13.911480957753534,0.0667129438810092
24.061347999999995,13.944796672849044,0.0664496088729465
24.065484,13.980471863869786,0.0661924647848661
24.069616,14.015028388215647,0.0659438724312348
24.073752,14.045553145461724,0.0657141899884401
24.077888,14.07999894490765,0.0654710069650772
24.082028,14.120393087778853,0.0652299661250075
24.086168,14.164597547949974,0.0649789890007085
24.090304,14.213509542296023,0.064717068169334
24.09444,14.25738182776734,0.0644768318458711
24.098576,14.301819155413863,0.0642456638411287
24.102708,14.345924308360583,0.0640233295461635
24.106848,14.389586561707564,0.063814969831549
24.110984,14.430003539929832,0.0636259066085896
24.115076,14.463475650627412,0.063463304934869
24.119212,14.491575877750453,0.0633308947842716
24.123336,14.51945465507362,0.0632052416397131
24.127456,14.550246532821696,0.0630711739817372
24.131588,14.581935627444784,0.0629368555415192
24.135676,14.6108223465429,0.0628091341665385
24.139764,14.630859039466364,0.062711376229057
24.143896,14.65492749948962,0.0625980887371732
24.148032,14.67742297556272,0.0624812589292353
24.152172,14.700029176535752,0.0623619463314807
24.156264,14.72162743573384,0.0622467475116927
24.16036,14.743901462007072,0.0621371731852518
24.164452,14.7610136368301,0.0620278892192206
24.168592,14.775434161028093,0.0619217693699749
24.172732,14.78335271730113,0.0618277617646523
24.176815999999995,14.793397882023996,0.0617232595792503
24.18096,14.798059745496792,0.0616239459256681
24.185044,14.805180392119222,0.0615055949856713
24.189184,14.805012578841628,0.0613969981836329
24.193324,14.802485289638796,0.0612821215701611
24.19746,14.80197388398586,0.0611595826065906
24.201604,14.803921261482555,0.0610181331067589
24.205636,14.80239049637914,0.0608772408321207
24.209728,14.801081181075594,0.0607311559050025
24.213823999999995,14.797866707122086,0.0605897896005208
24.217964,14.792857799418558,0.0604498876635327
24.222056,14.789078283289848,0.0603001074076873
