Time,Force,Position
29.078959999999995,12.280313894066529,0.1490391897922135
29.083099999999995,12.417629232680726,0.1484959615116546
29.087188,12.53908117154238,0.1479823092343215
29.091272,12.649377244826423,0.1474467027743439
29.09542,12.741351135208296,0.1469752724523776
29.099552,12.817583768413098,0.1465488932753217
29.103688,12.878197287016288,0.146185554185132
29.10782,12.93002583364264,0.1458110673391125
29.111948,12.974088767742622,0.1454416830982722
29.11604,13.010951131491442,0.1450808626358069
29.120172,13.049474368739286,0.1446639797510075
29.12426,13.08585957986177,0.1442508698620217
29.1284,13.120782531934031,0.1438412148591882
29.132544,13.160180150705823,0.1433779410209817
29.136688,13.204617478352349,0.1428665628438775
29.140828,13.244568721623812,0.142389949949626
29.144963999999995,13.279358113445076,0.1419458551529607
29.149104,13.308653479116334,0.1415454429941636
29.153244,13.336375860837435,0.1411521270226226
29.157332,13.365671226508695,0.1407559228590693
29.161424,13.391499867255371,0.1404060666200079
29.165516,13.416774883502375,0.1400766233371112
29.169664,13.445749492149362,0.1397210788850025
29.173756,13.477194301621513,0.1393579765256241
29.17784,13.518729946518665,0.1389237740662932
29.181932,13.561949300265905,0.1384826400882707
29.18602,13.610773405063084,0.1380001791079746
29.190172,13.663640694635586,0.1375065460514836
29.194303999999995,13.71718375128323,0.1370182889457676
29.19844,13.7730862838561,0.1365272157270283
29.202572,13.82473559952932,0.136085801346477
29.206703999999995,13.87515552362772,0.1356631534634675
29.210844,13.929275040126102,0.1352177756355743
29.214988,13.978244122849818,0.134826851019357
29.21912,14.020489787848708,0.1344922120428222
29.22326,14.070810404722708,0.1341111322757558
29.227396,14.127190089921918,0.1337007307225859
29.231528,14.19085823502116,0.1332455228499251
29.235668,14.258004522720514,0.132776368369365
29.239812,14.328961127719785,0.1322850751461662
29.243944,14.404957441593789,0.1317510807060713
29.248072,14.48353468119289,0.1312075295235214
29.252199999999995,14.561890470992124,0.1306780535709939
29.256291999999995,14.637333160366454,0.1301756866127505
29.260424,14.704368723165873,0.129735285527461
29.264556,14.774095936590324,0.1292836095065387
29.268696,14.841807266464889,0.1288531679415695
29.272791999999995,14.904700337264584,0.1284599183614036
29.276936,14.968379900039356,0.128068740822332
29.281071999999995,15.03138369573899,0.1276795142004562
29.285216,15.097189866963594,0.1272748127202528
29.289359999999995,15.165011921738088,0.1268560164392456
29.293504,15.228126442337652,0.1264706874593676
29.297647999999995,15.295051280237136,0.1260627509175919
29.3018,15.367691594086496,0.1256190737311988
29.305932,15.433043448035823,0.1252202757721392
29.310068,15.49570365136012,0.124838626874746
29.314204,15.555782928959312,0.1244718361608219
29.318335999999995,15.61339200573334,0.1241157205250142
29.322475999999995,15.66483128928222,0.1237910639323422
29.326616,15.715926980455764,0.1234584270915837
29.330748,15.765216820203747,0.1231160277766125
29.334888,15.810574200076353,0.1227819582571154
29.339023999999995,15.85782532092338,0.1224181128008522
29.343108,15.90495429919494,0.1220371675256068
29.347244,15.947142875816164,0.1216711644171668
29.351384,15.987525601011836,0.1212947353910625
29.355467999999995,16.03081000895688,0.1208803104210568
29.359608,16.0720671156765,0.1204624067830057
29.363744,16.10894886292099,0.1200630534040784
29.36788,16.144811250715,0.1196531927341121
29.372008,16.182345929683574,0.1192213252751861
29.3761,16.22233939180178,0.1187647611333719
29.380227999999995,16.256605960294575,0.1183227483920459
29.384356,16.28772656088706,0.1178872201249877
29.388496,16.319290061079283,0.1174401979848368
29.392592,16.350731418696043,0.1169778332438118
29.396736,16.38059979236265,0.1165191814256793
29.40088,16.41046816602925,0.1160624929804851
29.404976,16.444036132095835,0.1155898149694961
29.409071999999995,16.475477489712596,0.1151357898375712
29.41316,16.50860255617944,0.1146797153236253
29.417296,16.540387506171534,0.1142394575899558
29.421384,16.570610889889007,0.113822933976625
29.425476,16.605885400156748,0.1133955932043977
29.429607999999995,16.64665393657449,0.112946160425882
29.433699999999995,16.688774007142527,0.1125030783962923
29.437791999999995,16.731459119885763,0.1120680814690735
29.44188,16.773812057929195,0.1116434559105547
29.44602,16.82098325504749,0.1111944069569351
29.450171999999995,16.869616711216008,0.1107505211821757
29.454308,16.916799326009837,0.110327912964741
29.458459999999995,16.96577637455369,0.1099020468194736
29.462588,17.019915274547746,0.1094640196150397
29.466719999999995,17.076635100266902,0.1090222245654164
29.470856,17.138283909960858,0.108556605256053
29.474988,17.20139497870503,0.1080960589823305
29.479124,17.26573543902402,0.1076268302264927
29.483264,17.330408074042815,0.107152228300413
29.487404,17.390483899786613,0.1066981046190159
29.491536,17.45134621750549,0.1062455353761802
29.495612,17.512884302299515,0.105798988618476
29.499744,17.578454154193317,0.1053311719223944
29.503879999999995,17.644245455886992,0.1048603865168354
29.508012,17.71036893228047,0.104386456568468
29.512152,17.778508292223844,0.1039073948305603
29.516284,17.848442085917238,0.1034257707596481
29.520416,17.92017031336066,0.1029426491675497
29.524556,17.994700916329048,0.1024514915609071
29.528644,18.070583053447724,0.101969533097864
29.532772,18.14556797369139,0.101494155773555
29.5369,18.220774343734924,0.1010170299720072
29.541032,18.294640597303705,0.10055663716867
29.545168,18.370412009522443,0.1000931945822777
29.549308,18.445396929766112,0.0996338363958437
29.553448,18.519041733535023,0.0991918856116483
29.557584,18.593694479078884,0.098748484336076
29.561724,18.67182536722285,0.0983020951939464
29.565867999999995,18.74894831359188,0.0978632868353539
29.570012,18.83200818571065,0.0974004346013469
29.574155999999995,18.917637565878984,0.096919209438939
29.578292,19.001915411897038,0.0964365467037135
29.582428,19.088319866364923,0.0959465908233885
29.586568,19.17404855375766,0.095456733172612
29.590696,19.2542832150004,0.094986088569248
29.594832,19.32622147456816,0.0945438693134247
29.598976,19.3970296497855,0.0940949835331008
29.603116,19.46480258200247,0.093646285381481
29.607248,19.531445429869024,0.0931910271959318
29.61138,19.5970689182851,0.0927270644455311
29.615516,19.662348814325835,0.0922563926027643
29.619644,19.72907955174126,0.091775695481887
29.62378,19.796696088356164,0.0912795191707794
29.62792,19.85836428154579,0.0907934674460868
29.632008,19.918680940585133,0.0903050107276172
29.636143999999994,19.976073081524035,0.0898131723467006
29.640276,20.03143792123751,0.0893163696691577
29.644412,20.079957200650696,0.0888304721462127
29.64854,20.128132887688547,0.0883366907138977
29.652688,20.1711467232762,0.087852091979076
29.65682,20.20989592428866,0.0873744217393044
29.660968,20.244491215625867,0.0868999854569397
29.665052,20.275264771987622,0.086423573337094
29.6692,20.30591618577391,0.0859346966662861
29.673344,20.33835061563469,0.0854271775154898
29.677499999999995,20.374473220219915,0.0848955706198426
29.681596,20.409355015554794,0.084358393026625
29.685744,20.43986145141455,0.0838278054447447
29.689896,20.46890562822408,0.0832958569575802
29.693988,20.495025286933178,0.0827590570625349
29.698124,20.51900691951691,0.0822175908610962
29.702203999999995,20.53894536732533,0.0816771416550345
29.706284,20.55595929703331,0.0811314515756563
29.710376,20.57274035926588,0.0805745377132602
29.714403999999995,20.58705122067329,0.0800184854753409
29.718488,20.60180498168044,0.0794549296346361
29.722572,20.614985758737436,0.0788910115938777
29.726664,20.631522535819077,0.0783109565244178
29.730704,20.65231252980037,0.0777150987910826
29.734736,20.67623707400644,0.0771084254966218
29.738772,20.70408266041236,0.0764923418303782
29.742808,20.73753299786822,0.0758659532953291
29.746844,20.77054043572434,0.0752498022428255
29.750927999999995,20.806239524205505,0.0746327564683289
29.755019999999995,20.84474098821164,0.0740129419177646
29.759111999999995,20.88212378554288,0.0734007386966192
29.7632,20.91726924952437,0.0728003824271166
29.767292,20.96014607300562,0.0721826516938379
29.77138,21.00190422981199,0.0715718164327711
29.775512,21.04501392076865,0.0709692477991052
29.779652,21.090704537450403,0.0703681190945244
29.783792,21.135952254532423,0.0697766758891005
29.787884,21.179306230640016,0.0692058261650089
29.792024,21.22591689954785,0.0686393014577167
29.796164,21.276902927930813,0.0680723334859695
29.800248,21.32856472338891,0.0675110176176101
29.804388,21.382807444572112,0.0669515010622725
29.808476,21.436496541255643,0.0664048262397253
29.812616,21.48301932061461,0.0658824029694515
29.8167,21.527415491523747,0.0653700022629638
29.820784,21.5677798953331,0.0648709448167753
29.824928,21.60343676496752,0.0643813730273792
29.82902,21.63830714262686,0.0638916564433786
29.83316,21.669256478086357,0.0634125951719204
29.837256,21.694268887796103,0.0629488782169794
29.841344,21.719957064581,0.062489779651936
29.84544,21.74923410886593,0.0620291460664191
29.849532,21.772352777601256,0.0615876562793815
29.853663999999995,21.79625793831165,0.0611483412343506
29.857748,21.818036490572226,0.0607169934420188
29.861836,21.831862233533155,0.0603040206731134
29.865928,21.84288560096912,0.0598944873465975
29.870016,21.855138359979893,0.059478616574455
29.874108,21.86447801856577,0.0590690801870181
29.878248,21.866307767451744,0.0586696489910688
29.882332,21.863995024338,0.0582820065008171
29.886472,21.85765051412446,0.0579043701012555
29.890604,21.847606411510945,0.0575304286152457
29.89474,21.83957819244732,0.05715134188764
29.898776,21.824826555658877,0.0567820849627253
29.902864,21.809177701995416,0.0564129006206778
