Time,Force,Position
32.666672,10.630262616316015,0.1555502362261433
32.670807999999994,10.726909787846218,0.1547804330374254
32.67494,10.807804284523815,0.154053471334876
32.679072,10.876657116424322,0.1533477638927246
32.683208,10.928550717248472,0.1527550221219496
32.687348,10.978527741747133,0.1521557952980245
32.691492,11.033888067495862,0.1515070308297909
32.695623999999995,11.096769720620026,0.1508109001350685
32.699755999999994,11.158200532369504,0.1501495797613194
32.703896,11.216596101118611,0.1495022028502905
32.708028,11.268023966991958,0.1488870444065545
32.712176,11.3112433207392,0.1482982848534503
32.716311999999995,11.342443845060416,0.1477787082331391
32.720444,11.368249650456027,0.1472834995187325
32.724576,11.394719805251247,0.1467618145543435
32.728704,11.417822542346292,0.1462675230554495
32.732831999999995,11.438344353716236,0.1457945432159704
32.736968,11.450791213211073,0.1453940420157538
32.741104,11.455827470230414,0.1450380033514955
32.745236,11.451880140824104,0.1447317886699147
32.749376,11.44735635156705,0.1443907723302493
32.753516,11.442378245034726,0.1440400084969639
32.757659999999994,11.43515138747711,0.1436942770999928
32.761799999999994,11.428367429519229,0.1433304598390593
32.76594,11.426623180436083,0.1429055216813446
32.77008,11.427116264702695,0.1424478677094625
32.774207999999994,11.42233677261918,0.142030985878933
32.77834,11.406790678035518,0.1417034453087247
32.782472,11.394379133676631,0.1413356615113146
32.786596,11.381856864417808,0.1409718422953669
32.790732,11.375615113284068,0.1405568811438393
32.794867999999994,11.371400663375756,0.1401462909788255
32.79900799999999,11.370221456467815,0.1397280632410412
32.803096,11.36949656683515,0.1393206448349488
32.807176,11.369336719377689,0.1389202460214726
32.811311999999994,11.366939538570469,0.1385518962878749
32.815444,11.366447516413205,0.1381652068928885
32.819579999999995,11.369987261355725,0.1377314484685143
32.823708,11.378123815573243,0.1372582642375325
32.827839999999995,11.391422221240958,0.1367518372096723
32.831979999999994,11.407190827733844,0.1362350350405222
32.836116,11.425086042676556,0.1356946266454914
32.840252,11.445783633144236,0.1351314211680012
32.844384,11.466259773812048,0.1345785988926339
32.848471999999994,11.48730095665507,0.1340355290444383
32.852604,11.50789923989835,0.1335125211792707
32.856731999999994,11.531864940841809,0.1329720099438082
32.860868,11.565356435035056,0.1323442356711027
32.865004,11.596942770578346,0.1317372505327556
32.869144,11.6333473651965,0.1310888408378563
32.873276,11.66515515053966,0.1304809226618144
32.877412,11.699200269232584,0.1298462275128481
32.881552,11.736712112850087,0.1291673169527196
32.885692,11.77466685606733,0.1284737914508361
32.889824,11.81485893263434,0.1277568108747967
32.893967999999994,11.85986926827621,0.1269998302880169
32.898095999999995,11.9037609372432,0.1262608432316658
32.902232,11.950012082135416,0.1255217526492492
32.906364,11.996152502127702,0.1247929253060513
32.9105,12.041617155044843,0.124066648744264
32.914632,12.084279432437016,0.1233645396878226
32.918768,12.123917884504348,0.1226966810182916
32.9229,12.16333488677181,0.1220420287871683
32.927032,12.20353838101435,0.1213882730249987
32.931168,12.245536309006912,0.1207294539731249
32.9353,12.290336612524444,0.1200554951120081
32.939432,12.337828566667014,0.1193705669638229
32.943572,12.382075245684875,0.118727170013315
32.947708,12.429124300227704,0.1180683190481811
32.95184,12.469339212145778,0.1174679324838706
32.955976,12.513142991563893,0.1168500562722046
32.960108,12.555495929607329,0.1162604088737328
32.964243999999994,12.592476984076225,0.1157298630451011
32.968384,12.63159606467048,0.1152071973667486
32.972524,12.667248420340156,0.1147296928137665
32.976656,12.698869008910046,0.1142894584204196
32.980796,12.72948165570499,0.1138586790156155
32.984936,12.758410593649844,0.1134367172606282
32.989079999999994,12.785545097844675,0.1130264759345199
32.993216,12.80864783493972,0.1126506399271166
32.997356,12.835671614234617,0.1122466473043539
33.0015,12.85989301800454,0.1118602609383957
33.005592,12.882652162724249,0.1114737755708676
33.009688,12.903949048393732,0.1110861638100148
33.01382,12.919076140838072,0.1107277400519611
33.017951999999994,12.92512033963236,0.1104180338426684
33.022084,12.92701062875139,0.11012044622375
33.026219999999995,12.928557325495085,0.1098091108638081
33.030364,12.927523096513678,0.109508132754504
33.034499999999994,12.933323010157029,0.1091588707497789
33.038636,12.936652722975216,0.1088163107684648
33.042772,12.940757510092944,0.1084488803484625
33.046907999999995,12.947996847435451,0.1080542232473185
33.051044,12.951979491977712,0.1076662445892765
33.055184,12.953602660594743,0.1072791553239953
33.05932,12.95925759631156,0.1068618952271812
33.063455999999995,12.969730791103242,0.1064148524084029
33.067544,12.980203985894924,0.105969291947333
33.071672,12.989447789111788,0.1055388918519995
33.075799999999994,13.005525734953409,0.1050636314117568
33.079927999999995,13.01622037954496,0.1046131050021408
33.084056,13.03464638363628,0.1041150917059162
33.088196,13.05151082145298,0.103643058757668
33.092336,13.070058968119769,0.1031680871671445
33.096476,13.091298765411592,0.1026816520612353
33.100612,13.122064355953208,0.1021399137752861
33.104752,13.153727163369837,0.1015957758746111
33.108836,13.187073679636551,0.1010506936466782
33.112924,13.218182862553508,0.1005277039660609
33.117016,13.244019469120325,0.1000257548537031
33.121156,13.268626684112323,0.099538881660288
33.1253,13.292004507529509,0.0990681822225724
33.129392,13.31347717229673,0.0986091908105988
33.13348,13.339657371238888,0.0981282082157763
33.137615999999994,13.372450263005929,0.0976144140746617
33.14176,13.40176501217286,0.0971134919054387
33.145892,13.426704401864663,0.0966287808965624
33.150028,13.449062865831367,0.0961514956897415
33.15416,13.4758959964976,0.0956355928629378
33.158292,13.498918809863913,0.0951425970508092
33.162428,13.531356691580084,0.0946077149860704
33.166568,13.558189822246314,0.0941019133461401
33.170655999999994,13.590616286286952,0.0935496924388106
33.1748,13.624272141902408,0.0929875263295254
33.178928,13.659268113992614,0.0924114453745587
33.18306,13.69067521858277,0.0918511333132846
33.187192,13.727011307147729,0.0912676564217545
33.191323999999994,13.760655745087648,0.0906949110065894
33.195468,13.802585167027011,0.0900709579529892
33.199608,13.847427689391283,0.0894344621545061
33.203748,13.896069111379935,0.0887604715347236
33.207871999999995,13.94728004141816,0.0880626010948293
33.212004,14.004084304830789,0.0873244594843026
33.216131999999995,14.055726716793217,0.0865995993311496
33.220264,14.10534182753022,0.0858694652185498
33.224408,14.157194271616987,0.0851250740890756
33.228548,14.212402715728397,0.0843588390660721
33.232684,14.271077884764388,0.0835666154603951
33.236771999999995,14.326274911200263,0.0827859438200982
33.240908,14.384152170585644,0.0819804098701411
33.245003999999994,14.43485169497093,0.0811998783248706
33.249143999999994,14.487112785630837,0.0804013543940137
33.253288,14.53197469149078,0.079629462670933
33.257424,14.576271555175518,0.0788552048874864
33.261576,14.6215763606352,0.0780807388019515
33.26571199999999,14.668221282569634,0.0772960409478417
33.269848,14.706680527729027,0.0765351057482235
33.273979999999995,14.746812064062976,0.0757534340745417
33.278116,14.77864719872195,0.0749987757492137
33.282248,14.807790682755888,0.0742512667573366
33.286387999999995,14.83469683344006,0.0735228761535289
33.290527999999995,14.858579158799396,0.0728113266518226
33.294608,14.87652455840898,0.0721275350682345
33.298736,14.89379419094343,0.0714390928228185
33.30282,14.905913389703208,0.0707765484771365
33.306956,14.916238154712962,0.0701186845118442
33.311091999999995,14.921412485948048,0.0694866888667095
33.31522399999999,14.92603319268346,0.0688714509295436
33.319356,14.93233760826896,0.0682577567018674
33.323435999999994,14.933602314979725,0.0676659889951269
33.32752,14.932961863040532,0.0670791680168686
33.331608,14.931989236401536,0.0665020292990893
33.335744,14.933708260387572,0.0659204581319145
33.339887999999995,14.930609025298748,0.065353197416197
33.34402,14.924707414684953,0.0647932112941562
33.348156,14.91645774582146,0.0642503698549251
33.352284,14.911796944458017,0.0637026284125144
33.356412,14.906361068795023,0.0631756371766199
33.360544,14.900482293532296,0.0626587706781451
33.364676,14.90020826931951,0.0621318549793901
33.368815999999995,14.901728678856747,0.0616045643280118
33.372912,14.90302763859411,0.0610830815284692
33.376952,14.906907524056576,0.0605624260172836
33.380984,14.913933377419353,0.0600502178459988
33.385112,14.926563981832064,0.0595280570320012
33.389247999999995,14.936735803095146,0.0590241944093801
33.393348,14.94780484123324,0.0585189868335064
33.39738,14.955960778946428,0.0580221153530947
33.401508,14.95795834111,0.0575485751309341
33.405596,14.96253682899867,0.0570757630206461
33.409732,14.968688300837496,0.05660702919477
33.413867999999994,14.970918730476471,0.0561487341755132
33.418008,14.971022551665618,0.0556995545637569
33.422096,14.971802139929906,0.0552541445681935
33.426236,14.96473964379449,0.0548276196056912
33.43038,14.954088280159024,0.054401770849319
33.434535999999994,14.935705557023793,0.053991956222577
