Time,Force,Position
36.457512,8.991353563625326,0.1506712720047178
36.461592,9.045652311076845,0.1500753818529114
36.465732,9.090822494176171,0.1494594509343383
36.469808,9.123065213298934,0.148911279565206
36.473892000000006,9.146545795795916,0.1484236043215221
36.478028,9.167678320043198,0.1479869988487546
36.482116000000005,9.190727420615971,0.1475645477665044
36.486192,9.213234314364604,0.1472083010169336
36.490272,9.237768509338665,0.1468568502850649
36.494404,9.268018180262594,0.1464299619137799
36.498540000000006,9.296916317036244,0.1460028574104108
36.50268,9.319423210784876,0.1456523067205381
36.506824,9.338894861533136,0.1453146808613796
36.51095599999999,9.360382395831287,0.1449476153266839
36.515092,9.376043729279628,0.1446617251409744
36.519228,9.396645464378302,0.1443440941744339
36.523368000000005,9.418709458527196,0.1440245715185629
36.52750399999999,9.441781394451032,0.1436916759602889
36.531588,9.470900981024553,0.1432726001148025
36.535736,9.49485871614787,0.1429002842120647
36.539868,9.517686366920774,0.1425160527772908
36.544,9.543083525743246,0.1420789661786575
36.548128000000005,9.5620894415407,0.1417106805430656
36.552252,9.580198140463144,0.141352350271471
36.55638,9.598982606460726,0.1409960302183719
36.56052,9.62381472310799,0.1405593657809065
36.56466,9.648646839755257,0.1401272050846527
36.5688,9.674708347977337,0.1396723141671913
36.57294400000001,9.704801623299202,0.1391669052481956
36.57703600000001,9.736578607471156,0.1386564685662351
36.58118,9.76914208361819,0.1381458308625806
36.585324,9.803610718415182,0.1376137495132225
36.58946,9.83842294558751,0.1371008084028933
36.593608,9.874132389634852,0.1365834140076778
36.597744000000006,9.916343801607148,0.1360035729137509
36.60188,9.956085012754276,0.1354433870703939
36.60602,9.998850049226244,0.1348486450608185
36.610148,10.041504360798276,0.1342620874993223
36.61428,10.082364238620285,0.1336987428911843
36.61836,10.127145158642143,0.1330933709236564
36.6225,10.173609787514096,0.1324833350148129
36.626584,10.219177199511035,0.1318879904000157
36.630664,10.270005770182577,0.1312228747546653
36.63474,10.322174457328869,0.1305342145932741
36.638824,10.379825752949634,0.1297737719559699
36.642956,10.425259604695572,0.1291329111920305
36.6471,10.466650271666188,0.1285114611020417
36.65124,10.50691085428639,0.1278788535286723
36.655376,10.539207209931424,0.1273071870430075
36.659508,10.567681830601003,0.1267465441990194
36.663648,10.594018425145228,0.1261846003739776
36.667732,10.620011427314113,0.1256075657452632
36.671868,10.644087853157504,0.1250178292425651
36.676008,10.667488511925754,0.1244286830472699
36.680096000000006,10.683489985894038,0.1239048788252706
36.684184,10.698704967887249,0.1233846517382424
36.68832,10.7120147912305,0.122885356932454
36.692452,10.722854413748584,0.1223963465265713
36.696584,10.731899602516645,0.1219221220960779
36.700716,10.739261082434616,0.1214587078919797
36.704844,10.740563494027375,0.1210303361923244
36.70897600000001,10.740071471870111,0.1206156540096927
36.713108000000005,10.737342116363084,0.1202327881403269
36.717248,10.738312353256038,0.1198234150436421
36.721336,10.72931389729946,0.1195152094969695
36.725428,10.730959901267555,0.1191088226734577
36.72952,10.732495180335716,0.1187061285791981
36.733656,10.73492767627889,0.118298547369508
36.737796,10.742067706396996,0.1178519301734895
36.74188,10.748199794740149,0.1174162555893057
36.746016,10.757023533708342,0.1169644802263119
36.750156,10.7657365477766,0.1165181186327072
36.7543,10.777251937369824,0.1160508487950457
36.75843999999999,10.787870110088038,0.1155906149468651
36.762584,10.799385499681264,0.1151230840024158
36.766716,10.811908831049436,0.1146469674604073
36.770852000000005,10.824764337117411,0.1141594760482929
36.77498799999999,10.8434460440352,0.1136235357007689
36.779076,10.863922184703013,0.1130791335111433
36.783212000000006,10.88529554224584,0.1125326791576455
36.787344,10.913957359688691,0.1119409755424696
36.79148000000001,10.943516394006554,0.1113463777886591
36.795616,10.97498058697438,0.1107398455216563
36.7997,11.000729303992326,0.1101816627865247
36.803844,11.037122480934949,0.1095392307247575
36.807928,11.070602557452665,0.1089266499023433
36.81206400000001,11.10778222637036,0.1082920715669502
36.816204,11.144851170388126,0.1076657775129878
36.82033199999999,11.183825273055849,0.1070308953911944
36.824468,11.22560175124854,0.1063809219358098
36.828608,11.266591737466154,0.1057363395216463
36.83270400000001,11.310826998808478,0.1050622549830714
36.83684,11.354165043275792,0.1043966192023788
36.840928000000005,11.397835262442907,0.1037213944568907
36.84506,11.444750756734736,0.1030137492581963
36.849188,11.48987181727654,0.1023178231952469
36.85331600000001,11.533087719168384,0.1016377836359613
36.857444,11.569912378035214,0.1009960059354395
36.86158399999999,11.603369619201866,0.1003653468135872
36.865728,11.63223005109352,0.0997612316501398
36.869868,11.654920689760033,0.099184776778493
36.874004,11.674022460926494,0.0986251234067657
36.87814,11.691551248142805,0.0980679325643291
36.882284,11.710198702033994,0.0974992331381842
36.886376,11.722454912900163,0.0969665494306716
36.890516000000005,11.73280596511638,0.096446738727418
36.894664000000006,11.741473308482504,0.095932601497326
36.898752,11.747449001223591,0.0954304246544612
36.90284,11.750622318439712,0.0949455794725898
36.90698,11.751890477005873,0.0944735837584025
36.911076,11.750245535147124,0.0940206941487034
36.915172,11.742442217738766,0.0936175885458171
36.919308,11.733520233655526,0.0932257999676112
36.92344,11.724598249572283,0.0928341238123068
36.927580000000006,11.715897715288914,0.0924352958978714
36.931708,11.70741863080541,0.0920282149150564
36.935792000000006,11.7009554298718,0.091606746389351
36.939872,11.69785964663837,0.091179327032684
36.94400400000001,11.696558297154963,0.0907450839737106
36.948148,11.698170048096465,0.0902926652489458
36.952288,11.70448933321289,0.0898167090689542
36.95642,11.711140793029124,0.0893276343267722
36.960556,11.715997819095332,0.0888451081462721
36.964692,11.719171136311449,0.0883650400075821
36.968828,11.723130945502644,0.0878860873060444
36.972976,11.728430871168593,0.0873889945817354
36.977112000000005,11.736533172359511,0.086881136747047
36.981248,11.747437849075398,0.0863610446650401
36.985336,11.759461192466167,0.0858319479040166
36.989468,11.768682160331968,0.0853151006129004
36.993564000000006,11.77902179487265,0.0847873858150489
36.997692,11.794622588087933,0.0842192418484259
37.001784,11.816049582153028,0.0836224061409096
37.005876,11.83804161839333,0.0830363359131449
37.010004,11.859590755033889,0.0824683709428855
37.014092000000005,11.883720817399553,0.0818985323264834
37.01822,11.907407980165477,0.0813462155816465
37.022356,11.933221751381229,0.0807810828322154
37.026492000000005,11.959822014572058,0.0802193590220237
37.03062799999999,11.986422277762887,0.0796595065529375
37.034764,12.008880048953994,0.0791295836897162
37.038904,12.038515555145192,0.0785834686166911
37.043052,12.0736450874864,0.0780227682733245
37.047192,12.108774619827608,0.077462347816858
37.05134,12.140315284668766,0.0769109907582804
37.055476,12.173539658360012,0.0763622720701845
37.059612,12.200040614326438,0.0758447852741199
37.063748,12.226763020092736,0.0753229037295573
37.067876,12.248777891684108,0.0748192558840656
37.072008,12.27594319705014,0.0742849526081829
37.076148,12.303329952216048,0.0737445948708477
37.080288,12.32981949050694,0.0732101098109228
37.084416,12.3510364524477,0.0726874525401622
37.08855200000001,12.374933647337958,0.0721363065697553
37.092692,12.39826580005301,0.071578512959447
37.096828,12.418119810167951,0.0710258771590009
37.100976,12.437065185732347,0.0704501298290211
37.105112000000005,12.451745926721554,0.0698778866536982
37.109248,12.466193800235356,0.0692883520446574
37.11338000000001,12.480187356473888,0.0686876421584529
37.117508,12.495963928786908,0.0680576818693316
37.12164,12.503100507049613,0.0674337380181212
37.125776,12.499691932612048,0.0668192662432458
37.129916,12.49414533204912,0.0661892887113149
37.134052,12.488255139110857,0.0655398300570964
37.138184,12.470922576597308,0.0648968506951517
37.142324,12.451219120482998,0.064214910657602
37.146412,12.417049469468562,0.0635496789967416
37.150552000000005,12.379168808378612,0.0628586879727873
37.154648,12.32491679373858,0.0621881334284573
