Time,Force,Position
32.773447999999995,10.835971832031923,0.1516738948704225
32.777576,10.906378264386914,0.1512073422468506
32.781712,10.96719039743891,0.1506805771057769
32.785847999999994,11.016858082588834,0.1501620335647941
32.789984,11.056522821862623,0.1496906872073049
32.794124,11.092709418536302,0.1492549631043218
32.798255999999995,11.120943205910343,0.1489214546128666
32.802384,11.156686902984283,0.14850902424561
32.806504,11.191987700458483,0.1481181409618113
32.810635999999995,11.227842122432358,0.1477027349814086
32.814772,11.263906576530571,0.1472531910254841
32.818912,11.290876719303196,0.1468612656209739
32.823044,11.31536524357512,0.146456909131141
32.827183999999995,11.327514181396753,0.1461568998570044
32.831323999999995,11.336750018793476,0.1458900766113881
32.835463999999995,11.347104522865084,0.1456066872085891
32.839611999999995,11.3603721273616,0.1452910624466379
32.843751999999995,11.37318541458284,0.1449658538677676
32.8479,11.389908326328396,0.1445675799531729
32.852032,11.407959936873176,0.1441157038830636
32.856156,11.425889404842486,0.1436423476113266
32.860296,11.442467338661512,0.1431686605418848
32.864432,11.454337738305608,0.1427435537039751
32.868559999999995,11.464978746374888,0.1423404094201274
32.872699999999995,11.476295521519312,0.1419396976428973
32.876836,11.483469804664011,0.1415912427294254
32.880972,11.494122230408829,0.1412170475102827
32.885104,11.49984567217884,0.1408990655247299
32.88924,11.503553230398962,0.1406048209589436
32.893324,11.513430581844236,0.140265627987135
32.897459999999995,11.520738425239934,0.139973475063437
32.90154,11.53388388716098,0.1396484401074521
32.905672,11.548159433432437,0.1393365668311428
32.90982,11.568161873329306,0.138995754430602
32.913951999999995,11.596349990001212,0.1385891907658571
32.91804,11.627351899873624,0.1381880610586167
32.922172,11.65858667722144,0.1378085383433805
32.926308,11.688259888294631,0.1374626222430883
32.930436,11.71648225799314,0.1371479408125729
32.934563999999995,11.74213511964208,0.1368785637579878
32.938696,11.762969722216155,0.1366569158839908
32.942796,11.78055904966552,0.1364776420387436
32.946895999999995,11.80016426066478,0.136276577293849
32.950996,11.8220068050138,0.1360459879288241
32.955092,11.843284307187618,0.1358102146891568
32.959188,11.866123375636056,0.1355413130871481
32.963283999999994,11.888618851709154,0.1352584677137142
32.967424,11.912232994457137,0.1349603929570655
32.971564,11.938416645254684,0.1346196392590943
32.975704,11.9596598944019,0.1343047665187565
32.979844,11.977646450748876,0.1340028617113792
32.983988,11.993605705870424,0.133696397913485
32.988124,12.0065297179916,0.1333950604379523
32.992268,12.018545095562231,0.1330737792536026
32.99636,12.02046963770786,0.1328332052638405
33.000448,12.015437894653267,0.1326357030551217
33.004535999999995,12.009054617448388,0.1324343689717962
33.008616,12.00782177401818,0.1321764067611244
33.012704,12.00490522173788,0.1319270027129733
33.016848,12.000194235707555,0.131689658424098
33.020931999999995,11.997388408327192,0.1314347469772355
33.025064,11.995025480546568,0.1311622427722141
33.029191999999995,11.992662552765944,0.1308902579200315
33.033328,11.986267857885531,0.1306605597631276
33.03746,11.978754496330238,0.1304454398073416
33.041592,11.972027626750023,0.1302280704250558
33.045668,11.962276931844965,0.1300417764295604
33.049748,11.951629020064896,0.1298615573411044
33.053832,11.940427483785154,0.1297023090030492
33.057916,11.926877889255714,0.1295761889478454
33.062048,11.915344178276168,0.129428886574185
33.066184,11.902802525521675,0.1292916964674789
33.070324,11.892952523392218,0.1291356845677972
33.074408,11.885240547388122,0.1289822822811559
33.078544,11.88414126420891,0.1287734577220986
33.082684,11.889543948954657,0.1285135863872447
33.086816,11.895954575475344,0.1282441009549933
33.090948,11.898333434896244,0.1280164661899961
33.095084,11.901498786292226,0.1277869779650183
33.099219999999995,11.911387555413024,0.1274996910855297
33.103364,11.924754467133942,0.1271937308833115
33.107499999999995,11.946085605830026,0.1268412652157143
33.111632,11.96798178670132,0.126496904041908
33.115711999999995,11.99425332704774,0.1261283854645261
33.11984,12.022995068219323,0.1257516315760306
33.123971999999995,12.057120110640978,0.1253442451122759
33.1281,12.098755062762532,0.1248814224374076
33.132236,12.144200332184,0.1243905371977238
33.136371999999994,12.189645601605472,0.1239015552061193
33.140512,12.24001985500174,0.1233703684847229
33.144652,12.294880192773066,0.1228151099365089
33.148792,12.351424239394484,0.1222544512324527
33.152936,12.407857561115968,0.1217007292652573
33.157032,12.462939348687168,0.121146335408634
33.161168,12.514210818958446,0.1206243611749385
33.165256,12.562901363504627,0.1201179939262502
33.169352,12.610362516475991,0.1196306539684303
33.173488,12.659163785922106,0.119124459133462
33.17764,12.709083722043104,0.1186069672592021
33.181771999999995,12.758217166189024,0.1180969080574117
33.185908,12.80689629305967,0.1175807850381104
33.190044,12.845927484105054,0.1171152257220239
33.19418,12.884615082775102,0.1166379918537929
33.198316,12.92206187219481,0.1161545153054302
33.202452,12.95826785236416,0.1156637788434963
33.206596,12.987185372633482,0.1152183406457071
33.210736,13.01542712582766,0.1147753167217096
33.214872,13.042660937246897,0.1143437923132989
33.219007999999995,13.0704483731658,0.1138954817175103
33.223147999999995,13.096441375334685,0.1134590881221898
33.227287999999994,13.119853451778466,0.1130354567070358
33.231424,13.1471865704221,0.1125861814918522
33.23556,13.174962588665473,0.1121242371117131
33.239688,13.201619940233968,0.1116754960810714
33.243815999999995,13.23040390025229,0.1112081582947414
33.247955999999995,13.257393426520586,0.1107498372900135
33.252088,13.28493657728856,0.1102743866202959
33.256228,13.31247972805653,0.1098011307388158
33.260372,13.34326815394921,0.1093008229061828
33.264508,13.370356987441909,0.1088229382658369
33.26866,13.395651387184582,0.1083554150082223
33.2728,13.425542596202256,0.1078638392803434
33.276944,13.4536393714699,0.1073818318921949
33.28108,13.48094965476247,0.1069021836282538
33.285216,13.509157154930053,0.1064202894848988
33.289352,13.541396422197415,0.1059095430192776
33.293484,13.56792021351491,0.1054351444924732
33.297616,13.59208452890717,0.1049634202331678
33.301759999999994,13.617256786074377,0.1044870269235428
33.305896,13.639848117516484,0.1040192995204146
33.310036,13.662771623658395,0.1035431139869299
33.314167999999995,13.680422553450173,0.1030884424007116
33.3183,13.694263165942033,0.1026556986102456
33.32244,13.709443894908643,0.1022066606023318
33.326588,13.722940915025166,0.1017623648635284
33.33072,13.743272077766443,0.1012780280554203
33.334855999999995,13.765619124057618,0.1007820020827021
33.338984,13.788187620148658,0.1002812559066464
33.343112,13.80795374071473,0.0997976227163846
33.347244,13.831640903480652,0.0992922714228426
33.351375999999995,13.855549516046445,0.0987815587063491
33.355512,13.882481953937075,0.098254383953876
33.359607999999994,13.909525116727645,0.0977244453050643
33.363744,13.932979412018163,0.0972073233220529
33.367884,13.9576630988835,0.096679639705985
33.37202,13.97987658492367,0.0961567444254218
33.376168,14.005224621188615,0.0956119795314108
33.380308,14.035280191628493,0.0950481086667871
33.384452,14.061636169668382,0.0945013965075918
33.388583999999994,14.09303185658301,0.0939254892584205
33.392716,14.122633109747612,0.0933573856040255
33.396843999999994,14.152455812712084,0.0927837081207752
33.400988,14.189223383201249,0.0921724867498898
33.405116,14.2250937368154,0.0915666933208717
33.4092,14.262869249079513,0.0909539595326587
33.41328,14.294032068518735,0.0903739279172206
33.417416,14.322281787533052,0.0898107714683254
33.421552,14.346831914147389,0.0892624050277097
33.425692,14.370484823886711,0.0887186452380907
33.42982,14.387857215500954,0.0881943708052612
33.433955999999995,14.405229607115194,0.0876713643044838
33.438088,14.419013131229388,0.0871613289290045
33.442224,14.43301810514345,0.086645393179307
33.44636,14.45251710520752,0.0861117970962951
33.4505,14.468205787971671,0.0855956245176889
33.454636,14.486475396460923,0.0850769902447201
33.458724,14.503847788075168,0.0845623460747872
33.46286,14.514718211764457,0.0840718225415794
33.466988,14.526375127428826,0.0835819438628741
33.471115999999995,14.532992334218456,0.0831203565517859
33.475204,14.544538524982892,0.082637161620263
33.479327999999995,14.555973990847388,0.082157473119173
33.483467999999995,14.565393573161993,0.0816912691712735
33.487612,14.575931822151476,0.0812181389621877
33.49176,14.585794304065818,0.0807423002712925
33.4959,14.60025359525516,0.0802544638903425
33.50004,14.617515261969464,0.0797589385363796
33.504188,14.637690029108676,0.0792516368880068
33.508284,14.654275928747838,0.0787520429099028
33.512424,14.674339970987116,0.0782475610487633
33.516516,14.695522679901272,0.0777369044114461
33.520655999999995,14.716705388815434,0.0772277212771212
33.524795999999995,14.741587690129574,0.0767105114095332
33.528932,14.769715266568424,0.0761773835517853
33.533068,14.799072234582091,0.0756341538034148
33.5372,14.824951059995648,0.0750964284838946
33.541284,14.850375568133927,0.0745499804329154
33.54542,14.879610393572126,0.0739918143945607
33.549504,14.911193277260026,0.0734173545500327
33.553647999999995,14.945013494297688,0.0728288511009123
33.557787999999995,14.973904727360546,0.0722631471281298
33.561927999999995,15.006606277723328,0.0716881082091097
33.566012,15.036726902361004,0.071116925566871
33.570144,15.061918543023886,0.0705650710823134
33.574279999999995,15.085991517011884,0.0700216928754832
33.578416,15.104681189749812,0.0694879175082191
33.5825,15.121908603437522,0.0689502317426261
33.586583999999995,15.140143958900175,0.0684100816890925
33.590664,15.16308684853776,0.0678581685965932
33.5948,15.188267071525107,0.0672945247293758
33.59894,15.210644918987484,0.0667386793972079
33.60308,15.23324421624973,0.0661787851064134
33.607216,15.250349487361971,0.0656300981727262
33.61134,15.258826182099432,0.0651072189352079
33.615468,15.269318760386785,0.0645777768124278
33.6196,15.281827222224033,0.0640411819140003
33.623688,15.294224959161346,0.0635081792817917
33.62778,15.30157156954839,0.0629724380954904
33.631908,15.304653545360246,0.0624359239438372
33.636044,15.303360161696975,0.0619003289116257
33.64018,15.296794201683577,0.0613651293813336
33.64432,15.28338268136988,0.0608280004049175
33.64846,15.26380136783104,0.0602910267527801
33.652592,15.247011012141638,0.0597254257918299
33.656735999999995,15.229090572101818,0.0591432918977392
33.660875999999995,15.20611900551173,0.0585529232672692
