Time,Force,Position
34.819799999999994,9.373690254179834,0.1592296740357741
34.823932,9.467637809264865,0.1586509968820169
34.828067999999995,9.547516398347376,0.1581034132549564
34.832204,9.618266423077705,0.1575481992354635
34.836332,9.678104867381355,0.1570332889156869
34.840464,9.72760819110907,0.1565989311845546
34.844604,9.779005255811214,0.1561076279015552
34.84874,9.828718611663268,0.1556355039912982
34.852875999999995,9.88112361814036,0.1551338652989321
34.857015999999994,9.928821090442517,0.154694230268262
34.861152,9.9682221610697,0.1543616963976906
34.86528,10.007722538921286,0.1539966162087437
34.869415999999994,10.04642500712226,0.1536113243348537
34.873543999999995,10.08410811587276,0.1532117260515219
34.877675999999994,10.116407923373188,0.1528741950533674
34.881823999999995,10.149482805173156,0.1525040882283041
34.88592,10.17986603634809,0.1521639690359675
34.890016,10.213162367947929,0.1517897972571799
34.894155999999995,10.244774990697678,0.1514301321668341
34.898304,10.277617005022243,0.1510480665197269
34.902455999999994,10.308099543421582,0.1506789741682948
34.906603999999994,10.340597965370812,0.1502804476027778
34.91074,10.37051546159494,0.1499035810336178
34.914891999999995,10.393930989894114,0.1496016297811633
34.91902399999999,10.415662809343203,0.1493127118219793
34.923108,10.436608136817217,0.1490285223430744
34.92724,10.454751088766256,0.1487777273330964
34.931376,10.473791257590308,0.1485194442641718
34.935508,10.49215565933922,0.1482612828760618
34.939643999999994,10.516567711737808,0.1479216335877256
34.943783999999994,10.544900806336251,0.1475332954435621
34.94792399999999,10.568194192059964,0.1472153172170738
34.952056,10.583977668083774,0.1469825402831232
34.95618399999999,10.59987186900752,0.1467466207980939
34.96032,10.614193085981109,0.1465180061465081
34.964456,10.623696043879836,0.1463471397849998
34.968591999999994,10.632301784903548,0.1461846233276984
34.972683999999994,10.635081325077453,0.1460927185544623
34.97682,10.639987473701185,0.1459697306998549
34.980908,10.642201971699883,0.1458719805860225
34.985043999999995,10.64575658617333,0.1457466133604963
34.98918,10.6508727669214,0.1455842998479206
34.993312,10.660242164569128,0.1453605286839324
34.99744,10.671627445766749,0.1451100633672412
35.00152799999999,10.68671231936435,0.1448228319050386
35.00566,10.703591626711976,0.1445204185752224
35.009792,10.72147887583455,0.1442057652209341
35.013928,10.738801082781915,0.1438864905064049
35.018063999999995,10.757131231504228,0.1435561708248033
35.022152,10.769745904276665,0.1432891679036855
35.026239999999994,10.779668926424062,0.1430470503152617
35.030324,10.79384516547112,0.1427459855637817
35.034464,10.813626155568118,0.1423889294580468
35.038604,10.831723436815023,0.1420443899240374
35.042744,10.851050109636752,0.1416783317518724
35.046888,10.872724840708171,0.1412731578338869
35.051027999999995,10.895739688254348,0.1408416936194977
35.055184,10.92132404385009,0.1403613587107204
35.05932,10.945003240795874,0.1399033409759986
35.063404,10.97260347994151,0.1394029054589228
35.067532,11.000203719087146,0.1389050210515642
35.071667999999995,11.029144074707537,0.1383860795408142
35.075804,11.053598345952862,0.1379060835899055
35.079952,11.08320305097286,0.1373659426415557
35.084087999999994,11.1112347720427,0.1368346516810009
35.088224,11.136574842487509,0.1363262124809871
35.092355999999995,11.161914912932316,0.1358195320511769
35.096495999999995,11.187930750452267,0.1353174681866386
35.10062799999999,11.21204142932226,0.1348359215763869
35.104768,11.240859642367178,0.1343113673613526
35.108908,11.268669913637147,0.1337982575234352
35.113048,11.29424285155736,0.1333203302573987
35.11717599999999,11.31791063082761,0.132863514273384
35.121303999999995,11.3419220024732,0.1324231250558002
35.125432,11.367960675344213,0.1319910897666019
35.129563999999995,11.39501870766571,0.131578347200459
35.13369599999999,11.4243254910125,0.1311655173200191
35.137832,11.45835122620975,0.1307432193286493
35.141976,11.493949945357157,0.130318253423812
35.14612399999999,11.52820854802981,0.1299209577274416
35.150264,11.56123775912765,0.1295445351666834
35.154411999999994,11.592483954150996,0.1292127539555273
35.158552,11.62900272552448,0.1288490803640317
35.162704,11.657347237798454,0.1285763637349956
35.166836,11.68939134247241,0.1282778546282339
35.170972,11.726142981321296,0.1279420711882778
35.175107999999994,11.764910503720078,0.12758836985535
35.17924,11.803678026118856,0.1272372216018025
35.183376,11.846034416017682,0.1268645710089812
35.187512,11.888501530816445,0.1264919774696159
35.191647999999994,11.934889687815058,0.1260852054654728
35.195784,11.981720744413412,0.1256640849649933
35.19992,12.027654584136751,0.1252501455180381
35.204055999999994,12.074363498159638,0.1248093203709987
35.2082,12.11994232783211,0.1243583156216745
35.21233599999999,12.167979940654211,0.1238754571488815
35.216468,12.213879527350954,0.1233923208790263
35.2206,12.253265728447213,0.122932955154352
35.224728,12.290403178518172,0.1224756005690574
35.228863999999994,12.327197036213798,0.1220062454524392
35.233003999999994,12.367346893934068,0.121499270752432
35.237148,12.404572233553898,0.120991016223849
35.241243999999995,12.438540880373486,0.1204958804281334
35.24537599999999,12.47911080234243,0.119925913757123
35.249516,12.514186698161367,0.1193955986898377
35.253656,12.544100742530103,0.1188914197034713
35.2578,12.568742210548704,0.118415732262407
35.26194,12.590348435566929,0.1179421009826027
35.266084,12.60633849185968,0.1174822902497094
35.270228,12.619071855352187,0.1170328033534266
35.274364,12.631461626469362,0.1165717707874997
35.278499999999994,12.64205696383651,0.1161214347283122
35.282632,12.65141149195331,0.115661513445272
35.286767999999995,12.66177396184506,0.1151948471372966
35.290907999999995,12.671571389561596,0.1147227822262328
35.295044,12.678112124477895,0.1142606823298149
35.29918,12.683866367419116,0.1137999159565547
35.303315999999995,12.69141504411036,0.1133297451332606
35.307455999999995,12.701876821226506,0.1128391101797298
35.311592,12.711441381467642,0.1123543617335956
35.315728,12.717195624408864,0.111897028569287
35.319868,12.727546676625074,0.111414413522243
35.324003999999995,12.740024337291116,0.1109134394635175
35.328128,12.749699622432187,0.1104319059414497
35.332215999999995,12.760825748947944,0.1099279004567221
35.336344,12.77273836743878,0.109422945246706
35.340475999999995,12.78756408635452,0.1088972950722697
35.344615999999995,12.808891773195212,0.1083370006032269
35.348752,12.83179244398606,0.1077753287949712
35.352844,12.853795897901891,0.1072180883693543
35.356984,12.87299697629276,0.1066794199855021
35.361127999999994,12.893538171158376,0.1061228074877764
35.365264,12.917889683323905,0.1055441581179614
35.369356,12.94246264528931,0.1049619808219148
35.373444,12.969948707679617,0.1043642046809732
35.377584,12.996426828294975,0.1037754134362616
35.381736,13.028731149760148,0.1031531951475993
35.38583199999999,13.061589095724994,0.1025153414839431
35.38992399999999,13.0941034493145,0.1018676018375322
35.39402,13.128068644278695,0.1012012553317645
35.39812,13.16460334729246,0.1005051682233482
35.40226,13.198889299280925,0.0998101633254682
35.406412,13.230594325544288,0.0991255966914335
35.410543999999994,13.261734309632446,0.0984360711358082
35.414676,13.295000902170434,0.0977332259383874
35.418812,13.330050510782913,0.0970010782162775
35.422948,13.3686775692199,0.0962362654133468
35.427088,13.399451125581658,0.0954975872834174
35.43122399999999,13.437612449067846,0.0947082403560383
35.43536,13.480137714353624,0.0938858057620521
35.439488,13.523105879239138,0.0930518929629252
35.443624,13.572343144574203,0.0921812970163301
35.447756,13.618323717109028,0.0913163923203505
35.451899999999995,13.660371829768469,0.0904526345740834
35.456044,13.695352932327744,0.0896105662339811
35.460176,13.732117050961516,0.0887416405138983
35.464304,13.759798275945233,0.0879067512099697
35.468436,13.789606109378775,0.0870611361049167
35.472564,13.820532609487206,0.0862117813378005
35.476692,13.849099633670402,0.0853630994302917
35.480827999999995,13.877888107653469,0.0845126036741575
35.484972,13.905214322586314,0.0836593386320581
35.489104,13.932651262419094,0.0828043993285079
35.493252,13.963001302676783,0.0819398024928754
35.497387999999994,13.989651750534486,0.0810906985424736
35.50152799999999,14.020112515692109,0.0802323771203019
35.505668,14.0484466723999,0.0793939341750429
35.509812,14.083282797032648,0.0785371953404034
35.513952,14.111284779040638,0.0777170946965437
35.518088,14.13917603614869,0.0769057518669027
35.522223999999994,14.167853785231824,0.0760979651377567
35.526356,14.187681508140304,0.075333217641861
35.530483999999994,14.21512986564862,0.0745470546638604
35.534623999999994,14.244937699082168,0.0737664191324378
35.53876399999999,14.281247500440667,0.0729694021583888
35.542896,14.31722512709936,0.0721853080931178
35.547028,14.35891822970793,0.0713836304592688
35.551164,14.392769247916796,0.070613696146835
35.555291999999994,14.424715107475702,0.0698543090212946
35.559431999999994,14.45991765983485,0.069101429895808
35.563568,14.493890820619187,0.0683627357758708
35.567708,14.531009949303826,0.0676337789128934
35.571836,14.57205012018832,0.0668950240571271
35.575964,14.61107440752292,0.0661690065816878
35.580096,14.651893128607544,0.0654426127593421
35.584236,14.686885648842358,0.0647393528637388
35.588379999999994,14.719297243352068,0.0640390426252162
35.592524,14.744641827761622,0.0633463582140253
35.596672,14.767405486446073,0.0626538920494257
35.600824,14.782659235430623,0.0619783230444883
35.60497599999999,14.795442783590012,0.0613003311559797
35.609112,14.80262158069946,0.0606298032028976
35.613263999999994,14.793883341534094,0.0599906995180802
35.61736,14.77875385934371,0.0593580388878743
35.6215,14.757122409228376,0.0587357826396805
35.625636,14.728767541388216,0.0581277357768731
35.629768,14.694021430523042,0.0575252381165811
35.633903999999994,14.662631319682513,0.0568994207331593
