Time,Force,Position
32.15093999999999,11.117240134756935,0.1522265734671867
32.15508799999999,11.179128715637082,0.1518720410377366
32.159223999999995,11.229407113664344,0.1514859935165395
32.16336,11.271786338914236,0.1510562157916282
32.16744,11.305735602238157,0.1506621981009168
32.171576,11.3369817972615,0.1502703382477513
32.175704,11.37080891800995,0.1498603004722058
32.17979199999999,11.402398705408634,0.149486668944099
32.183876,11.43656941853242,0.1490925399658002
32.188012,11.470285814380931,0.1486904464276163
32.192144,11.50343716805424,0.1482833361651616
32.19628,11.531304527701876,0.1478911027164406
32.200419999999994,11.559492644373783,0.1474590675718989
32.204556,11.58274035939536,0.1470573775045287
32.208692,11.606763148716482,0.146624043829695
32.212828,11.626521303462416,0.1462200547804474
32.216911999999994,11.6426905907083,0.1458482597383523
32.22104,11.657397618903966,0.1454795777504462
32.225179999999995,11.676579313799158,0.1450430400684966
32.229264,11.688793305818594,0.1446314775604639
32.233412,11.696952695387177,0.1442122410599637
32.2375,11.702065424279851,0.1437732962953765
32.241632,11.694838566722233,0.1434306319340825
32.24571999999999,11.679979656889246,0.1431378024114296
32.24981199999999,11.662306953855756,0.1428431464701941
32.25390399999999,11.636670023847095,0.1426112323086573
32.25799599999999,11.607444226338387,0.1424090447145583
32.262092,11.579447820404496,0.1421853882243182
32.266232,11.551894314070342,0.1419432471805489
32.27032,11.524451532636125,0.1416959008640436
32.274407999999994,11.496332984126765,0.1414464729354625
32.278492,11.47158185331758,0.1411759625333878
32.282584,11.444150489558892,0.1409553197661644
32.286676,11.42334323630063,0.1406979274178114
32.290764,11.404796151743197,0.1404643424546734
32.29485199999999,11.393659669661256,0.1401919483406522
32.298987999999994,11.384550488804743,0.1399239875070777
32.303116,11.373203974598468,0.1396874732927445
32.307244,11.363430444342344,0.1394455277496276
32.31137199999999,11.359937432211304,0.1391538396361524
32.3155,11.357463779530748,0.1388783843751701
32.319636,11.35522299432559,0.1386220848310616
32.323775999999995,11.36486747829546,0.1382647873106946
32.32791999999999,11.376871438190555,0.1378980728922402
32.332064,11.39325075756078,0.1375013857508513
32.33615999999999,11.414116161306058,0.1370684478481786
32.340244,11.439234781950995,0.1365819992766232
32.344331999999994,11.462669693745845,0.1361063462558236
32.34846399999999,11.491377181890826,0.1355981779796801
32.35255599999999,11.521436204186095,0.1350971757434367
32.356696,11.554751919281609,0.1345841856464314
32.36084,11.589186301051996,0.1340585643767095
32.364976,11.62854966679719,0.1334846988528213
32.369124,11.662419006392378,0.132958142175312
32.373251999999994,11.697739187362249,0.1324069675616848
32.37738399999999,11.73047844260702,0.1318749385634241
32.381519999999995,11.767593057326916,0.1313188339358297
32.38565199999999,11.807177872871977,0.130751232021455
32.389788,11.844414630167345,0.1302203391101166
32.393928,11.879979096288151,0.129729990485332
32.398067999999995,11.918345937933928,0.1292184006832348
32.402196,11.960523096879625,0.1286765628891031
32.406328,11.999676430500475,0.1281709093441318
32.41046399999999,12.04544245694622,0.1276141122044634
32.41459999999999,12.089303324742003,0.1270770426957231
32.41874,12.135069351187743,0.1265273772861217
32.422876,12.182629811383512,0.1259730769216612
32.427015999999995,12.234787080854272,0.125390025799215
32.431144,12.278193631374783,0.1248596553313118
32.435276,12.316881230044832,0.1243405810592032
32.439404,12.35084987686442,0.1238325144103583
32.443544,12.384142756608863,0.1233251263479263
32.447688,12.414178943553068,0.1228315484281345
32.45182,12.447681855421852,0.1222953017816565
32.45595999999999,12.476920132715444,0.1217803628005325
32.4601,12.506490584708844,0.1212557558163428
32.464248,12.532017851926922,0.1207456030322515
32.468384,12.560679669369776,0.1202063115515656
32.472532,12.591800269962263,0.1196351108522504
32.476664,12.62347449505442,0.1190475483820355
32.480796,12.655370169946451,0.1184558926428496
32.484880000000004,12.688273786613427,0.1178611035536637
32.489012,12.7206123611052,0.1172619809226891
32.49314799999999,12.747456909446964,0.1167003249545407
32.49728399999999,12.77609589153875,0.1161312040283331
32.501412,12.804624148730603,0.1155693701498448
32.505492000000004,12.827326205072644,0.1150537837600918
32.509624,12.84385846818954,0.1145692699305783
32.513716,12.865208990381298,0.114050209557304
32.51785199999999,12.888464671223014,0.1135179003417509
32.521984,12.914633452489635,0.1129645991408693
32.526112,12.94045864138092,0.112399701976145
32.53023999999999,12.963924354346975,0.1118378508146597
32.53438,12.982117490962896,0.1113003365048102
32.538512,13.001650744053563,0.1107436441753743
32.54266,13.017927304343988,0.1101941697668654
32.546796,13.034868214034024,0.1096240280029194
32.550932,13.047655214048808,0.109066351987481
32.555064,13.058979955013369,0.1085084217738692
32.559156,13.065364294327598,0.1079615752544538
32.563244,13.07140504126649,0.107402824453553
32.567336,13.070046603405416,0.1068852340469195
32.57142399999999,13.066672281994451,0.1063829598636577
32.57551599999999,13.063973727658627,0.1058839201888177
32.57955199999999,13.057010538747615,0.1053979165686481
32.58358799999999,13.046679932136424,0.1049209456228845
32.587676,13.036460050425172,0.1044392361994008
32.59182,13.030615528189038,0.1039411260283933
32.595907999999994,13.024328106353169,0.1034585665474357
32.60003999999999,13.0206216102424,0.1029686394691068
32.604175999999995,13.017590881206772,0.1024829206308632
32.608307999999994,13.01310931079646,0.1020192372906213
32.612436,13.008971332761485,0.1015686888312064
32.61655999999999,13.007979322626811,0.1011167260676324
32.620639999999995,13.008228121742498,0.1006758628779748
32.62478399999999,13.014757438983262,0.1002103307113943
32.628928,13.019393015249596,0.0997811770328687
32.633067999999994,13.025490850566152,0.0993556800140239
32.637204,13.0309243364831,0.0989523314819193
32.641344000000004,13.040179557375495,0.0985525253941406
32.645436000000004,13.047651762193404,0.098185795820467
32.64958,13.060728718061249,0.0977911998588903
32.653728,13.078402483204089,0.0973769179815026
32.657872,13.09719491502181,0.0969533010092273
32.662012000000004,13.122267864964616,0.0965076386449145
32.666144,13.150597507707664,0.0960603219431876
32.670288,13.182626742850692,0.0955974684862734
32.67442,13.212640094443827,0.095150210509565
32.678556,13.242653446036964,0.0947048691076325
32.68269599999999,13.273342564705244,0.0942665313716209
32.686836,13.302580841998836,0.0938501026545832
32.690968,13.334289320117591,0.0934326423805876
32.695104,13.3721675914615,0.0929990343493422
32.699231999999995,13.41374545520539,0.0925527219646101
32.70336399999999,13.4542046522744,0.0921178235141077
32.707504,13.488394748893857,0.0917303563483481
32.71164,13.526505887713167,0.0913225393806888
32.715772,13.565182068707683,0.0909234794934181
32.719916,13.604976916377082,0.0905163707916305
32.72404399999999,13.64477176404648,0.0901110263930436
32.728172,13.687590437040717,0.0896892547601476
32.732308,13.727385284710117,0.0892879287029827
32.736452,13.76348053997953,0.0889032156167777
32.740588,13.797781361498926,0.088525445278243
32.74472399999999,13.827263923943452,0.088173432117106
32.748864,13.854276285562818,0.0878241310367162
32.753016,13.8805021552071,0.0874762177646322
32.757155999999995,13.907957416426209,0.0871170749565936
32.761304,13.936642069220126,0.0867475835986188
32.765444,13.960054145663907,0.0863911910277378
32.76957999999999,13.9841305715073,0.0860160181522748
32.773712,14.006744738300474,0.0856375782003297
32.77784799999999,14.023410561668364,0.0852683700537146
32.781980000000004,14.037384734411228,0.0849085422907104
32.78612,14.05762800760364,0.0845112242536048
32.79026,14.08223522259564,0.084082784341391
32.794392,14.107174612287444,0.0836480001123435
32.79848,14.137264435753917,0.0831862427172
32.802612,14.167464984120326,0.0827233394420568
32.806696,14.200345765436236,0.0822339716385128
32.810824,14.229969853951904,0.0817461417690359
32.814955999999995,14.261942000717273,0.0812398202534996
32.819036,14.300969739907266,0.0807009623332321
32.82312,14.344926463072058,0.0801427634914006
32.827259999999995,14.391452694286418,0.0795610323809532
32.8314,14.444026576150458,0.0789534062600314
32.835539999999995,14.494240982089266,0.0783446048903979
32.83968,14.54411179565274,0.0777257586662281
32.843819999999994,14.589717974641022,0.0771123586296401
32.847916,14.636664270104054,0.0764850420968305
32.85204399999999,14.687077290491668,0.0758358461610042
32.856132,14.742972919353754,0.0751567166934534
32.86026799999999,14.80323249001543,0.0744532852875707
32.864408,14.863480643001576,0.0737315776441301
32.868556,14.913970135262526,0.0730290591895431
32.872699999999995,14.96332954317306,0.0723162041008041
32.87684,15.006629882758382,0.0716105853646445
32.88099199999999,15.040503736318314,0.0709128288830434
32.885136,15.07235028865282,0.0702036658238201
32.889284,15.097805597962306,0.0695092975263311
32.893376,15.121012156246495,0.0688072983212704
32.897524000000004,15.143199355080206,0.0680899415357697
32.90165999999999,15.150133867038718,0.0673940368805267
32.90579199999999,15.147752617871772,0.0666972655493894
32.909924000000004,15.139533750179488,0.0659961705715939
32.914056,15.116283645411867,0.0653063359820246
32.91819199999999,15.089101080768865,0.0646038997852127
32.92232799999999,15.055072955825567,0.0638977480572313
32.926464,15.016215154131878,0.0631777412480276
