Time,Force,Position
33.219932,7.825311696672451,0.1598457368095609
33.22402,7.859905925900304,0.1595484491799972
33.228152,7.895053779627833,0.1592193042813783
33.23228,7.929525866280219,0.1588924718227919
33.236408,7.973302296382527,0.1584249267893707
33.240496,8.011928292710166,0.1580584388221373
33.24458,8.054032431637916,0.1576493618839911
33.248667999999995,8.101630596715674,0.1571666008672411
33.252759999999995,8.15147751281873,0.1566745336513555
33.256884,8.202675963072068,0.1561892379410516
33.260976,8.256455339050508,0.15568736687158
33.265068,8.309005323454128,0.1552171195382569
33.269155999999995,8.359317974507988,0.1548036432035369
33.273284,8.41008494283712,0.1544060975092182
33.277372,8.463887154166624,0.1539976984558818
33.281464,8.520724608496502,0.1535787052470519
33.285552,8.579700088951741,0.1531594859123689
33.289644,8.641821537307285,0.1527319035987221
33.293732,8.70338936116316,0.1523402409098677
33.297824,8.763506343644345,0.1519958959404807
33.301952,8.827212193625577,0.1516168510630886
33.306044,8.891372360882084,0.1512574166043821
33.310172,8.956208295213731,0.1509033184694375
33.31426,9.023292980570671,0.1505463730292444
33.3184,9.084330015277937,0.1502917338715653
33.32254,9.153884901460046,0.1499244550257452
33.326676,9.224337004517167,0.1495520718673496
33.330816,9.28963867379962,0.1492688727803559
33.334952,9.35639118445676,0.1489521608007001
33.339096,9.418879060538709,0.1486731053364184
33.343236,9.47307053494568,0.1484957261426283
33.34738,9.529499342702415,0.1482773396854126
33.351516,9.586481774958829,0.1480348368353416
33.355608,9.64715238193969,0.1477203333150531
33.3597,9.705119920619984,0.1474037718804433
33.363792,9.760495115899642,0.1470798669449715
33.36792,9.814396634453546,0.1467282119991682
33.372008,9.863014158981786,0.1463995416918549
33.376092,9.909260789909258,0.1460507203993383
33.380224,9.955938902760938,0.1456520481679549
33.38436,9.995206413137122,0.1453057978235442
33.388496,10.028514162412494,0.1449738099053469
33.392632,10.058443076312154,0.1446353868115545
33.396772,10.082301504211069,0.1443161178229184
33.40086,10.105583472259246,0.143956913565915
33.404936,10.121454837831926,0.1436478788743659
33.409016,10.131820759579067,0.1433636410067673
33.413096,10.141720946375402,0.1430346648486068
33.417179999999995,10.144886297771382,0.1427542494183163
33.421264,10.151064056816669,0.1424001998231997
33.425344,10.157451847986293,0.1420012626217238
33.429435999999995,10.159120687305457,0.1416233057038984
33.43352,10.153833241424392,0.1413034886376661
33.437591999999995,10.141024468167895,0.1410353598461135
33.441676,10.126077668786042,0.140766467270059
33.445756,10.109890060153836,0.1404882107607555
33.449839999999995,10.092694509746684,0.1402230744855238
33.453924,10.071234324764342,0.1399885347447714
33.458012,10.050892806456885,0.1397346973299528
33.462104,10.024381494924276,0.1395324699884733
33.466192,9.99921029986642,0.139300568354994
33.470288,9.97325261283349,0.139070649563674
33.474376,9.945611216950466,0.1388509450282985
33.478463999999995,9.917969821067445,0.1386302397851361
33.482555999999995,9.89032842518442,0.1384084017615955
33.486644,9.866275896801444,0.1381525276569327
33.490724,9.846033685718387,0.1378525799577978
33.494812,9.82467280796045,0.1375700890902511
33.498904,9.808916681252452,0.1372274504082659
33.502987999999995,9.792828379844652,0.136900004608778
33.507079999999995,9.78133688771184,0.1365267305596497
33.511168,9.773544987979012,0.1361158267994172
33.51526,9.771247114396193,0.135650723148604
33.5194,9.771984483813746,0.1351791265818279
33.523488,9.775192054056465,0.1346943300853132
33.527632,9.779640433549533,0.134220197710832
33.53172,9.78632614639236,0.1337120501470153
33.535804,9.795260610260485,0.1331991678079698
33.539896,9.805203015903558,0.1326764785070738
33.543983999999995,9.81941005612182,0.1321251188194749
33.548068,9.834857905590434,0.1315851089789934
33.552152,9.856254098484325,0.1310078910230993
33.556239999999995,9.882701417928477,0.1304021743555721
33.560331999999995,9.912516155072808,0.1297765837937961
33.564416,9.944236050867104,0.1291334191932658
33.568508,9.973940063111502,0.1285186209368947
33.572604,10.003533350455967,0.1279127612163312
33.576696,10.034921071550452,0.1272924955860798
33.580832,10.065079401070124,0.1266987773219831
33.584912,10.094119063914912,0.1261246273148758
33.589,10.122826552059898,0.1255704108622584
33.593092,10.151534040204885,0.1250199758086497
33.59718,10.17945503637479,0.1244740171679595
33.601276,10.207708207244504,0.1239164987702872
33.605372,10.234731986539398,0.1233824189844375
33.609464,10.261755765834293,0.1228507529604154
33.61356,10.287217978854567,0.1223584562416979
33.617656,10.31671195897463,0.1218231614218006
33.621744,10.341166230219956,0.1213457331215168
33.625884,10.3668498930401,0.1208510353808619
33.630032,10.392079238584977,0.120345654122175
33.63416,10.419656642379543,0.1198107160396067
33.638296,10.443866628473936,0.119293927288744
33.642432,10.472329831467988,0.1187302557774426
33.64656,10.500793034462037,0.11817008476928
33.650696,10.52980986195576,0.1175887987610868
33.654836,10.558150922374342,0.11700710449669
33.658972,10.589737257917635,0.1163893420950338
33.663108,10.622098667760469,0.1157436059324775
33.66724,10.65591091897799,0.1150723949054326
33.671375999999995,10.683664101870296,0.1144317062943204
33.675448,10.711417284762604,0.1137945957226746
33.679531999999995,10.742415742779624,0.1131231980543613
33.683664,10.770611825271672,0.1124741817620567
33.687743999999995,10.800480198938276,0.1117910680566952
33.691876,10.8293292131544,0.1110898832598529
33.695952,10.859064026570008,0.1103568052512218
33.700092,10.883526263635472,0.1096532483700923
33.704176,10.910447283850573,0.1089114663359282
33.70826,10.933779436565622,0.1081929536347354
33.712396,10.956546547105468,0.1074680994060321
33.716476,10.969001372420442,0.1068178428233473
33.72056,10.98200982223509,0.1061460966460847
33.724647999999995,10.986721870374764,0.1055300222369217
33.728732,10.992663310089256,0.1048988244969346
33.732864,10.996699591153789,0.1042817947191506
33.736944,11.000846597118256,0.1036615991888134
33.74102,11.000396793807726,0.1030708543955705
33.745104,10.994120789647386,0.1025240904501014
33.749196,10.986271801536896,0.101978323349729
33.753276,10.98503550625129,0.1013872336847273
33.75736,10.981439735040452,0.1007969287433668
33.76144,10.97033405412972,0.1002544904990285
33.765524,10.96258437324363,0.0996731127614877
33.769604,10.954158925282396,0.0990884697918517
33.773684,10.945622752421231,0.0985076913127178
33.777772,10.931371103610193,0.0979632363194269
33.781859999999995,10.921040496999002,0.0973888615690138
33.785992,10.911828557062693,0.0968018685844219
33.790076,10.903735283801266,0.096201449361614
33.79416,10.893736851889882,0.0956118200500268
33.798248,10.88989679552811,0.0949664727644501
33.802336,10.887629723116495,0.0943227653203543
33.806424,10.890070184879807,0.0936507995164102
33.810512,10.885897953818237,0.0930175160601905
33.8146,10.881836447656594,0.0923786942715314
33.818688,10.875869782844994,0.0917512213587914
33.822784,10.87270549355837,0.0911087898279426
33.826876,10.876043172196688,0.0904318131346448
33.831012,10.880843109885234,0.089761723438149
33.8351,10.885643047573774,0.0890954367012785
33.839188,10.894707619837508,0.0884223871889051
33.843276,10.908147551576365,0.087735021743206
33.847359999999995,10.919239425065523,0.0870770882260923
33.851456,10.929888398954946,0.0864376352300721
33.85554,10.938078589694737,0.0858285064929248
33.859635999999995,10.95355724033455,0.0851901128344621
33.86372,10.966577107824731,0.0845844398049844
33.86786,10.980837784565267,0.0839958441960527
33.871944,10.996449995456082,0.0834191453562782
33.876076,11.017113332897166,0.0828383467346637
33.880208,11.038906754688664,0.0822792918980783
33.884344,11.060478726680287,0.0817312297980712
33.888476,11.081607799072176,0.0812021126858499
33.892612,11.109128114489083,0.08064987659164
33.89676,11.143715440006147,0.080084391243306
33.900892,11.183796791673222,0.0795028004080767
33.905016,11.224332460615566,0.0789389293295186
33.909144,11.266551838408,0.0783801312783901
33.913267999999995,11.310565649950457,0.0778213519071536
33.917396,11.356152445443062,0.0772720091733919
33.921536,11.398936865410704,0.0767377373622355
33.925676,11.447436761328218,0.0761843371710297
33.929815999999995,11.499636249645713,0.0756220783725433
33.933964,11.555203155663383,0.0750635613851602
33.9381,11.622422463380682,0.0744559903798526
33.942252,11.688301654623224,0.0738716404348714
33.946396,11.76112571339046,0.0732573398516993
33.950544,11.835289888632447,0.0726331751224839
33.95468,11.914493772749166,0.0719895550074125
33.958816,11.995037773340638,0.0713379151534108
33.962952,12.077819107281872,0.0706760454153696
33.967084,12.160821891022978,0.0700124658762629
33.971216,12.247856441863869,0.0693356656702843
33.975359999999995,12.335001717604694,0.0686624612656216
33.979496,12.415977200120372,0.0680045083578318
33.983632,12.49526897378596,0.0673544501978746
33.987764,12.57197982172645,0.0667090189531769
33.9919,12.641291484866974,0.0660854426477606
33.99604,12.709927380932356,0.0654629252312726
34.000184,12.775982351272637,0.0648472421556924
34.00432,12.841361554537777,0.064228778688995
34.008448,12.900460239677836,0.0636257529354019
34.012576,12.954175623567822,0.0630329521670528
34.016704,13.000148230282509,0.0624426322455711
34.020832,13.031322467397263,0.0618877209421354
34.024964,13.054188885161512,0.0613227305553211
34.0291,13.05967600760073,0.0607866544726867
