Time,Force,Position
36.274368,10.766467490730712,0.1483235120967482
36.278516,10.84132575443416,0.1477309212383823
36.282664,10.897063925584828,0.1471923317211289
36.286816,10.93570930540814,0.1467013059835768
36.290956,10.958391978254513,0.146266769666176
36.295084,10.971747472299892,0.1458724077318597
36.29922,10.981945580769432,0.1454618898049441
36.303348,10.99000566311361,0.1450516834990799
36.30748,11.002761861957188,0.1445622974669195
36.311612,11.010688384050368,0.1440992436973469
36.315752,11.017141229417796,0.1436088060094526
36.319892,11.01561843013452,0.143154542572139
36.32398,11.01026247820026,0.1426822973138514
36.328112,11.00174914069016,0.1421931058844019
36.332248,10.988627576229533,0.1417170065573481
36.336324,10.972925086043803,0.1412594406055107
36.340408,10.95834126253296,0.1407831545620908
36.344544,10.943535989222244,0.1403149306154422
36.34868,10.926039065286488,0.139868615186561
36.352824,10.911898141375383,0.1393706464080105
36.356908,10.89550846643898,0.1388761482443173
36.360992,10.876648590677412,0.1383942403690033
36.365128,10.854199847415796,0.1379410259260634
36.369216,10.83735585520412,0.1374329819016513
36.373352,10.822871338917675,0.1369148480484972
36.37744,10.810524848756591,0.1363968126728106
36.381572,10.798189776271045,0.1359072890494159
36.38566,10.78810345481079,0.1354134179291183
36.389752,10.774882583125764,0.134960630643901
36.39384,10.76334542029082,0.1344972949445671
36.397928,10.7532705165061,0.1340335653742773
36.402064,10.75026262282154,0.1335159389036507
36.406156,10.74614748013763,0.1330439531658709
36.410244,10.7407036386545,0.1326271158211291
36.414332,10.733255331297013,0.1322620660388525
36.418464,10.724577632364705,0.131917664976237
36.4226,10.718935176432767,0.1315682275303068
36.426696,10.717557355076025,0.131193136909141
36.430792,10.72212787714456,0.1307834686102344
36.434924,10.725923324913552,0.1304077520151309
36.439012,10.732421840983116,0.1300420042918641
36.443104,10.739718266703282,0.1297041157255721
36.447192,10.753970977623672,0.1293209397510093
36.451284,10.766551397369511,0.1289798465124839
36.455416,10.783175001890667,0.1286253119856755
36.459508,10.80036364858703,0.1282790010651106
36.463588,10.825737972058436,0.1278713820448316
36.467716,10.852574554580064,0.1274662928398477
36.47186,10.879201104977351,0.1271002711077969
36.476004,10.907633506800195,0.1267532764821032
36.48014,10.936188051198508,0.1264335440843872
36.48428,10.963967521297276,0.1261476910751287
36.488424,10.998470409120868,0.1258017150107814
36.492576,11.03689433914431,0.1254175833416174
36.496716,11.087535713042575,0.124932125680899
36.500864,11.142220271716166,0.1244354041867855
36.505,11.198588539239845,0.123936282445779
36.509128,11.252608748513826,0.123475069697226
36.513264,11.302818640487889,0.1230505157067337
36.517396,11.355830907986922,0.1226073164694623
36.521524,11.410072567060771,0.1221490189749497
36.52566,11.466330109684517,0.1216714829467274
36.5298,11.516650726558517,0.1212525628344452
36.533936,11.56495545988262,0.1208551946435369
36.538068,11.611133584756898,0.1204858652102568
36.542204,11.6616870691063,0.1200963290726074
36.546288,11.706525077505828,0.1197588336665215
36.550416,11.750133694330536,0.1194412020259133
36.554556,11.796201094304877,0.119088061420267
36.558696,11.839687568554115,0.1187487259652846
36.562832,11.87980662510318,0.1184232979316095
36.56696,11.919360639477038,0.1180923613333528
36.571088,11.952080511226136,0.1178228634567525
36.575224,11.985697599850246,0.1175505524205654
36.579352,12.011694053874525,0.11734106266499
36.583484,12.036006799048714,0.1171394843721684
36.587632,12.05493624297283,0.1169703833438883
36.591764,12.073411369621676,0.1167906119099777
36.595896,12.093005162945405,0.1165980221699945
36.600032,12.109231538568952,0.1164194305935152
36.604184,12.124449972417557,0.1162513346338696
36.608328,12.140111305865895,0.1160683603711309
36.61248,12.161033797988845,0.1158325569810048
36.61662,12.181612697736451,0.1155817959241917
36.620752,12.198148412708738,0.1153401507805609
36.624888,12.206719900705856,0.1151405646374329
36.629016,12.2174179971528,0.1149200910736766
36.633148,12.22866971809942,0.1146803674024329
36.637288,12.238127005296011,0.1144512390448976
36.64138,12.2519482342922,0.1141763277775211
36.645516,12.271706389038131,0.1138538753138941
36.649652,12.290899501608855,0.1135254144188231
36.653796,12.317934698579286,0.1131373751321307
36.657876,12.342499694724548,0.1127577711636046
36.662008,12.364483765144712,0.1123876338431528
36.666144,12.38769722713969,0.1120029563218505
36.670284,12.412029355809548,0.1116053874569111
36.67442,12.438377368029302,0.1111924568938339
36.678548,12.464946830048929,0.110773541117032
36.68268,12.490508350293602,0.1103634985864025
36.686812,12.514829061287928,0.1099451057851461
36.6909,12.536347396757286,0.1095454380733513
36.695024,12.55326892295165,0.1091731758954956
36.699156,12.571087666021027,0.10879682213848
36.703288,12.595519101915292,0.1083792743804132
36.707428,12.62207714625938,0.1079406606185035
36.711568,12.644149106228411,0.107525331633564
36.715708,12.665434574222369,0.1071118503308787
36.719844,12.688735925766215,0.106683698254332
36.723992,12.705203134685307,0.1063057545282948
36.728132,12.718757243179493,0.1059504069508219
36.73228,12.731192684998796,0.1056070451078888
36.736412,12.734213058468244,0.1053213142597982
36.740548,12.736790532337952,0.1050507609836443
36.744684,12.744186265282522,0.1047484034578921
36.74882,12.75068478135208,0.1044513091143683
36.752952,12.757969789396716,0.1041539663490078
36.757092,12.759428596591542,0.1038956510560172
36.761232,12.75876079533654,0.1036567464378907
36.765368,12.758092994081537,0.1034176220091598
36.769504,12.75406919280189,0.1032125595735424
36.77364,12.75363425902229,0.1029918935821758
36.77778,12.7566774678428,0.1027592292673917
36.781928,12.762633777088215,0.1025082366791534
36.786056,12.763882552158709,0.102284919073925
36.790188,12.76872019472924,0.1020468373446375
36.79432,12.775241546149864,0.1018046676766133
36.798448,12.784343823295591,0.101555740681336
36.802576,12.791430216891424,0.1013223731586758
36.806712,12.802437652687106,0.1010630346765103
36.810848,12.8143423053578,0.1008010597742299
36.814988,12.829049333553469,0.1005250426600365
36.819128,12.849250387899142,0.1002232230848152
36.82326,12.872475267569651,0.0999008209191354
36.827396,12.897162406290384,0.0995843876258517
36.83154,12.918493544986468,0.0993004100006612
36.835688,12.942627059207524,0.0990035240313359
36.839828,12.973151816453598,0.0986781808760193
36.843964,13.005471007449698,0.0983461945168841
36.848108,13.043394949495736,0.0979882215200375
36.85224,13.084010542166803,0.0976189206340209
36.856376,13.12160230951304,0.0972725857405711
36.860516,13.159415526659142,0.0969215378031709
36.86466,13.193983468680536,0.0966003555010785
36.868748,13.233934711951996,0.0962611140291488
36.872884,13.268956971248665,0.0959538451021975
36.87702,13.305773664295351,0.0956412262429855
36.881152,13.337993548067049,0.0953497866087606
36.885292,13.370434881638614,0.095052227369565
36.88944,13.40545714093528,0.0947508225309233
36.893572,13.43969290825687,0.0944510532010789
36.897708,13.471126300053488,0.0941653452749732
36.901836,13.50569424207488,0.0938594204135193
36.905964,13.53757053347124,0.0935645123366979
36.910092,13.568206015617248,0.0932612139639053
36.914228,13.606118539987753,0.0929078092308575
36.918368,13.643023122583312,0.0925631943162825
36.922508,13.677678954153574,0.0922158294499232
36.926648,13.715801510648417,0.0918390779469341
36.930728,13.747422099218308,0.0914910425305909
36.934864,13.785201063337812,0.0911055187058892
36.939004,13.823644376856924,0.0907010947794341
36.943144,13.86130119840096,0.0902985210578396
36.947284,13.900519586219618,0.089874746270734
36.951432,13.93468684748801,0.0894601900310408
36.955564,13.977814859830984,0.0889982736739377
36.959704,14.020820729598496,0.088519157308943
36.963784,14.071668683765708,0.088003022258585
36.96792,14.12442179658288,0.0874810832141805
36.972052,14.173131724624731,0.0869621696176542
36.976188,14.219150002041548,0.0864518872198814
36.980336,14.272334596782928,0.0859028154428186
36.98442,14.32092238224931,0.0853733128856179
36.98856,14.371858225965394,0.0848259704035847
36.992696,14.419991694156504,0.0842912917926572
36.996832,14.463417628172689,0.083778542324676
37.000912,14.506389244913596,0.0832580718670747
37.005052,14.555187062504318,0.0827162298266989
37.009188,14.599055896120245,0.0822009812923951
37.013324,14.652671972785823,0.0816466747284877
37.01746,14.702699181951363,0.081106550816211
37.021596,14.757323200391896,0.0805572344348469
37.025732,14.812844435707442,0.0800089420192246
37.029864,14.870160104773005,0.0794604318164311
37.033992,14.932072583113566,0.0789026865386799
37.038128,14.988380310404189,0.0783682773602125
37.042268,15.045142354970082,0.0778474140208604
37.0464,15.098094082236054,0.0773451073953256
37.05054,15.151156534401968,0.0768431168120578
37.054684,15.207697129167988,0.0763398096008739
37.058828,15.268158766133862,0.0758227177600883
37.062964,15.32268347734999,0.0753350265042105
37.067104,15.37653242149098,0.0748448114859474
37.071244,15.431389307406915,0.0743544058433749
37.07538,15.48646764312272,0.0738595027660826
37.079516,15.542664645513408,0.0733595805492323
37.083652,15.600091039478908,0.0728529866067026
37.087788,15.651912682394473,0.0723656540082411
37.091932,15.705750208859929,0.0718712725132302
37.096072,15.750283391875456,0.0714038797994193
37.100204,15.790219765615994,0.0709476965597761
37.104288,15.825559330081536,0.0705041739924893
37.108372,15.856523535071958,0.0700655373626142
37.112456,15.882215163712244,0.0696333245454949
37.116544,15.89849172400267,0.0692255776912572
37.120628,15.911179416793049,0.06882324916995
37.124656,15.919270300308437,0.0684302992184181
37.128736,15.919961999023856,0.0680524071474646
37.132812,15.918072772014176,0.0676760287862101
37.136896,15.911476010829569,0.067311615205521
37.140976,15.900171715470028,0.0669585469834369
37.145112,15.887072986360463,0.0666074557819933
37.149248,15.874760749225985,0.0662578210216131
37.153392,15.856511586341751,0.0659285558762381
37.157528,15.838151698557589,0.0656015511311824
37.161656,15.817665202323596,0.0652847500672558
37.165784,15.791131055439925,0.0649900475503445
37.16992,15.76157308323141,0.0647058188322907
37.17406,15.731117894147882,0.0644222915335736
37.178208,15.697638879739518,0.0641485569822178
37.182344,15.664614182606424,0.0638837280169922
37.186428,15.63158948547333,0.0636183556940752
37.190564,15.602940147815364,0.0633504183146122
37.194696,15.576539561182688,0.0630898663835583
37.198824,15.557427434450046,0.0628185488595838
37.202956,15.538658900092742,0.0625591614626964
37.207092,15.525273666985504,0.0622943386208265
37.211188,15.519963385753377,0.0620212081427407
37.215284,15.51611536357147,0.0617546927293245
37.219384,15.517761367539563,0.0614809084063066
37.22348,15.523672006082853,0.0612085437432849
37.227612,15.533847279201328,0.0609380575722418
37.231708,15.544476869595076,0.0606781438664557
37.2358,15.556679443938975,0.0604217814638565
37.239896,15.5729252030582,0.0601732944425709
37.243992,15.591076120827378,0.0599211287717108
37.248084,15.61292663099654,0.0596631761898263
37.252228,15.637358066890805,0.0594058032677357
37.256364,15.662243820060338,0.0591592797993523
37.260504,15.694418033129905,0.0589047811262906
37.264596,15.733426388824224,0.0586334127674838
37.268684,15.770983903143858,0.0583767441021574
37.272772,15.807533475688546,0.058124776575593
37.276864,15.84587748198326,0.0578725106506187
37.281,15.88332427140296,0.0576221458127846
37.285088,15.926707986572405,0.0573559663552297
37.28918,15.96818654309189,0.0570950692466076
37.293272,16.007870665861354,0.0568368002663583
37.297356,16.04923849748091,0.0565814580277261
37.30144,16.082199202525548,0.0563393650159288
37.305532,16.112578981845086,0.0560969693966001
37.309616,16.139702068364386,0.055849723962908
37.313756,16.165362895833468,0.0555961542002008
37.317908,16.192142389977427,0.0553372174111699
37.322,16.212076323821094,0.0550746564458433
37.326092,16.23032654881468,0.0548110183018057
37.330192,16.24767955693325,0.0545481255187209
37.334292,16.263459581101664,0.0542810073112467
37.338432,16.275196420494762,0.0540054352448428
37.34252,16.278969032912684,0.0537306054000596
37.346608,16.272318635205806,0.0534728405825053
37.350756,16.262632994498553,0.0532026564240027
