Time,Force,Position
35.214544,8.837735760074914,0.1522975794573645
35.218688,8.927949469733361,0.1516922074613409
35.222828,9.003074853938815,0.1510866731805199
35.226907999999995,9.062226113491793,0.1505392645547031
35.231044,9.108560633968132,0.150055338926709
35.23518,9.14680878489384,0.1496402330945982
35.239315999999995,9.186507777194226,0.1491910145539549
35.243396,9.225874594794812,0.1487660088620368
35.247528,9.269727496770455,0.1482928819735162
35.251656,9.315031240120788,0.1477888290437326
35.255804,9.360323565795584,0.1472531534373557
35.25994,9.40369931514489,0.1467135691296761
35.264067999999995,9.44785013879374,0.1461381292155263
35.268196,9.488744269642348,0.1455915593458867
35.272324,9.52604953299091,0.1450843301416758
35.276447999999995,9.558757987064478,0.1446301161499893
35.280576,9.59762481668766,0.1440852947148699
35.28472,9.63805321258546,0.1435045707438363
35.28886,9.681726883607976,0.1428730438745787
35.292995999999995,9.726962120905108,0.1422081641972343
35.297135999999995,9.772418808002111,0.1415394528871713
35.301224,9.815970336449151,0.1409003375814337
35.305367999999994,9.864340123971065,0.1402105880047195
35.309512,9.911701969718026,0.1395406321034727
35.313655999999995,9.960858249215011,0.1388592663435966
35.317744,10.00922803673692,0.1381871054676722
35.321892,10.05636843268401,0.1375443303360175
35.326024,10.104184595706243,0.1369108577916573
35.33016,10.149874150278652,0.1363113150909783
35.3343,10.192096979926475,0.1357747895186695
35.338435999999994,10.233655460174695,0.1352709329434092
35.342568,10.274992490623044,0.1347810916762733
35.346708,10.320029113471374,0.1342628122979307
35.350843999999995,10.364955011419768,0.1337533705739227
35.35498,10.413359051968277,0.1332203574953821
35.359112,10.468043610641866,0.1326376372079532
35.363248,10.522174544815778,0.1320877987556968
35.367384,10.576649071365033,0.131562103854006
35.371524,10.636396174264425,0.1310096063065558
35.37566,10.693008726939036,0.1305026739392386
35.379791999999995,10.750186321788858,0.1300086420912402
35.38392,10.809047625488768,0.1295104327901642
35.388048,10.86387716208889,0.129064618771785
35.392136,10.91859597378908,0.1286264848066909
35.396256,10.972085393914451,0.1282124427801454
35.400396,11.029052956639935,0.1277826876303299
35.404543999999994,11.085909794465485,0.12735990502052
35.408628,11.14186941541602,0.1269482723027343
35.412772,11.204220279391576,0.1264922958774727
35.41692,11.273073111292083,0.125988172566175
35.421071999999995,11.34573626049251,0.1254548154026931
35.425216,11.42109106031797,0.1249092217551188
35.429356,11.494319251693602,0.1243981293801348
35.433499999999995,11.566318051494418,0.1239081028680018
35.437628,11.63842757619517,0.1234186201644093
35.441756,11.706837508495935,0.1229619731878329
35.44584,11.771769298196592,0.1225277315134549
35.449971999999995,11.83423088707208,0.1221063723181424
35.454108,11.885815148547495,0.1217629171127883
35.458188,11.937510134922844,0.121416508748678
35.462323999999995,11.987742862247972,0.1210722234566024
35.466472,12.036402605622948,0.1207342785280652
35.470608,12.085615973497596,0.1203782146381289
35.474744,12.136169457846997,0.1200034757738955
35.478832,12.1841420164713,0.1196414740610476
35.482968,12.22874715739542,0.1192977155973792
35.4871,12.274803139694228,0.1189311225768669
35.491228,12.320404804717764,0.1185568327324876
35.495368,12.36062316849123,0.1182182018459146
35.499516,12.393553072364666,0.1179278063545954
35.503648,12.42020245811302,0.1176748696062296
35.507784,12.444270918136272,0.1174356632913114
35.511908,12.463853293784467,0.1172226429601716
35.516036,12.484665061007478,0.116993425407748
35.520164,12.503682394480466,0.1167754118834087
35.524304,12.52673149505324,0.1165237072107179
35.528444,12.555385346675957,0.1162367905492667
35.532532,12.585390732448952,0.1159567614876761
35.536628,12.6215659114471,0.1156468578898817
35.54072,12.661440682845228,0.1153163483085416
35.544856,12.702999163093445,0.1149828159020867
35.548992,12.743328251766846,0.1146667567112186
35.553079999999994,12.785008874590533,0.1143591871169989
35.55722,12.825127931139594,0.114080970582173
35.56136,12.873654114263568,0.113752759198067
35.565504,12.922856064462684,0.1134300706211356
35.569644,12.973409548812086,0.1131169377136162
35.573795999999994,13.024195900636888,0.1128236798343744
35.577924,13.077563178186796,0.1125227735210913
35.582055999999994,13.132392714786915,0.1122234398493934
35.586192,13.194178536587266,0.1118974952333291
35.590323999999995,13.255521458787872,0.1115878480894961
35.59446,13.323144899113563,0.1112495614775169
35.598603999999995,13.393349265164357,0.1109052012899941
35.602732,13.466810324015391,0.1105569032669258
35.606868,13.538709816591805,0.1102389406745987
35.611004,13.605458875393548,0.1099664166686023
35.61514,13.675342484420067,0.1096707414956096
35.619276,13.743210209896697,0.1093923931796176
35.62342,13.809627093998635,0.1091388474780887
35.627556,13.87391736965075,0.1089058128428674
35.631684,13.942693729677918,0.1086546569841844
35.635811999999994,14.010240698130271,0.1084197726334581
35.63994,14.0805900421076,0.1081713976708741
35.644068,14.143773068760364,0.1079805657487249
35.648208,14.209204846438425,0.1077939365799749
35.652348,14.274415174316616,0.1076166359279222
35.656488,14.343435819494722,0.1074199839003028
35.660632,14.413021506848036,0.1072317295021712
35.664776,14.488544119951095,0.1070067867965407
35.668924,14.562050849504262,0.1067983536048449
35.67306,14.63454963728248,0.1065969253631185
35.677212,14.704135324635796,0.1064153576336806
35.681344,14.773499562189237,0.1062427382958115
35.685475999999994,14.84308524954255,0.1060660904069749
35.689608,14.911884444920789,0.1058912147051492
35.69374,14.984493957598946,0.1056967971896386
35.697824,15.055087586727208,0.1055188721557414
35.701964,15.127697099405362,0.1053289960632128
35.7061,15.2017574534582,0.1051223467831925
35.71024,15.276039257310911,0.104910264081439
35.714372,15.346953643463443,0.1047078423048003
35.71846,15.417413712340704,0.1044974527555543
35.722548,15.4854035803928,0.1042928646738887
35.726684,15.55596295649446,0.1040606676920462
35.730812,15.62438430647076,0.1038254947951937
35.734948,15.688541021871872,0.103601763743893
35.739084,15.747425160922846,0.103396766294957
35.743227999999995,15.803384781873383,0.1031879969563023
35.747367999999994,15.857660693973832,0.1029859757562957
35.751496,15.91192518839875,0.1027650448177185
35.75562,15.970553624623255,0.1025123329276008
35.759756,16.029846410247373,0.1022436650218577
35.763887999999994,16.086214677771054,0.1019714780137409
35.76802,16.141342136044383,0.101693407695722
35.77216,16.196912493917452,0.1014054552062811
35.776244,16.248439667015205,0.1011224083072502
35.780384,16.297496639287786,0.1008439701629743
35.784476,16.347107236060044,0.1005535967659797
35.788568,16.395034123982214,0.1002686793752499
35.792656,16.447103503904103,0.0999604614297053
35.796748,16.50141021717576,0.0996374170405886
35.800832,16.557167771822098,0.0992995681581932
35.804924,16.612249559393295,0.0989601837343109
35.809016,16.66967940521419,0.0986044947862462
35.813112,16.72463905020992,0.0982530245705043
35.81726,16.781946753455347,0.0978832787496086
35.821404,16.84238900692555,0.0974964604779806
35.825496,16.90394992707063,0.0971033208432172
35.829592,16.964048588165497,0.0967107945150919
35.833732,17.025155191035314,0.0963163659054857
35.837872,17.08659396860493,0.0959181255615876
35.842012,17.14724625419947,0.0955223202399795
35.846104,17.21181958199386,0.0951114947280014
35.850248,17.274487751138295,0.0947106911299885
35.854384,17.337709544782403,0.0942996488539403
35.85852,17.404852380626362,0.0938732134493312
35.862652,17.474343274720024,0.0934311044594126
35.866788,17.54125324308858,0.0929965588929849
35.87092,17.60378785198201,0.0925724006313392
35.875056,17.663741535150344,0.0921566072231373
35.879148,17.72100356769364,0.091750298479151
35.883284,17.77916281711195,0.0913449958357679
35.887412,17.842361775404992,0.0909187725051407
35.891548,17.901971866197986,0.0905047389141864
35.89568,17.964827232115688,0.0900736594685182
35.899812,18.03305448160793,0.0896162620435619
35.903944,18.100040921849825,0.0891540984886822
35.908092,18.167580986591396,0.0886823723880934
35.912232,18.23175363363278,0.0882161311139239
35.916363999999994,18.29356680474894,0.087751677416818
35.920492,18.350328849314835,0.0872947350157816
35.92462,18.407079476205197,0.0868226260451009
35.928748,18.459111151245093,0.0863504527676076
35.932883999999994,18.509336974859437,0.0858655257098302
35.93702,18.55630610567353,0.0853830963473352
35.94116,18.60146938506208,0.0848898256049891
35.9453,18.644826813025063,0.0843852712827121
35.949436,18.68637838956249,0.0838680485758483
35.953579999999995,18.73206104042411,0.0833155434603967
35.957716,18.77537279768496,0.0827460655109663
35.961864,18.817321603120003,0.0821543897461983
35.966,18.854429314129103,0.0815456326665117
35.970136,18.882774888512436,0.0809332744034252
35.97428,18.905947193770025,0.0803083229524199
35.978407999999995,18.92170889655212,0.0796838085642237
35.98254,18.922217912459026,0.0790859943585363
35.98668,18.91452983391533,0.0784858445014795
35.99082,18.902233528421128,0.0778780439577766
35.994955999999995,18.8856611706762,0.0772534373065971
35.999088,18.86189966025564,0.0766210555096093
36.003167999999995,18.835324356634583,0.0759760933211547
36.007252,18.79988760916334,0.0753403329678622
36.011336,18.75828106846695,0.0747089367593891
36.015415999999995,18.715544443420143,0.0740637394547777
36.019507999999995,18.66808886652288,0.0734092833451358
36.023596,18.611771845775426,0.0727622293612112
36.027684,18.548166365127944,0.072124303448063
