Time,Force,Position
34.869496,11.06142628831494,0.1491867668625818
34.87363599999999,11.182160241254715,0.1487623821452377
34.87777199999999,11.280960308441207,0.1483912020409425
34.881924,11.359510198724506,0.1480541150993463
34.88606399999999,11.41769918720467,0.1477579710309268
34.890204,11.454519332106754,0.1475066624232062
34.894336,11.479950743955822,0.1472070974298581
34.898467999999994,11.486284898603175,0.1470025176843528
34.90260799999999,11.48061164150004,0.1468870858351315
34.90674399999999,11.47213600887193,0.146799359882026
34.910827999999995,11.466573476668728,0.1466790037239631
34.914908,11.463481145290691,0.1465439148602569
34.919044,11.46845234811223,0.1463096431984269
34.92318399999999,11.474530799933111,0.1460298003151962
34.927319999999995,11.47857053285304,0.1457177135607137
34.93145199999999,11.474080996622588,0.1454656393044036
34.935588,11.465548275616817,0.1452342016052853
34.93972799999999,11.45780204658612,0.1449997259721893
34.94385999999999,11.446024050455636,0.1448131596694928
34.948004,11.435696895699838,0.1445959090490063
34.95214,11.425026148568708,0.1443631288159715
34.95623599999999,11.41860861833723,0.1440731604945126
34.960331999999994,11.412744712605422,0.1437606377749868
34.96441999999999,11.409007415323448,0.143419555308476
34.96855599999999,11.405724435316747,0.1430892993812046
34.97268399999999,11.412532290735044,0.1426684500234858
34.976811999999995,11.41576269632883,0.1423066799972895
34.980908,11.4281867204726,0.1418634844749625
34.985028,11.440843612091776,0.1414390311724675
34.989155999999994,11.4547413129613,0.1410228733666112
34.99329599999999,11.47369014038109,0.1405801670157628
34.99744399999999,11.501721861450932,0.1400655807867752
35.00157999999999,11.529432825496505,0.1395959889779136
35.00571599999999,11.560965524517522,0.1391211615715598
35.009851999999995,11.598114392264018,0.1386280777297062
35.01399599999999,11.641211603435789,0.1381009746986974
35.018131999999994,11.689138491357957,0.1375580894217775
35.02227599999999,11.737630421455334,0.1370240196107154
35.026416,11.796102462077773,0.1364146743106359
35.03054399999999,11.860079946525754,0.1357941722875056
35.034679999999994,11.928333483224456,0.13517905139117
35.03881999999999,12.000408754898608,0.1345674113499541
35.04295599999999,12.078210920198169,0.133938263202994
35.0471,12.16207215382294,0.1332819587270556
35.05123999999999,12.246830604322726,0.1326220511234295
35.05538,12.327225113022918,0.1320241961963871
35.05951599999999,12.41401086474813,0.131384014497807
35.06365199999999,12.495756907598608,0.1308026228375209
35.06778399999999,12.584115643273972,0.1301716887679768
35.07191999999999,12.675166029574376,0.1295277405393767
35.076055999999994,12.758374331475071,0.128959880275121
35.08018799999999,12.834527040951142,0.1284689398098152
35.08431599999999,12.911122650026952,0.1279663718361852
35.08843999999999,12.984350841402584,0.1274837285742095
35.092568,13.054100890178104,0.1270259824005596
35.096695999999994,13.122388679903404,0.1265723258444396
35.10082799999999,13.18719832702859,0.1261409609002069
35.104963999999995,13.254245307503542,0.1256875914287261
35.10910399999999,13.31759269557851,0.1252667209298259
35.113248,13.37858060772825,0.1248560891992652
35.11738799999999,13.441351535952482,0.1244153659111856
35.12153199999999,13.49637968700141,0.1240147646788765
35.125671999999994,13.547586103074885,0.1236227184740561
35.12981599999999,13.592954900623022,0.1232564483808695
35.133951999999994,13.639663814645909,0.1228732809897795
35.138088,13.690958120268254,0.1224419974656552
35.142224,13.73518541579044,0.1220489835299671
35.14635199999999,13.780752827787378,0.1216385853095419
35.15048399999999,13.821944880309193,0.1212526476834852
35.154624,13.860777456905776,0.1208729607157816
35.15876399999999,13.906665625926983,0.1204369363611701
35.16289999999999,13.954226086122752,0.1199732618456824
35.16702799999999,14.000102837468429,0.119518019558635
35.17116399999999,14.048106197263932,0.1190458469220529
35.175304,14.094536573109282,0.1185777460354413
35.17944,14.14298283250453,0.118097508571681
35.18357599999999,14.19287993327446,0.1175979213484613
35.187715999999995,14.241990542069315,0.1171040909857814
35.19184799999999,14.288520225139068,0.1166222608093407
35.19597599999999,14.333366199358732,0.116148592596035
35.200108,14.374512581178417,0.1156994748594093
35.20424399999999,14.420366497173028,0.1152244286664204
35.208383999999995,14.464204529617744,0.1147666565174955
35.212515999999994,14.508718329137604,0.1143137270968612
35.216652,14.554350795332343,0.1138541837682658
35.22079199999999,14.592251902027318,0.1134470972441026
35.224936,14.637552193522255,0.1130031376279899
35.22907599999999,14.681844543242246,0.1125686706215966
35.23320799999999,14.725018226287354,0.1121460078485197
35.237359999999995,14.769089126207476,0.1117215062805831
35.241491999999994,14.810357650602626,0.1113158820091097
35.24561999999999,14.8534206087478,0.1109058163475631
35.24975599999999,14.895807799817833,0.1104944883378012
35.25388799999999,14.937187049112916,0.1100930909275166
35.258032,14.981257949033036,0.1096823151236399
35.26216799999999,15.022526473428186,0.1092888810600681
35.26629999999999,15.066375923548437,0.1088911808147759
35.270427999999995,15.108209490118792,0.108509466588873
35.274559999999994,15.15306688201399,0.1081094229482503
35.2787,15.196916332134242,0.1077173369126701
35.28283999999999,15.241884448929374,0.107317592851617
35.286987999999994,15.281137089774631,0.1069500645747685
35.29111999999999,15.323413555944729,0.1065645052076932
35.295244,15.365014255039684,0.1061780868954577
35.29937199999999,15.405717737259623,0.1057986733237348
35.3035,15.453366087004262,0.105378960759819
35.307632,15.495631135498824,0.1049827357536564
35.31177199999999,15.53811763379326,0.1045819277618894
35.31590799999999,15.58575456586236,0.1041490904138556
35.320048,15.630921297106296,0.1037215864312457
35.324192,15.67429359460021,0.1033022066561026
35.32833199999999,15.715195691268956,0.1028894222970088
35.332476,15.75800294658766,0.1024690942406927
35.33661199999999,15.800023709931292,0.1020508960452106
35.34076399999999,15.840360764424831,0.1016382124220214
35.3449,15.8828244273682,0.101212844455415
35.34902799999999,15.920802005936508,0.1008054071264933
35.353168,15.960008976079637,0.1003878947416342
35.357304,15.995405628922844,0.0999898664557796
35.361436,16.032928890215878,0.0995785089654527
35.36557599999999,16.068436267959022,0.0991804619281989
35.369716,16.109991296351847,0.0987488763458628
35.373847999999995,16.150759832769594,0.0983202048048848
35.37797599999999,16.187718051887423,0.0979090331728425
35.38211199999999,16.22266038745536,0.0975114490870202
35.38624399999999,16.248863421748577,0.097157713280822
35.39037599999999,16.27686088979182,0.096799586993173
35.39450799999999,16.306984966284894,0.096429289693716
35.39860399999999,16.33218005880317,0.0960862104089329
35.402739999999994,16.360853293921554,0.0957364023990245
35.40687199999999,16.391653137489772,0.0953740255572782
35.410996,16.420104922808285,0.0950318317707338
35.415128,16.44743804145192,0.0946993363294416
35.41925599999999,16.473652493420673,0.0943758726163994
35.42338799999999,16.497961786739467,0.0940610147032693
35.42751999999999,16.519247254733425,0.0937635954019786
35.431664,16.540421997827444,0.0934694860705292
35.435812,16.55958085737157,0.0931869661510204
35.43995199999999,16.583447251090625,0.0928874147261045
35.44409999999999,16.605187036359855,0.0926021100864306
35.448235999999994,16.629839922053982,0.0923049975230133
35.45237599999999,16.650571765548268,0.0920274449898748
35.456464,16.66816905881777,0.0917688396318668
35.46060399999999,16.68946594448726,0.0914978748673524
35.464732,16.708857671506788,0.0912348124998556
35.468868,16.736767250001158,0.0909399539583083
35.472995999999995,16.76266094494564,0.0906562132920092
35.477132,16.78519863986548,0.0903970531824716
35.481264,16.808412101860455,0.090141529605342
35.48534799999999,16.82960968030554,0.0898971491020604
35.489492,16.848348475600993,0.0896743384821031
35.493624,16.867984487771462,0.0894492899515969
35.497755999999995,16.88919348389208,0.0892260084540593
35.501887999999994,16.911299696887706,0.0890009220979726
35.506028,16.938678486233474,0.0887661359298966
35.51016399999999,16.96662231775445,0.0885376669813576
35.514308,16.99602840832564,0.0883134679003328
35.51844399999999,17.025888816172106,0.0880982148503532
35.52256799999999,17.056092816393907,0.0878959249620108
35.52669599999999,17.090782900990764,0.0876840101213367
35.530824,17.12469791128808,0.0874918861620802
35.53495199999999,17.161648164585774,0.0873054363268955
35.539092,17.202530877758843,0.087122178339337
35.54323199999999,17.247567500607175,0.0869377977107631
35.54736799999999,17.29686875803069,0.0867491070259928
35.551503999999994,17.34248184072976,0.0865913499403397
35.55564799999999,17.38832779090423,0.086447318924755
35.55979199999999,17.438327650753962,0.0863016538946618
35.56388799999999,17.487995335903882,0.0861641209853544
35.568023999999994,17.538903830304154,0.0860360967884823
35.572171999999995,17.592282525529587,0.0859075918107739
35.57631599999999,17.64600481313036,0.0857900373736678
35.580444,17.69569533363135,0.0856910511236528
35.584571999999994,17.747523880257695,0.0855995710674548
35.58869999999999,17.795209934884326,0.0855295163586532
35.592727999999994,17.842453089911213,0.0854697364833952
35.596864,17.889364070238294,0.0854178821983911
35.600995999999995,17.939077426090343,0.0853580729908807
35.605132,17.983186030892455,0.0853153700130233
35.642364,18.309630385216277,0.085288496863321
35.646491999999995,18.347137714869035,0.0852868314977507
35.65062399999999,18.38464504452179,0.0852851967173048
35.65475199999999,18.422938866149625,0.0852842854978173
35.658891999999994,18.466050946852324,0.0852670063270004
35.66303199999999,18.515554270580044,0.0852345703378663
35.667171999999994,18.56326316055774,0.0852059011076003
35.671308,18.61366370116047,0.0851718176776495
35.67544799999999,18.666866617288164,0.0851298521041596
35.679592,18.722871908940835,0.0850803326803679
35.68373199999999,18.77843430099376,0.0850408844184514
35.687872,18.838261327621883,0.084997160263847
35.692015999999995,18.89438876185002,0.0849629432638998
35.696152,18.95331857160313,0.0849210847143925
35.700284,19.020655507931146,0.0848561243430829
35.70442,19.087328094859554,0.0848054616967278
35.708552,19.14872810543783,0.0847635219440223
35.84088,20.120207666334032,0.0847274955456738
35.84501999999999,20.113018513658407,0.0847245400844724
35.84916399999999,20.104256377032627,0.0847204287301533
35.85329999999999,20.096834356881597,0.0847056651789494
35.85739199999999,20.08604491903039,0.0846930560180852
35.86565599999999,20.05358871592789,0.0846902824957185
35.869744,20.04021835235159,0.0846804698104417
35.87386799999999,20.032784914525024,0.0846493609805095
35.877996,20.028829619298577,0.0846137946614248
35.88213599999999,20.026668757822147,0.0845749384612864
35.886275999999995,20.026080880295872,0.0845372416591745
35.89041599999999,20.02930332006952,0.0844884407447974
35.894504,20.03633607714308,0.0844286092111051
35.898596,20.04606048484167,0.0843638031930857
35.902732,20.058697992965172,0.0842896639662205
35.90687199999999,20.07380570191384,0.0842150537128587
35.911024,20.08981062773752,0.0841390234443676
35.91511999999999,20.113325463261106,0.08404350180216
35.91921599999999,20.132354214409624,0.0839563497300309
35.92330399999999,20.15597977483314,0.0838590019504341
35.92739999999999,20.18330492765664,0.0837536067340575
35.931496,20.213543180905035,0.0836391920528794
35.935632,20.24748102655342,0.0835167040408595
35.93972799999999,20.279513713551843,0.0833994210519668
35.943867999999995,20.32129364359993,0.083251183708461
35.94795199999999,20.369231949197637,0.0830782628925911
35.95209999999999,20.41581872064505,0.0829005963208531
35.956228,20.462061899717128,0.0827143634986776
35.960364,20.508182936213743,0.0825150767753821
35.964496,20.55115800481005,0.0823137584206287
35.96857999999999,20.594232380630757,0.0820947864546446
35.97271599999999,20.635279455226037,0.0818682033542165
35.97679599999999,20.67418850369595,0.0816362142686974
35.98092399999999,20.712975409590403,0.0813911024495315
35.98500799999999,20.74962428935949,0.0811402799583892
35.98913999999999,20.78849908480281,0.0808630561813742
35.99328,20.82456008704563,0.0805770861446071
35.99741999999999,20.854439878387765,0.0802845023327491
36.00151199999999,20.88464042675417,0.0799698036898161
36.005647999999994,20.91426451526984,0.0796356254233879
36.009732,20.93759666798489,0.07929642326391
36.013864,20.957549985324235,0.0789431518055897
