Time,Force,Position
36.567596,11.40709853284318,0.154887707245809
36.571736,11.575189817565173,0.1543385997764881
36.57588,11.72671910010842,0.1537639336051404
36.580016,11.862140697748188,0.1531879756195033
36.584148,11.97787716065997,0.1526671998813182
36.588284,12.074382806119033,0.1522102346608244
36.59242,12.15883536912547,0.1517421490654074
36.596552,12.229008934005057,0.1513237208880456
36.600696,12.28636575980801,0.1509473203460323
36.604832,12.34303540086029,0.1505491172982228
36.60896,12.399250724637294,0.1501429433355519
36.613088,12.454679556439222,0.1497388133425542
36.617216,12.513242938465924,0.1492997954924041
36.621352,12.570565511242284,0.1488578381034085
36.625488,12.624509248642926,0.1484133921567156
36.629624,12.675184875567796,0.147963958368256
36.633764,12.725394767541856,0.1474831342617723
36.637908,12.77279086631542,0.1470047556426501
36.64206,12.815590155813986,0.1465714752784829
36.646208,12.860626778662317,0.1461144451105656
36.650348,12.89546184118571,0.145746627933953
36.6545,12.930961253108714,0.1453566030803336
36.658632,12.967014289531392,0.1449490674677042
36.662768,12.997794749603935,0.1445808662401089
36.666904,13.030701818126309,0.1441896195858892
36.671032,13.06214662759846,0.1438017097427255
36.675172,13.09190772822052,0.1434252009323518
36.679308,13.12267677061753,0.1430397367769013
36.683444,13.15602673873964,0.1426395292713943
36.687576,13.188368765086803,0.1422537074912373
36.691712,13.222173050484184,0.1418681544853173
36.695844,13.26247930380652,0.1414319863712144
36.699972,13.29774584825412,0.1410492972488777
36.70412,13.331783001126905,0.1406856577055946
36.708256,13.365487979299887,0.1403342589548334
36.712392,13.398406465497793,0.139987361107622
36.71652,13.429419793045737,0.1396591515286144
36.720648,13.460089528218344,0.1393191767073154
36.724784,13.489629179040538,0.1389700488399535
36.728928,13.50964303661294,0.1387024847146044
36.733076,13.539293412335068,0.1383512973306721
36.73722,13.568722338257327,0.1380098274680219
36.741364,13.597696946904312,0.1376619458365667
36.745512,13.62890888890106,0.1372882254536062
36.749656,13.653053820797648,0.1369587998928084
36.7538,13.675515043844149,0.1366379779477769
36.757932,13.697411224715442,0.1363127563407042
36.762068,13.717845146536517,0.1359893062715584
36.7662,13.7365953595075,0.1356748363478689
36.770336,13.752764646753384,0.1353754565579692
36.774464,13.770274050474022,0.1350572655386923
36.7786,13.78509180356962,0.1347586257820197
36.78274,13.803265556689867,0.1344216794793251
36.786872,13.821660759609982,0.1340777073353843
36.791016,13.8453171212047,0.1336824924943137
36.795148,13.86706832414946,0.1333026945330239
36.799284,13.888143760019076,0.1329221898169259
36.803416,13.912918788288676,0.1325186126960536
36.807552,13.9394882503083,0.132106050184221
36.811692,13.97053237902745,0.1316422268790921
36.815824,13.996303931396463,0.1312099947791681
36.819956,14.01803229899016,0.1307906050735362
36.824092,14.037855507933896,0.1303870859969036
36.828232,14.058010891577435,0.1299751100518824
36.832372,14.083205984095711,0.129518799133336
36.836516,14.110527685063811,0.1290422475472419
36.84066,14.13673071935703,0.1285784729784559
36.8448,14.16293375365025,0.1281157229981502
36.848952,14.190476904418224,0.1276350533380082
36.853096,14.218241504986066,0.1271483732112664
36.857248,14.238828370553811,0.1267028566679737
36.861388,14.257055760196328,0.1262632850207492
36.86552,14.274385932963831,0.1258307194428412
36.869656,14.294961380856046,0.1253675658652391
36.873792,14.310607844773465,0.1249457478115733
36.877936,14.328380917140706,0.1245043601646789
36.882068,14.34615398950795,0.1240637455415148
36.8862,14.35720364415037,0.1236719063417753
36.890332,14.366348140142836,0.1232942856145432
36.89446,14.374939011635623,0.1229344494469692
36.898596,14.384316375103488,0.122573593405342
36.902736,14.394148055846628,0.1222209059080539
36.906872,14.402971794814816,0.1218766027646649
36.911004,14.408660983558237,0.1215608795274831
36.915144,14.411215622076876,0.1212731058548893
36.91928,14.41444602767066,0.1209883871634673
36.923408,14.423391909214317,0.1206668979635381
36.927536,14.434697266683203,0.1203429258555924
36.931668,14.44825137517739,0.1200206403843251
36.935812,14.458338758746995,0.1197351492129977
36.939956,14.477963353241927,0.1194109237004994
36.9441,14.499615248962286,0.1190943602061015
36.948248,14.524413112582952,0.1187757045149905
36.952388,14.546530743254117,0.118494260864466
36.956536,14.56932414100042,0.1182158020772794
36.960676,14.591342464447182,0.1179614860370628
36.964816,14.614601597144292,0.117715943123376
36.968948,14.644927739941563,0.1174401871278884
36.97308,14.67728118396426,0.1171725932605085
36.977216,14.711994103912186,0.1169032035660254
36.981352,14.74963154196055,0.1166381127117168
36.985492,14.793660223033932,0.1163417168722645
36.989624,14.83803249648265,0.1160575870795779
36.993764,14.88386702898159,0.1157752831438136
36.997908,14.937665788455702,0.1154609884428441
37.00204,14.990910923430135,0.1151647461973839
37.00618,15.041586550355008,0.1149025575341667
37.01032,15.0914756853048,0.1146432822191979
37.01446,15.135649344304715,0.1144187126140149
37.018592,15.18777581260427,0.1141407439726722
37.022728,15.232503096103864,0.1139024456600836
37.026864,15.275546670753364,0.1136697188491851
37.031008,15.30950735175281,0.1134799887638426
37.035148,15.344697424327077,0.1132776400255566
37.039292,15.375966454701492,0.1131002478226424
37.043436,15.408575601550655,0.1129069405319862
37.047588,15.439501039549734,0.1127187425534489
37.051732,15.46571894337388,0.1125573408949223
37.055884,15.484648387297996,0.1124296934504095
37.060024,15.501894122372024,0.1123071622315997
37.064164,15.51666965662089,0.1121904453098552
37.0683,15.529318582419926,0.1120916660366369
37.072432,15.5475722592689,0.1119645299803425
37.076568,15.566723152992886,0.11183398404726
37.080712,15.58239590411676,0.1117166347539007
37.084848,15.59459051264052,0.1116110039243063
37.08898,15.60610935408914,0.1115033559938126
37.093116,15.614272195513117,0.1114252995761159
37.097252,15.624118745787182,0.1113427817946377
37.101392,15.629379904461787,0.1113030059888641
37.105528,15.6381192057365,0.1112516200082678
37.109664,15.64843149096137,0.1111991897557305
37.113792,15.664802844511453,0.1111270665934623
37.117924,15.67972335668685,0.1110741750564439
37.122052,15.702043053662209,0.110986144664548
37.12618,15.72302263416282,0.110914347729765
37.130316,15.74489943153844,0.1108391107874333
37.134464,15.76677622891406,0.1107638738451017
37.138596,15.796162935989582,0.1106501961958168
37.142744,15.82465242619009,0.110540404307615
37.146892,15.85426058306548,0.1104215569793777
37.15104,15.881398539115702,0.1103079354281493
37.155192,15.901358760165833,0.1102234655837653
37.159332,15.921651155915768,0.1101304451290796
37.163472,15.93499868414101,0.1100802697888323
37.167604,15.952156529666173,0.110009944290321
37.171736,15.965725507691282,0.1099538505707465
37.175872,15.982761210640977,0.10986614631686
37.180012,16.001923522040496,0.1097625751783128
37.184156,16.021750182839625,0.1096411653149289
37.188288,16.043924901888452,0.1094986152131556
37.19242,16.06721828761216,0.1093473730560562
37.19656,16.091741064910686,0.1091844895707501
37.200696,16.11782540848383,0.109000912562146
37.204836,16.14244749300676,0.1088168158017872
37.208972,16.169639085579256,0.1086062957573913
37.213112,16.19884656170164,0.1083841623401818
37.217248,16.232085804923816,0.108138035156011
37.221376,16.268681048170638,0.1078670616105848
37.225504,16.307402899867288,0.1075817188547968
37.229592,16.34522753468892,0.1073008362453589
37.23374,16.38294144461062,0.1070230996753396
37.237876,16.42659228028207,0.1067126733006293
37.242016,16.4664327986536,0.1064212468615011
37.246164,16.51343963434969,0.1060842020714818
37.2503,16.563802470070428,0.1057233752597412
37.254444,16.61729985601594,0.1053419456746725
37.258584,16.67101869176132,0.1049572035048947
37.262744,16.72988796128137,0.1045438965195889
37.266876,16.788978680601286,0.1041265986199493
37.271012,16.845931373795846,0.103707603026718
37.275144,16.901643257740055,0.1032829748039206
37.279236,16.958130215983807,0.102842041790432
37.283368,17.012146973402395,0.1024059241453435
37.287508,17.06189909624579,0.1019803674152337
37.291656,17.106943684914256,0.1015762924950187
37.295788,17.151755406107323,0.1011611351819773
37.299924,17.19252394252507,0.1007512226953042
37.304056,17.229925061242643,0.1003507049569358
37.308192,17.267879804459884,0.0999387416453886
37.312328,17.306609621976673,0.0995094251046299
37.316472,17.349249064017776,0.0990442034993971
37.320604,17.389529030133655,0.0985818632561135
37.324736,17.434505112748926,0.0980831176049019
37.328864,17.479248327888797,0.0975741465421341
37.332992,17.520402675528615,0.09707902216941
37.337124,17.559984039218286,0.0965848033451218
37.341264,17.59888963583281,0.0960900071738127
37.345396,17.62882306369722,0.0956227110928681
37.349536,17.66211249158627,0.095134898968586
37.353676,17.6961884114504,0.0946495213267304
37.357816,17.7333988815393,0.0941495000106408
37.361964,17.76690975922822,0.0936635148221675
37.366108,17.805460345791882,0.0931552281707312
37.37026,17.848042699455323,0.0926288364094542
37.374396,17.89689415356831,0.0920703804489959
37.378528,17.942832507256398,0.0915258051713877
37.38266,17.99549427866931,0.090959183264641
37.386796,18.045464399457185,0.0904014144330193
37.390932,18.094648028269983,0.0898462478848296
37.395064,18.142823715307838,0.0892980111566707
37.399204,18.19088867744575,0.0887565441835095
37.403336,18.24096952313356,0.0882092546443843
37.407468,18.29205831059631,0.0876614226626205
37.4116,18.34213915628412,0.0871211433534641
37.415736,18.39266290157167,0.0865736140302221
37.419876,18.447550588658807,0.0860039879350032
37.424012,18.503889117120632,0.0854234756386679
37.428152,18.565156629557254,0.0848257724815111
37.432288,18.622835274493838,0.0842392785371658
37.43642,18.68106754393009,0.0836443260970057
37.440556,18.732797845441382,0.0830690271967747
37.444688,18.78956785582741,0.0824761777507786
37.448824,18.84185178183839,0.0818951401088486
37.452964,18.89357066567416,0.0813118805694645
37.457108,18.943495115759895,0.0807361605229351
37.461248,18.99688629077022,0.0801414538189378
37.465396,19.04108384723056,0.079569906905757
37.469532,19.09032111256562,0.0789819421635776
37.47368,19.141574261450582,0.0783896567309425
37.47782,19.194954018785364,0.0777901186769741
37.481948,19.24283974997015,0.0772036431278808
37.486084,19.28623939677987,0.0766265599157444
37.490216,19.327733884939637,0.0760577024717709
37.494344,19.368552606024256,0.0754877062119227
37.49848,19.40836338533393,0.0749234828248567
37.502624,19.44425312244376,0.0743738312218523
37.506756,19.479024192878697,0.0738325762737023
37.510892,19.510992887788667,0.0732992001365488
37.515024,19.54408024937352,0.0727619882061298
37.519156,19.573246568758528,0.0722378275864
37.523296,19.60834981389327,0.0716969675690348
37.527436,19.639642741728103,0.0711678444318008
37.531572,19.670038452687923,0.070640487003105
37.535712,19.70122065562282,0.070116653347361
37.539848,19.72870326615773,0.069600717502779
37.54398,19.756075151792707,0.0690895931686287
37.548116,19.78804384670268,0.0685717860647837
37.55226,19.812170457212957,0.0680763698036291
37.5564,19.828897882923258,0.0675936662009918
37.56054,19.842822933108597,0.0671171928916739
37.564676,19.86224200944393,0.0666340055359965
37.568828,19.883566244429232,0.0661475347474006
37.572976,19.90489047941453,0.0656626308431825
37.57712,19.928795640124928,0.065179229744616
37.581248,19.950574192385496,0.0647044825184837
37.585376,19.977736045896137,0.0642269852110729
37.589512,20.002882015856887,0.0637564285166683
37.593644,20.032403345292764,0.0632860480873474
37.59778,20.059465891579,0.0628310660045823
37.60192,20.09112524714024,0.0623717715324714
37.60606,20.11864211070175,0.0619275790974225
37.610192,20.14324587383836,0.0614900560342848
37.614324,20.17222499645009,0.0610526854736295
37.618464,20.19896678571205,0.0606264691048105
37.622596,20.23109187622409,0.0601981740954884
37.626744,20.262884792036328,0.0597782391120843
37.630876,20.29434553314876,0.0593659949359063
37.635016,20.334213400836106,0.0589438928750679
37.639144,20.38395065414857,0.058517522560837
37.643276,20.436047383386278,0.0580974417002252
37.647404,20.48702544594909,0.057684444794768
37.651544,20.54137092621209,0.0572760799973109
37.655688,20.595384231775284,0.0568756722879351
37.659824,20.64648443691358,0.0564826616777706
37.663968,20.701284234451844,0.0560871959888855
37.668116,20.7522737146902,0.0556999115011936
37.67226,20.80516835357851,0.0553111986943398
37.676408,20.852568966316813,0.0549283364888016
37.680548,20.904001346154907,0.0545376254262263
37.684684,20.949496800243256,0.0541600597518618
37.688816,20.995668021406747,0.0537870415531772
37.692952,21.047222543820308,0.0534134246365485
37.697088,21.09575324090903,0.0530482846503022
37.70122,21.1432759962228,0.0526862158093487
37.705356,21.185648317761903,0.0523387965053167
37.709492,21.21995710510144,0.0520092393481459
37.713628,21.2543766173409,0.0516788358317869
37.717764,21.279048886530703,0.0513650881682408
37.7219,21.296100521120675,0.0510619294386602
37.726044,21.31023905528574,0.050763814279572
37.730184,21.317543446826047,0.0504766925079905
37.73432,21.31678430416678,0.0502067889937568
37.738408,21.31120690243265,0.0499433328218039
37.742536,21.30227350067388,0.0496918249186161
37.746664,21.29020554869033,0.0494486960392851
37.750792,21.27220067095704,0.0492156488175371
37.75492,21.247815967874256,0.0490004210413659
37.75906,21.21974309006703,0.0488024220954911
37.763196,21.18338522826036,0.0486243910052958
