Time,Force,Position
35.150932,5.33518574508738,0.1757389869318556
35.155068,5.798331538819995,0.1726308317930077
35.159203999999995,6.258728593549911,0.1695977500827012
35.163335999999994,6.711302947375795,0.1666141521389315
35.16747599999999,7.142817796972339,0.1643500413463892
35.171616,7.548210598113743,0.1625467009979539
35.175752,7.930959493400123,0.1609093238242959
35.17988,8.284795382381926,0.159618899814586
35.184008,8.617006724959184,0.1584532444516143
35.18814,8.928047838407167,0.1573866136164492
35.192283999999994,9.212546839151337,0.1565552441826417
35.196416,9.475310568591023,0.1557423480715989
35.200551999999995,9.723959661326068,0.1548086864527693
35.204684,9.943806472656467,0.1540125029489508
35.208811999999995,10.141795870106918,0.1532110146288265
35.212944,10.31121585362813,0.1525335092849586
35.217088,10.462500851020442,0.1518418285524724
35.221228,10.594089296009232,0.1511790468116056
35.225368,10.708905706694935,0.1505396297319007
35.229508,10.80919883410285,0.1499161218404803
35.233644,10.89351783685829,0.1493410456634511
35.237792,10.961320508137112,0.1488626930718583
35.241888,11.01776869938952,0.1484287217209437
35.246027999999995,11.066241245991224,0.1480431968242566
35.250172,11.110892057617477,0.1476731799984296
35.254307999999995,11.153526985693835,0.1473294814302132
35.25844,11.194588929820046,0.146994691458918
35.262564,11.237433890020744,0.1466150529810089
35.266704,11.27455195659603,0.1462705679149088
35.270836,11.30717252112073,0.1459389767073867
35.274975999999995,11.33562775829464,0.1456045430903665
35.279115999999995,11.362055694243123,0.1452674845319276
35.283252,11.382191694390992,0.1449596727320203
35.287388,11.400078943513565,0.1446575327692427
35.291528,11.411907124310924,0.1444023338303327
35.295668,11.423613162532815,0.1441234073251135
35.299803999999995,11.432726857354076,0.1438350532748761
35.303943999999994,11.442504901574942,0.1435201646622178
35.30808,11.452050078320408,0.1431874716176944
35.312216,11.459346504040576,0.142861238074582
35.316343999999994,11.46036241163566,0.1425873034060056
35.32048,11.460924001955473,0.1423032106473961
35.32462,11.46159631717522,0.1420148305827298
35.32876,11.459576981769937,0.1417485955615981
35.332899999999995,11.45508744553948,0.1414950958824663
35.337044,11.452159475583649,0.1412070750254338
35.34119999999999,11.449342230527751,0.1409146745822888
35.345344,11.447311477446933,0.1406202435658036
35.349487999999994,11.447972374991153,0.1403038871489592
35.35362799999999,11.451214198260466,0.1399707628496593
35.357764,11.456029005479934,0.1396318054786726
35.361895999999994,11.466670013549216,0.1392346069498561
35.366032,11.475749455343877,0.1388705410169051
35.370168,11.486401881088687,0.1385013829678004
35.374303999999995,11.500200274733809,0.1381218346742518
35.378443999999995,11.516701736679495,0.1377512748256155
35.382572,11.534001108275795,0.1374068424192441
35.386703999999995,11.550636130472489,0.1370899394073222
35.390832,11.564701644619609,0.1368186317535355
35.394968,11.575976200917298,0.1366007828325781
35.399111999999995,11.593420550440127,0.136338635473877
35.403256,11.615916026513228,0.1360508600532806
35.407388,11.638755094961663,0.1357786979828032
35.411516,11.665748073085352,0.1354861582239128
35.415648,11.697681452859378,0.1351706715186071
35.419784,11.731420684058955,0.1348714133453825
35.423911999999994,11.764384840958993,0.1346026192897054
35.428044,11.796684648459417,0.1343615637598213
35.432184,11.827533614585152,0.1341492434929762
35.436319999999995,11.855137305586188,0.1339789240009036
35.440464,11.883306038762424,0.1338152380777474
35.444612,11.903189787939215,0.1337487160039928
35.44876,11.932377880565934,0.1336053422448896
35.452912,11.962573914967596,0.1334523892588944
35.457052,11.993777891144203,0.1332902832437911
35.461188,12.02015219057042,0.1331463159844549
35.46532,12.050447532196486,0.1329657051950499
35.469448,12.078051223197516,0.1328036956685612
35.473583999999995,12.106208538698215,0.1326208265532522
35.477723999999995,12.13884052089845,0.1323795893165616
35.481863999999995,12.170464561323731,0.1321507119269816
35.486,12.19468941694905,0.1319818265797726
35.490132,12.218238505499228,0.1318111468267486
35.494268,12.241001102074328,0.1316438623258721
35.498403999999994,12.262977206674352,0.131479897302838
35.50254,12.286293427749126,0.1312951044630558
35.50668,12.312068431973533,0.1310741959622509
35.510816,12.33548396027271,0.1308594491086028
35.514948,12.36135827172152,0.1306089462839897
35.519079999999995,12.389469916520094,0.1303300812600233
35.523216,12.421724053318387,0.1300094195410617
35.52735199999999,12.455207581691496,0.1296689891105759
35.531488,12.479386766614686,0.1294031196254399
35.535624,12.50457389331282,0.129129374242952
35.539767999999995,12.525274935635895,0.1288855568816592
35.543907999999995,12.55214577118412,0.1286061114621964
35.548052,12.574641247257214,0.1283535750729138
35.552192,12.604081590855008,0.1280382205663031
35.556344,12.635992135277965,0.1277151667941995
35.560475999999994,12.66599752105096,0.1274097455923173
35.564608,12.697453748198647,0.1270814825244664
35.568743999999995,12.731823075771237,0.1267284401855104
35.572875999999994,12.771121387318624,0.1263348391588863
35.577008,12.808060222940782,0.1259473762712413
35.581152,12.845220508362807,0.1255544594523059
35.585291999999995,12.878226884109582,0.1251794790598229
35.589431999999995,12.911343984756288,0.1248031631007236
35.593568,12.945690476977813,0.1244101937039645
35.5977,12.982728619824371,0.1240052738459698
35.60184,13.020885429345812,0.1235896243616102
35.605971999999994,13.055453371367204,0.1231985558077588
35.610108,13.095958239138346,0.1227600048994755
35.614239999999995,13.141502815784218,0.1222781797028916
35.618368,13.182229133355223,0.1218342553875165
35.622496,13.229789593550992,0.1213384895225849
35.626628,13.27398263604658,0.1208595394449549
35.630751999999994,13.32119950386701,0.1203571233589907
35.634884,13.367297705012556,0.1198729421910912
35.639032,13.413838805757845,0.1193780725864151
35.643172,13.462174340253153,0.1188765768145144
35.647304,13.509280483173647,0.1183944150151442
35.651447999999995,13.5582917847441,0.1179019709238991
35.655587999999995,13.604279260989712,0.1174388640006406
35.659727999999994,13.658230964210496,0.1169423047868764
35.663875999999995,13.714087826081238,0.1164373854946541
35.668012,13.774209322527168,0.1159200076985792
35.672148,13.835903802923257,0.1154050814031001
35.676283999999995,13.904776018319431,0.1148607801365269
35.680415999999994,13.972529567040732,0.1143340760766888
35.684548,14.044769200137088,0.1137925755261835
35.688692,14.118471092283665,0.1132562139515098
35.692832,14.189038434205468,0.1127512018786611
35.696963999999994,14.26028154320241,0.1122541342055571
35.7011,14.3400425036742,0.1117101867206739
35.705228,14.417455405896291,0.1111971356587444
35.70936,14.49744923384348,0.1106796257497124
35.7135,14.57733233689074,0.1101706482487936
35.717636,14.656539672862856,0.109664402777551
35.721776,14.733509675485204,0.1091823545405849
35.725911999999994,14.810590403007494,0.1087014537868784
35.730039999999995,14.88979773897961,0.1082076544882097
35.734168,14.968218582976649,0.1077183084437442
35.738308,15.049663252298524,0.1072131391612653
35.742448,15.12504885329519,0.1067331430643917
35.746584,15.20076662899166,0.1062494986460099
35.750719999999994,15.274911420737975,0.1057709190087413
35.754864,15.347704678334008,0.1052909810548092
35.759015999999995,15.416344026254784,0.1048256671453559
35.76316,15.48172668137532,0.1043674719882199
35.767312,15.539931601495756,0.1039396858326958
35.771443999999995,15.598800871015808,0.1034969466533105
35.775575999999994,15.658555939735336,0.1030328267674372
35.779712,15.716062257429568,0.1025696807663219
35.783843999999995,15.76773095659846,0.1021210483437277
35.78798,15.82039617986676,0.1016490404699867
35.792116,15.868796768559877,0.101188720675383
35.796256,15.916521590177846,0.1007285213899873
35.800391999999995,15.961554761170785,0.1002796737981935
35.80452,16.011173323763177,0.0997956449294709
35.808656,16.060116119280433,0.099311768728358
35.812796,16.106477989072587,0.0988368703898002
35.816944,16.15306130866461,0.098358714515074
35.821079999999995,16.19616648565652,0.0978924120132388
35.82521199999999,16.24016887952344,0.0974253798924052
35.829339999999995,16.281036723165595,0.0969809379638784
35.833468,16.324485492532848,0.0965342233073529
35.837596,16.372420346275153,0.0960781224420715
35.841736,16.418117866667696,0.0956410909693051
35.845879999999994,16.467514979460223,0.0951931098538879
35.850019999999994,16.523524785077637,0.0947213120033616
35.854167999999994,16.57729725734529,0.0942684651251545
35.858307999999994,16.633883522813445,0.0938287820937481
35.862452,16.692718539306895,0.0933954353506679
35.866603999999995,16.758399116100634,0.0929547118516003
35.870748,16.821288735044938,0.0925462882103725
35.874888,16.89236403076428,0.0921170131066151
35.879016,16.966806744183803,0.091687658295659
35.883151999999995,17.044616875303504,0.0912567541704331
35.887283999999994,17.118738831698757,0.0908608926603001
35.891423999999994,17.19555243871904,0.090461998862148
35.895568,17.27494697146443,0.090062110879806
35.8997,17.35793037170986,0.0896575667826958
35.903836,17.44158953903044,0.089258538206709
35.907979999999995,17.52535943125095,0.0888597859146432
35.912116,17.612939640771376,0.0884502602931455
35.916256,17.697152432591626,0.0880474645247886
35.920392,17.774973981386857,0.0876656344117035
35.924527999999995,17.85391419685697,0.0872785334073001
35.928664,17.933751629202096,0.0868936258439359
35.932792,18.010000194047176,0.086520894154709
35.93691999999999,18.08949403401696,0.086132370962173
35.941056,18.1651661390113,0.0857417555528918
35.945196,18.241502593405247,0.0853398429726452
35.949332,18.311779979473982,0.0849501472962506
35.953472,18.385524090467296,0.0845399094277296
35.957604,18.452422641160325,0.0841409138195351
35.961752,18.515278007078027,0.083744252868206
35.965888,18.57912989709515,0.0833292839552356
35.97004,18.644199761011556,0.0828900620649706
35.974176,18.70399704857781,0.0824612292595413
35.978311999999995,18.76143486021885,0.0820328710979514
35.982443999999994,18.81270287863473,0.0816163163325644
35.986576,18.86082492915031,0.0811978494951871
35.990716,18.908271212590748,0.0807781603550702
35.994856,18.95189576105573,0.080354749714236
35.998991999999994,18.996860425995468,0.0799222853644634
36.003131999999994,19.043386657209837,0.0794756471894271
36.007264,19.08777486229883,0.0790233315857139
36.011399999999995,19.126436173762414,0.0785719469525577
36.015532,19.16072212575088,0.0781265233308889
36.019672,19.187830342739247,0.0776939263159073
36.023812,19.21235763400252,0.0772641036976767
36.027947999999995,19.231390899115787,0.0768465240224223
36.032088,19.247843238503958,0.0764313379573997
36.03622,19.26193610196689,0.0760152065736689
36.040352,19.27322658990485,0.0756055520281032
36.044488,19.280030993467754,0.075202617495039
36.048624,19.277985370856005,0.074828107087068
36.05276,19.27090003936952,0.0744718228563166
36.056852,19.266838533207885,0.0741051642612064
36.060992,19.260085376421205,0.0737423912344018
36.065136,19.25276717745933,0.0733737054906411
36.069284,19.247243412247464,0.073002420016634
36.073424,19.24104387996046,0.0726282084603842
36.07757599999999,19.2326070143237,0.0722654323851537
36.08166799999999,19.21845467273706,0.0719164068462583
36.085808,19.20127850582558,0.0715775853205801
36.089944,19.181975730464277,0.0712472687619438
36.094028,19.162230055503223,0.0709254226597665
36.098072,19.145286756067144,0.0705974809265872
36.102164,19.132718816106195,0.0702659021340825
36.106292,19.12396119344516,0.0699255819413955
36.110428,19.11430635390911,0.069585696149559
36.11456,19.10285708062304,0.0692471085984055
36.118692,19.08737604023718,0.0689215226359135
36.122828,19.073357258901545,0.0686001530006777
36.126972,19.062030128190944,0.0682750864038686
36.131108,19.05451331478026,0.0679406602756816
36.135244,19.048569485319724,0.067608331941723
36.139324,19.03769667188439,0.0672899980383267
36.143452,19.02951550907409,0.0669687530961142
36.147596,19.02459103906404,0.0666507362274714
36.151732,19.020674510828936,0.0663299035058541
36.155812,19.01440992434413,0.0660220895765921
36.159952,19.00814533785932,0.0657138540684795
36.164092,19.007485502424466,0.0653957596611765
36.168184,19.008287926039817,0.0650826606223616
36.172272,19.016600259355076,0.0647567179241716
36.176408,19.02670702642035,0.0644292140264501
36.180536,19.03748956056077,0.0641060487610754
36.184668,19.04849354450106,0.0637792153462122
36.188796,19.05703874529172,0.0634681445522837
36.192828,19.06906208868249,0.0631564125809082
36.196916,19.08736595019834,0.0628398776970921
36.201044,19.107353520564285,0.0625240134938794
36.205172,19.13126213313008,0.0621994733892723
36.209304,19.157751671420964,0.0618759212594537
36.21344,19.1898459607618,0.0615453074606533
36.217584,19.227877175852377,0.0612012047647978
36.221716,19.27241035886791,0.0608492366541946
36.225856,19.317619308958587,0.0605025462531377
36.229996,19.35991515862436,0.0601631075888202
36.23414,19.405578425990303,0.0598277268649178
36.23828,19.45494128575623,0.0594885982879957
36.242428,19.50867950499729,0.0591499179326564
36.246568,19.561864099738663,0.0588237734727006
36.250704,19.617851070005013,0.0584951757292621
36.254844,19.669584823371704,0.0581836955603112
36.25898,19.723788777563563,0.0578763179507231
36.263116,19.78147087435553,0.0575709904506495
36.26726,19.84252038884768,0.0572701726133355
36.2714,19.90368062823977,0.0569681326579838
36.275532,19.968208285332025,0.056670385526446
36.279664,20.0312851010496,0.0563852900510415
36.283792,20.099745218017247,0.0560991698815378
36.287932,20.16237913413508,0.0558249950795987
36.29208,20.225688817328056,0.0555562364486477
36.296216,20.28306157477129,0.0553017993733466
36.300344,20.3362918402148,0.0550610527991083
36.304472,20.387395497208484,0.0548287866564364
36.308596,20.436704720452145,0.0545982056115096
36.312724,20.49161869474574,0.0543627046627807
36.316856,20.541935859764344,0.054132288933931
36.320992,20.59236374968288,0.0539010800473471
36.32513599999999,20.64178369782647,0.0536734266966581
36.329276,20.692543762444814,0.053438645254234
36.333416,20.73960423466318,0.0532078784855747
36.337556,20.785878214906464,0.0529759878269873
36.341696,20.83035776139973,0.0527456038548626
36.34584,20.86833533996804,0.0525218125468748
36.34998,20.90339981811144,0.0523040000270614
36.354108,20.93813212155504,0.0520925861816346
36.358244,20.96848906552352,0.0518812041541254
36.362376,20.99738375044177,0.0516648175255016
36.366508,21.021570901185097,0.0514542275489656
36.37064,21.05326796162832,0.051236785843671
36.374784,21.084289254996406,0.0510165484262663
36.37892,21.11631849013944,0.0507944441091128
36.383048,21.148237000382537,0.0505748723434601
36.387184,21.1774638600006,0.0503562588758497
36.39132,21.20927164534376,0.050139888447015
36.395452,21.232450854312138,0.0499349455823451
36.3996,21.256195105455724,0.0497361103339062
36.40374,21.2766940814746,0.0495477467793876
36.40786799999999,21.29439068196851,0.0493619949923419
36.411996,21.30402374826284,0.0491926794359566
36.41612799999999,21.31433258163232,0.0490272287423615
36.420256,21.32341202342698,0.0488677582840427
36.424392,21.330475581671745,0.0487124728594458
36.428528,21.33900139896673,0.0485628023393191
36.43266,21.3437168989618,0.0484174294992975
36.436796,21.347313732281982,0.0482759957162072
