Time,Force,Position
45.324108,2.3978745086336635,0.1517391727476044
45.328196,2.442383794188778,0.1507892984655406
45.332332,2.480811176067614,0.1498789059034943
45.336468,2.508116945395437,0.1492825637597346
45.3406,2.532929678547029,0.1485224335593217
45.344728,2.548525957797568,0.147930998368753
45.34886,2.558162475947295,0.1474299752810474
45.353,2.566436042271205,0.1467806389022107
45.357144,2.5648402229699863,0.1465477140933982
45.361284,2.5620035944184174,0.1462847061859578
45.373704,2.5402683231139367,0.1461296495092383
45.377844,2.533732102162385,0.1460297440200853
45.381984,2.53010898163574,0.1457813618963839
45.386124,2.529288236634064,0.1454082095343205
45.390256,2.5262301582826256,0.1451865397769077
45.394392,2.5296740478561395,0.1446893100239377
45.398528,2.525718752629689,0.1445011945074292
45.402656,2.51985829875328,0.1443989109466913
45.406792,2.5134328027016632,0.1442695688788849
45.410936,2.510596174150094,0.1440056602528061
45.415068,2.508324587773732,0.1437701899962851
45.419204,2.5117684773472457,0.1432777792270147
45.423336,2.509496890970884,0.143042010231576
45.427472,2.509916955219558,0.1427049029263974
45.431612,2.5089969029934807,0.1424810981429325
45.435752,2.513460152017473,0.1420665449167176
45.439888,2.52744919429126,0.1412323960683298
45.444024,2.5402088449902296,0.140487406775655
45.448152,2.5519605539142525,0.1397998568874014
45.45228,2.5662931885633755,0.1390236874814437
45.456416,2.581633764987447,0.1381813460865022
45.46056,2.5902509236866944,0.1376523474380581
45.4647,2.59494704018609,0.1373175310879083
45.468832,2.596730056260581,0.1371236951161009
45.477116,2.591213194759509,0.1370806549511494
45.481256,2.592320443758858,0.1368789424501134
45.485392,2.5951114016082952,0.1366327671144209
45.489536,2.5986888514328097,0.1363741614837576
45.493668,2.6046143595070226,0.1359617805741747
45.497796,2.6088561587311463,0.1355958907796971
45.501932,2.6104063073302344,0.1353259640225887
45.506064,2.620585032304103,0.1347070672273189
45.510188,2.631993148852789,0.13400915045245
45.514332,2.642946948126202,0.1332529196485325
45.518468,2.6485174461495435,0.1326830781386901
45.5226,2.6483724682230103,0.1323410877125545
45.52674,2.6504648236462405,0.1318730883737643
45.530876,2.652889353769275,0.1313512576599785
45.535008,2.65643255056719,0.1307697446138382
45.539152,2.664683281540036,0.1300343696836464
45.543288,2.6768550547127323,0.1291283517540464
45.54742,2.691042711435322,0.1281242387247877
45.55156,2.7072462517078058,0.1270331834224353
45.555684,2.723449791980289,0.1259210844450184
45.559812,2.7454795331025825,0.124591234163424
45.563956,2.7616830733750666,0.1234990736546741
45.762504,2.612345453479453,0.1232348991909203
45.766628,2.6135634273787374,0.1230324966817466
45.770756,2.6175837768029915,0.1227329799576111
45.774888,2.6265331102020437,0.1222311436598382
45.779028,2.63447450182615,0.1217718796922416
45.78316,2.63972424282522,0.1213919556234636
45.787296,2.646092650499172,0.1209461840822911
45.791436,2.652682507972993,0.1204629003307974
45.79558,2.6588294658470755,0.1200558552228261
45.799724,2.6621740481961877,0.1197486308543008
45.803872,2.664510688770353,0.1194863076868742
45.808012,2.6667366044445826,0.1192450764000832
45.812144,2.6631363192690025,0.1192190277249138
45.81628,2.661551917643316,0.1191078402726093
45.820416,2.665007224892362,0.118786262138264
45.824552,2.668462532141409,0.1184590515703203
45.828688,2.6771789980650595,0.1178847236354258
45.832828,2.6824173213885967,0.1173889815141189
45.83696,2.690790194936909,0.1167576342326748
45.8411,2.6999495604602988,0.1161265715413649
45.845188,2.7088874761838184,0.115533399555132
45.849316,2.7140150746074214,0.1150779026365493
45.853448,2.718356181055947,0.1146253278298305
45.85758,2.7174361288298696,0.1144066182116342
45.861728,2.720326393903709,0.1140666051800406
45.865868,2.721200775427655,0.1138018578367116
45.869996,2.723083098726548,0.1134981664257283
45.87412,2.728665014425422,0.1130964218117513
45.878248,2.738167972324149,0.1125665619250271
45.882376,2.7476709302228763,0.1120382996946152
45.886516,2.759976263646573,0.1114416618229899
45.89066,2.77228159707027,0.1108524668059696
45.894752,2.792994057068879,0.1100263090085301
45.898888,2.8096747499677006,0.109352153811355
45.903024,2.826355442866522,0.1086983827143481
45.907164,2.8487516117152194,0.107891292671095
45.91132,2.8679025054392064,0.1072403128039043
45.91546,2.8876184413384007,0.1066091882506661
45.919604,2.9033026101378083,0.1061254146015368
45.92374,2.9178681122623344,0.1056946533283685
45.927876,2.934338773036819,0.1052175625405216
45.932012,2.952603867561326,0.1047124764678657
45.93614,2.974457829585883,0.1041459394606975
45.940224,3.001572950285041,0.1033751196840974
45.944348,3.025774970559296,0.1027025712960523
45.948492,3.054905974808348,0.1018800350120312
45.952624,3.083361211982257,0.1010542746228453
45.95676,3.110243465206014,0.1002638008843904
45.960892,3.1299479834296755,0.0996054905309656
45.965024,3.146739401228432,0.0990167517619446
45.96916,3.1578153430773126,0.0985694064283634
45.973304,3.166986126276235,0.098169275913892
45.97744,3.1725680419751097,0.0978370739656954
45.98158,3.182181724773772,0.097385302830793
45.985712,3.190676740897551,0.0969856642520333
45.989848,3.194464222846402,0.0966925867600622
45.993976,3.1983624296951887,0.0963850733112047
45.99812,3.2027035361437144,0.0960162161954071
46.002264,3.2045744417670745,0.0956546618545111
46.006404,3.2049830883402155,0.0952750250127809
46.080848,2.903214455061601,0.095053155709162
46.084984,2.897132551385322,0.0949012991636278
46.08902,2.8938530232340134,0.0946937074379317
46.09316,2.8983048545824746,0.0943036307017094
46.097256,2.9024245112311307,0.0939545043369131
46.101392,2.900939416829846,0.09371437623822
46.10552,2.9050590734785016,0.0933648302295907
46.109644,2.9151156558769027,0.0928614635592597
46.113768,2.926069455150316,0.0923484148110843
46.117896,2.9362367624486523,0.0918371810203296
46.122036,2.9521195456968634,0.0911970696381078
46.12618,2.9708047044700456,0.0905062643920053
46.130324,2.985458096143441,0.0899369984841522
46.134464,3.004597572191895,0.0893171257633287
46.138556,3.0248557149152315,0.088662650267971
46.142692,3.048481275338745,0.0879924745567085
46.146836,3.075019936187164,0.0872625967202458
46.15098,3.0997641632855597,0.0865413723647282
46.155128,3.126524273933847,0.0857752598297978
46.159264,3.155410993031964,0.0849416970804028
46.163396,3.178803685980075,0.0842201623759225
46.167536,3.19648090297831,0.0836220868778698
46.171668,3.2147231621517527,0.0830657526249763
46.1758,3.2292658289252127,0.0825730210377171
46.179932,3.2496346965484832,0.0819703023028891
46.184072,3.276505532096707,0.081263738738157
46.188208,3.2976608916950547,0.0806682225137447
46.192344,3.313665817518733,0.080210158811135
46.196476,3.329781468242348,0.0797442992207236
46.200604,3.343881235416069,0.0793227311785518
46.204744,3.3545028599896773,0.0789261913024784
46.208884,3.3625435588381856,0.0785459231802383
46.213024,3.3734973581115986,0.078114245304134
46.217156,3.379854348110017,0.0777448332784586
46.221288,3.385879163408632,0.0774188140054756
46.225416,3.3903309947570928,0.0770853492197296
46.22956,3.3920911754805174,0.0767778020449355
46.2337,3.3969859064287173,0.0763910697228144
46.237844,3.3973945530018588,0.0760438307809601
46.241992,3.3969059826999874,0.0757057132708395
46.24614,3.391599153323253,0.0754423223411105
46.250284,3.3855058319714413,0.075171465230656
46.254416,3.37514787604444,0.0749119971369975
46.258572,3.363671253442558,0.0746855375819887
46.2627,3.345692662915723,0.0745388170672299
46.266832,3.325022421763853,0.0744118694855027
46.270964,3.307376005936822,0.0742198808456659
46.2751,3.290848256784673,0.0739927962610949
46.279244,3.2724153489825656,0.0737922800217854
46.283376,3.256784816705428,0.0735550738235658
46.287512,3.241830051503434,0.0733357262283527
46.291648,3.2285589951515283,0.0731136701592218
46.29578,3.2108018544245627,0.0729254792172097
46.299916,3.192147496822585,0.0727427851032284
46.304048,3.171022938395443,0.072552564367864
46.308192,3.148103946218276,0.0723730874469781
46.312324,3.126868662891198,0.0721906072723824
46.316464,3.1072063635142757,0.0720187023898425
46.320596,3.088219831212493,0.0718657821789971
46.324724,3.0710277326607347,0.071696524863776
46.328856,3.0595511100588526,0.0714438661975816
46.332988,3.0508768629819403,0.071155580144424
46.337124,3.0437755998551816,0.0708787654939198
46.341268,3.0396981620532637,0.070538483893989
46.345416,3.037304433101434,0.0701951804066492
46.349564,3.0356971961246817,0.069858506487729
46.353708,3.0309554089231545,0.0695979352530742
46.35786,3.026324346621562,0.069321327945389
46.362004,3.023487718069993,0.0690315019281663
46.36614,3.0178487139934536,0.0687746375475873
46.370224,3.0132176516918614,0.0684961166767834
46.374364,3.006792155640245,0.0682301244038995
46.378496,3.001718193738913,0.0680065402064968
46.382636,2.9963120571377764,0.0678250464975436
46.38678,2.993486846261741,0.0676372900849576
46.390916,2.994250502885752,0.0674233413117863
46.395052,2.992998275959869,0.0672517447415215
46.39918,2.9900623401838984,0.0670790823483361
46.403324,2.9899287799328977,0.066872524202082
46.407452,2.984190468631957,0.0667315868111222
46.411592,2.9755390569061104,0.0666377955813214
46.415724,2.964982486530305,0.0665695609361904
46.419864,2.959133450329429,0.0664421494112504
46.423992,2.9559760647535884,0.0662985227846945
46.428124,2.954723837827706,0.0661298879178073
46.43226,2.9535823358017588,0.0659470850563763
46.4364,2.9554646591006515,0.0657054930431018
46.440544,2.959030691249633,0.0654684229313551
46.444684,2.9581106390235554,0.0652550125548426
46.448832,2.9603251370222528,0.0649691230598554
46.45298,2.9636583016958324,0.0646517915016611
46.45712,2.9679994081443577,0.0643154077674854
46.461264,2.9747992977425164,0.063885262035425
46.46542,2.9849551873653195,0.0633555418378851
46.46956,2.995332526787993,0.0628036983105474
46.473696,3.002796765785761,0.0622958052083503
46.477836,3.0124983381332915,0.0617245544462672
46.481964,3.022089185580888,0.0611692744285362
46.486108,3.02988559927846,0.0606231493592899
46.490244,3.04127088047608,0.0600539303958436
46.49438,3.057363695848628,0.059439859426826
46.498512,3.0733457863212417,0.0588368801697597
46.502652,3.0839445755437844,0.0582643557146767
46.506784,3.085017571516535,0.0577960794726946
46.510924,3.084517583539131,0.0573074633789876
46.515056,3.084804087536805,0.0568314503722409
46.519188,3.0843040995594007,0.0563469482586433
46.523336,3.0818989529320384,0.055882467403834
46.527464,3.0868929911046408,0.055367699855573
46.531596,3.0877445372775205,0.054931609624338
46.535736,3.088374633650531,0.054526409748453
46.539872,3.088894005123607,0.0541354678800552
46.544008,3.08717604324692,0.0538044740032905
