Time,Force,Position
40.34511199999999,1.5367072470612184,0.1824515808942043
40.34924,1.5922845086450743,0.1804258147382696
40.353368,1.6429099509030665,0.1787302554599993
40.357496,1.6888050236350634,0.1772906339737231
40.361632,1.7326613774661015,0.1757579187093438
40.365768,1.7670798275962163,0.1747661680781568
40.369908,1.7964357335005317,0.1739351719793908
40.37404,1.8238636454038228,0.1729184716147221
40.378188,1.844656029131161,0.1720676323917827
40.38234,1.864306910832552,0.1710388096158732
40.386492,1.8806896820581676,0.1699802085566743
40.390628,1.893926485383475,0.1691173499948914
40.39477599999999,1.9065982465335756,0.1682440823568335
40.398904,1.912657314858788,0.1679037835464827
40.403032,1.9186056582840667,0.1675909231676554
40.407168,1.9323960861090488,0.166630085599204
40.4113,1.9452892970590183,0.1657728210420317
40.415436,1.95045114850922,0.1655049365819073
40.41958,1.9652495181091485,0.1645226246088493
40.423716,1.973324469984255,0.164047806337852
40.427848,1.982075188934504,0.163579015433627
40.431984,1.9906044580848825,0.1631698337683866
40.43612,1.998125785460314,0.1628346536377954
40.4444,2.0053263558114747,0.162743242230513
40.448536,2.0106103498371435,0.162615208029303
40.452668,2.020036835862534,0.1621556409386457
40.456796,2.026771671262889,0.161854001060693
40.46092,2.040229924388066,0.1610975365048231
40.465048,2.050664352188404,0.1605887404647579
40.469188,2.0610987799887406,0.1600671760777822
40.473332,2.071643932689013,0.1595371542004565
40.477476,2.0852129107141253,0.1588202942513533
40.481624,2.0996791056142494,0.1580504576640185
40.651236,2.043712580952924,0.1578884292880009
40.655372,2.046847131177699,0.1576598748061558
40.659512,2.0498709565025397,0.1574619766948239
40.663648,2.054578490677468,0.1572006938856761
40.667772,2.0584995328773203,0.156963598938273
40.671896,2.06476863332687,0.1565252883249529
40.67603999999999,2.072942892426379,0.1559714193350402
40.68018,2.092769553225508,0.1547104968904971
40.684324,2.1151771397497376,0.1533565896700113
40.688472,2.133442234274246,0.1522980327953153
40.692612,2.148007736398772,0.151422119892527
40.69675599999999,2.164589122073192,0.1503764527420887
40.70089599999999,2.179941116172795,0.1494592634450648
40.705052,2.201783660521817,0.1480548101481551
40.709188,2.2211560040456746,0.1467475881623365
40.71332,2.237836696944496,0.1455607423385045
40.717456,2.2575412151681573,0.1441892046901662
40.721584,2.277135008491884,0.1428923624772101
40.725724,2.298744685365504,0.1414975917440864
40.729868,2.311836510764278,0.1405439390313466
40.734,2.323244627312963,0.1396357414102998
40.738144,2.331063876361601,0.1389077418594027
40.74228,2.3373101414600854,0.1382189485861075
40.746416,2.341651247908611,0.1376195783312179
40.750556,2.34498441258219,0.1370837939044754
40.754692,2.3480961274559,0.1366003740974121
40.758828,2.354120942754514,0.1359757849199314
40.762956,2.3554382238781995,0.1355842709219169
40.948512,2.1584418986717715,0.1354321578571695
40.95265199999999,2.1562810371953445,0.1351248265968838
40.956804,2.1626380271937635,0.1344221607073345
40.9609,2.167987075417236,0.1337954464153119
40.965044,2.1716524147906195,0.1332062776364656
40.96914,2.180025288338932,0.1324127726722413
40.97324,2.184477119687392,0.1318242479756542
40.977336,2.188596776336048,0.1313085304461964
40.981472,2.19843190893458,0.1305345759342893
40.985624,2.216784893007957,0.1293653019761531
40.98972,2.2352486019812696,0.1281954409091073
40.993852,2.256846861179357,0.1268542098880798
40.997984,2.275642744852474,0.1256054023672356
41.00212,2.2914148032007504,0.124541862335389
41.006248,2.307862628624169,0.1234842486188455
41.01038,2.3228596126729024,0.1226046264971874
41.014528,2.3388645384965816,0.1216700657594177
41.018664,2.3564424482704145,0.1207224064515855
41.022796,2.375593341994402,0.1197665562915663
41.026936,2.392728352168496,0.1189054690962793
41.031072,2.413784404542441,0.1178627207383287
41.035216,2.4289035311666423,0.1171203939594735
41.039352,2.4393151236159136,0.1165845496533657
41.04348,2.4431140232402973,0.116293963696769
41.047616,2.4505017903647293,0.1158945607050341
41.051744,2.4563165735390067,0.1155196011237891
41.055872,2.4611234149383376,0.1151853357102087
41.076572,2.443687031235644,0.1150443427315327
41.080716,2.441991904710022,0.1149393106144728
41.08486,2.440407503084335,0.1148144490126004
41.089012,2.4399417681335303,0.1146256186283231
41.093148,2.435665715882808,0.114575494959854
41.09728,2.434192039157056,0.1144321812695203
41.10141599999999,2.430923928681281,0.1143368262273742
41.105552,2.4284423101805825,0.1142372822718225
41.109688,2.431343992929955,0.1139996134001538
41.11382,2.435032167654404,0.113764992924805
41.11796399999999,2.442641384578706,0.1133865157005406
41.122108,2.4500291517031374,0.113045494495092
41.12624,2.4640296116524563,0.1124824330210785
41.130376,2.4778086218019046,0.1119695545158098
41.134504,2.490136790576668,0.1115758220765293
41.138636,2.504480842901323,0.1110953212192281
41.142728,2.5253268631509327,0.1104285332380076
41.146812,2.5460621585006065,0.1097902623122323
41.15096,2.5722914800002865,0.1089996413422299
41.1551,2.5974021348250846,0.1082822789033233
41.159228,2.6278960908999536,0.1074452753151761
41.16335599999999,2.6578364224751483,0.1067497203306699
41.167484,2.687998203850213,0.1060231802863617
41.17161599999999,2.7172627683502664,0.1053252851706902
41.175752,2.747756724425135,0.1045381680761899
41.179896,2.7744403632000867,0.1038791193205054
41.18404,2.8051557690748257,0.103089691758648
41.188176,2.832171582549582,0.102392249768859
41.192324,2.8548120365492147,0.1017847112951595
41.196472,2.8709505226238945,0.1013376081457216
41.200624,2.886191791823563,0.1009203721510613
41.204764,2.9006465690481544,0.1005006684113421
41.208904,2.91240969564771,0.1001383196646065
41.213036,2.919010970797064,0.0998451213208152
41.217172,2.9241499868962,0.0995334529150958
41.2213,2.929289002995336,0.0992226707795234
41.22544,2.929720484919542,0.0990377670152027
41.229584,2.9303734166436186,0.0988208646002387
41.274776,2.800480098180454,0.0986929569170226
41.278816,2.792382310954282,0.0986069267384349
41.28291599999999,2.7831658570532283,0.0985683898272217
41.287012,2.774846620027186,0.0985142949221487
41.291104,2.7673138749762214,0.098460491801601
41.2952,2.765164431175328,0.0983099489607076
41.299244,2.765706637999469,0.0981107472821718
41.30332799999999,2.7643436861736523,0.0979593892332174
41.307412,2.7628700094479,0.0978240341592363
41.311504,2.7622935495971603,0.0976736625785214
41.315592,2.7605984230715386,0.0975723327336417
41.319728,2.760697730295941,0.0974398287960736
41.323856,2.7606863126204075,0.0973230844702829
41.327988,2.7673983126696964,0.0970258365085171
41.33212,2.771086487394146,0.0968264942176939
41.336204,2.779027879018252,0.0964631112505776
41.340288,2.7850641119924,0.0961527057804285
41.344372,2.7926733289167003,0.0958482030444268
41.348508,2.810029788890664,0.0952752039583602
41.352592,2.822457264889829,0.0948491317344221
41.356724,2.830398656513935,0.0945012638745856
41.360864,2.8401344818880645,0.0941284322531486
41.365004,2.8477436988123657,0.0938288953342012
41.369136,2.857479524186495,0.0934560637127643
41.373272,2.8673260744605598,0.0930677724588926
41.377404,2.877283349634559,0.0926724017579203
41.38154,2.8872406248085576,0.0922817837909446
41.38568,2.9019054341574857,0.091794896465341
41.389824,2.919594068831254,0.0912235722523011
41.393968,2.932464444430158,0.0907656217756794
41.398112,2.946010587104205,0.0903275080800327
41.40226,2.958205195627967,0.0898569831154166
41.406396,2.971407745926677,0.0893564539626402
41.410548,2.982594412675492,0.0889187649345347
41.414692,2.995796962974201,0.0884200134731083
41.41882,3.009675280348053,0.087954858852552
41.422956,3.024450814596916,0.087481147125303
41.427092,3.037653364895624,0.0870071322428338
41.43122399999999,3.045926931219535,0.0866620582225449
41.435368,3.054421947343315,0.0862817329570563
41.439504,3.061798296792213,0.0859364548468767
41.443644,3.0686096040659048,0.0855641367629316
41.44778,3.077879694489229,0.0850750463172863
41.451916,3.0851339013626604,0.0846447993885829
41.456052,3.0914908913610795,0.0842253697355977
41.46019999999999,3.0939268391596464,0.0838963260767846
41.46434,3.0974814536330952,0.0835309936281912
41.468476,3.100028126331597,0.0831973589668908
41.472612,3.0978672648551706,0.0829439968647562
41.476744,3.098730228703584,0.0826131861777471
41.480872,3.0982416584017125,0.0822449465342709
41.485016,3.0991046222501257,0.0819150957026822
41.489156,3.0973866603734392,0.0815987828534598
41.493292,3.096898090071568,0.0812295177831025
41.497424,3.0985361282195254,0.0808000441441683
41.501564,3.0945694153175416,0.0804576097959859
41.505712,3.088021776690458,0.0801281590420426
41.509852,3.081363413163439,0.0798125875116309
41.514008,3.0759344412112366,0.0794448616921807
41.518144,3.074315786558951,0.0790119763905988
41.522276,3.0786340576564117,0.0784543642120784
41.526408,3.077912619879138,0.0780094152416852
41.530536,3.078874890951953,0.0775646836543115
41.53467199999999,3.079050670049692,0.0771134932920986
41.538816,3.0821395495723345,0.0766109926386264
41.542952,3.088473704219688,0.0760121075794453
41.547088,3.0909975415671243,0.0754758739540679
41.551224,3.0918376700644723,0.0749453446169643
41.55535999999999,3.0985039994116303,0.0743135934566628
41.559496,3.106178270533735,0.0736649819653745
41.56364,3.1146390336309167,0.0730237938630974
41.56778,3.125337130077861,0.0723239958872256
41.571912,3.1402998610999955,0.0716158554165547
41.576044,3.1533574334721712,0.0709395357983805
41.580176,3.1631697307196367,0.0703558060423932
41.58432,3.175784403492073,0.0697333552554071
41.588464,3.1898613353147285,0.0691356260595775
41.592556,3.2031517751623064,0.0685311880740411
41.5967,3.21352911458498,0.0679751239599307
41.600844,3.2230092371326404,0.0674343362038563
41.604984,3.2314814179053544,0.0669250091984814
41.609124,3.2447718577529323,0.0663422846572042
41.613224,3.254473430100464,0.0657849662039757
41.617368,3.265072219323007,0.0652228692685023
41.62152,3.2737658498955917,0.0646911050109706
41.625656,3.27954638004327,0.0642024587062097
41.629792,3.287232068840908,0.0636889996984541
41.63392399999999,3.2921153821135745,0.0632003564627869
41.63806,3.289267335886473,0.0628152641311395
41.642204,3.2833954643345318,0.0624834782140084
41.64634,3.276515651007643,0.062168450337816
41.650476,3.2619044781809863,0.0619545356190432
41.654604,3.2450445543290325,0.0616974741552975
41.658736,3.228971122452155,0.0614474115734182
