Time,Force,Position
46.221992,2.940784227187293,0.1738870307194721
46.226068,3.1180646164945265,0.1714050511345657
46.230156,3.286449308924978,0.1695449752086374
46.234248,3.441452220103589,0.1684411812864285
46.238384,3.5835162496300987,0.1676762683027063
46.242464,3.720151307204406,0.1667030772270901
46.246548,3.8467605835515166,0.1658169902416741
46.250584,3.959755211171384,0.1651413712674113
46.254672,4.062724057564056,0.1645342258719738
46.258764,4.156785789404411,0.1639115144424682
46.26290399999999,4.242616173767594,0.1632405227399011
46.267,4.3169585178533625,0.1625672589366897
46.271028,4.379148472262107,0.1620070416660907
46.27512,4.435909454718646,0.1613091673597332
46.279208,4.485114856773157,0.1605626554633641
46.283348,4.522744329001383,0.1599856298276155
46.28748399999999,4.555189114428342,0.1593933187930998
46.29162,4.584365789379526,0.1587829312834439
46.295704,4.611625888005218,0.1581682167752159
46.29978799999999,4.631032484555674,0.1577292799442875
46.30387999999999,4.652897864255762,0.1571857937818482
46.307964,4.674419651580513,0.1566019930829025
46.312096,4.693016920804826,0.156038730911715
46.316228,4.712954306503891,0.155414598267536
46.320312,4.735129025552719,0.1547088076733867
46.324348,4.755730760651391,0.1540321907764045
46.32844,4.774427337100106,0.1534083413754117
46.33246799999999,4.79480762239891,0.1527554411624105
46.33655999999999,4.811488315297732,0.1521969661990637
46.340716,4.827271791321541,0.1516691139822374
46.344812000000005,4.841260833595327,0.1511847205095657
46.348908,4.857044309619136,0.1506620616944976
46.353004,4.872152018567804,0.1501395644034716
46.357036,4.881654976466531,0.1497582181309892
46.361128,4.88734761706534,0.1494757488027398
46.365268,4.89348315726389,0.1491499105841029
46.369404,4.899397247662569,0.1488493134121302
46.37353999999999,4.906540729636066,0.1484988498127014
46.377624,4.913905661409432,0.148131273697769
46.381704,4.927096794032608,0.1476115126284338
46.38578799999999,4.938161318205955,0.1471662245836675
46.38987999999999,4.953822651654297,0.1466260880445348
46.394008,4.969938302377911,0.1461092043584957
46.39814799999999,4.979109085576833,0.1457762423860545
46.402284,4.988058418975887,0.1454688137504167
46.406316,4.993873202150163,0.1452553507411765
46.41039599999999,5.005292736374382,0.1449192844525044
46.414532,5.01951464612357,0.1445268292111146
46.41866399999999,5.036882523773067,0.1441057115734993
46.422792,5.050218634322777,0.1437942116057797
46.426936,5.066246395497521,0.1434354803271302
46.431016,5.080258273122374,0.1431309493081345
46.43509999999999,5.097637568447402,0.1427844139795922
46.439184,5.120400165022503,0.1423406210429382
46.443328,5.147427396172793,0.1418341773771924
46.447464,5.176814103248313,0.1413140583891068
46.4516,5.2032877098989285,0.140863601504204
46.45568399999999,5.226737491224704,0.1404912919736483
46.459772,5.249179330775531,0.1401507214847567
46.546244,5.35221323136601,0.139936210243195
46.550388,5.346463502389535,0.139873014702384
46.554524,5.3385757472877,0.1398077920535534
46.558616,5.3314630664854095,0.1396755070740217
46.562704,5.319077809332983,0.1396241207960578
46.56679199999999,5.311056493980146,0.1394451910019681
46.57093999999999,5.305272511977074,0.1391970730821587
46.575088,5.298247720723652,0.1389304712984307
46.579228,5.297159855219976,0.1385218815860809
46.58337999999999,5.295064047941352,0.1381392771999797
46.587468,5.289379373162682,0.1378179242841139
46.59155199999999,5.283916148183881,0.1374756317223308
46.595704,5.2842791240548905,0.1370086981194105
46.59983199999999,5.285760766600779,0.1365053482988905
46.603964000000005,5.2870209593468,0.1360199400159652
46.60809999999999,5.288059702292951,0.1355525578992516
46.612172,5.28686111188934,0.1351528696649157
46.616204,5.285108896986053,0.134800519192677
46.620288,5.279214190083045,0.1345577694815417
46.624376,5.277694842655162,0.1342499207381348
46.628512,5.278080653877237,0.1339029681665426
46.632644,5.279142232174454,0.1335614801113382
46.63678,5.284579169946795,0.1331579214867393
46.64080799999999,5.288565266344451,0.1328177263726498
46.644892,5.299729097742201,0.1323635484191399
46.648976000000005,5.314038897040258,0.13189582914384
46.653108,5.327795071838642,0.1314779605633016
46.65724,5.344807939437268,0.1310310650157504
46.66132399999999,5.358907706610989,0.1306470463383471
46.66545599999999,5.373904690659723,0.13025156981211
46.66954,5.389577441783596,0.1298584455778107
46.673672,5.410522769257608,0.1293946095222879
46.67781599999999,5.421499403882088,0.1291543974993713
46.681952,5.435622006406874,0.1288984750704447
46.686044,5.453898518606914,0.1286053074451711
46.690136,5.475320998707263,0.1282964970733093
46.69422399999999,5.50212678005768,0.127910426107396
46.698312,5.5331971959832895,0.1274794005144851
46.702448,5.564832654084106,0.1270619369118977
46.70658399999999,5.598151821035012,0.1266353359511129
46.710668,5.631814580361255,0.1262440222735472
46.71476,5.667836815612729,0.1258486813226963
46.718844,5.698708617089535,0.1255692240074792
46.722932,5.732161344291439,0.1252638630070104
46.727024,5.764163230118659,0.1250216373509762
46.731148000000005,5.792465523545897,0.1248399242269308
46.73518,5.821554308948213,0.1246559754245928
46.739268,5.85412123695064,0.1244379902486287
46.74335599999999,5.891628566603397,0.1241861977707917
46.74744799999999,5.928250097056676,0.1240013766691727
46.75158,5.969922754060222,0.1237741981783871
46.755708,6.007895818663786,0.1236052062909485
46.759796,6.052027258816965,0.1233085595675415
46.763884,6.091894064394953,0.1230529365739923
46.767976,6.126709743422675,0.1228429283999723
46.772064,6.155466354125186,0.1226939218296108
46.7762,6.179404705752832,0.122627732008916
46.780288,6.198070481030341,0.1226217336676964
46.788504,6.231347429134509,0.1225811490295657
46.796672,6.256980907287776,0.1225585794758027
46.800808,6.271359212639031,0.1224877130993409
46.80494399999999,6.282148650490239,0.1224613910787898
46.809076000000005,6.292705220866044,0.1223993637424337
46.81316,6.30438045791673,0.1223108575012146
46.81728799999999,6.3166093194670925,0.1221843847985264
46.82142399999999,6.324573546442265,0.122097079605944
46.825564,6.32602438781695,0.122047602777523
46.8297,6.329701144865868,0.1218949214567972
46.833828,6.327651008289376,0.1217768057442103
46.83795599999999,6.325146554437612,0.1216379868082218
46.842084,6.319839725060877,0.1215378654235646
46.846212,6.320248371634018,0.1213541743753118
46.850352,6.323237943932259,0.1211475463689506
46.854488,6.334966817505216,0.1208052763730633
46.858576,6.349265199127741,0.1203896646458811
46.86272,6.366808855874975,0.1199055999085226
46.866816,6.386146946372234,0.1194066540736654
46.87096,6.405485036869493,0.118904353255885
46.87510399999999,6.421234259866704,0.1184448451766958
46.879248,6.4391100913137445,0.117941146192491
46.88334,6.457207372560653,0.1174280009596491
46.887376,6.4757475534073015,0.1168832076323821
46.89141599999999,6.490588141853968,0.1163863786510867
46.895556,6.503855746350481,0.1158948132629909
46.899644,6.5152181921970325,0.1154327651573289
46.903796,6.525794146068509,0.11497255951879
46.907892,6.5398482425400974,0.1144812101497343
46.911984,6.548641180337084,0.1140902439583843
46.91602,6.559228551884094,0.1136796482863279
46.92016,6.571388907381258,0.1132659932085736
46.924308,6.582319871303604,0.112883838348385
46.928448,6.588321851251154,0.1125807777221458
46.93254,6.591410730773797,0.1123201176647405
46.936632,6.5912543351717305,0.1121271097527231
46.940676,6.589868547994848,0.1119657152296847
46.944768,6.5872533692431485,0.1118356222043429
46.948916,6.578025497666563,0.1117903671826874
46.95300399999999,6.572275768690089,0.1117164887309643
46.957156,6.569106965438716,0.1116230818574574
46.961184,6.570313521662467,0.1114935197608251
46.965228,6.570069236511531,0.1114094846225045
46.969324,6.571287210410815,0.1113299345134116
46.973472,6.575761877110341,0.1112376516744096
46.97761199999999,6.5823745699352285,0.1111559601336342
46.981692,6.59056024671027,0.1110721825138959
46.985732,6.599200240760583,0.1110084582613555
46.989828,6.607397335211157,0.1109738411440738
46.993972,6.6219856726867485,0.1108727508804055
46.998116,6.638146994112494,0.1107701000645249
47.002248,6.657675733238418,0.1106504767495274
47.006384,6.679109631014299,0.1105069363178993
47.010468,6.703345904315151,0.1103316280083915
47.01460399999999,6.73183539451566,0.1100812540968158
47.01874,6.758751900766015,0.1098352479351862
47.02287199999999,6.786676348791316,0.1095756309193559
47.027012,6.817070997641783,0.109307704753455
47.0311,6.85307039754219,0.1089752568727079
47.035236,6.887496813492445,0.1086475899377345
47.039372,6.919342303717598,0.1083391460952489
47.0435,6.945915217592614,0.1080755294261759
47.047636,6.971923089292424,0.1077999888492649
47.051716,6.997144469017159,0.1075263544343604
47.055804,7.018998431041713,0.1072703212979413
47.059888,7.038603642040973,0.1070107695514176
47.06397199999999,7.053722768665174,0.1067898726115126
47.06810399999999,7.072308620213953,0.1064995738439164
47.072244,7.092566762937289,0.1061562022169348
47.076328,7.106987287135283,0.1058405084927458
47.080412,7.121850710933016,0.1055007501209884
47.084544,7.1290820824553816,0.1052019667569004
47.088684,7.134740470027594,0.1049047658077439
47.09282399999999,7.13815010657451,0.1046035835025639
47.09696,7.141449018221491,0.1043112840051507
47.101096,7.141834829443566,0.1040530511494992
47.10522399999999,7.142109915765706,0.1038022771411253
47.10936,7.138452542212462,0.1035543501677298
47.11350399999999,7.133222184709062,0.1033078560195105
47.117644,7.128102552105599,0.1030546972001838
47.121792,7.123880136377147,0.1027942492304886
47.125928,7.116744620223789,0.1025668540216598
47.13002399999999,7.109830553870301,0.1023259796213038
47.13412,7.102129995541738,0.1020851272057549
47.13826399999999,7.09846120431296,0.1017897936636221
47.14241199999999,7.096697571734142,0.1014741187814125
47.146556,7.09896570625511,0.1011037140336391
47.150648,7.094621147951191,0.1008011267527738
47.154736,7.085347605672473,0.1005587163265152
47.158828,7.078544264218921,0.100308282897962
47.162876,7.070732980990422,0.1000717066619782
47.16702,7.065502623487022,0.0998203295122646
47.171168,7.0613909326585045,0.0995486833746081
47.175308,7.056160575155108,0.0992961060226651
47.179396,7.047230625251727,0.0990765823789321
47.183432,7.045134817973104,0.0987780382379176
47.187472,7.039450143194434,0.0985050958488244
47.191616,7.037354335915811,0.098206103095962
47.195768,7.035369253537122,0.0979006964262965
47.1999,7.0345028378333145,0.0975763986448327
47.20398399999999,7.031841988379484,0.0972641261091906
47.208068,7.032315689150429,0.0969044400253919
47.21215599999999,7.0323464903216335,0.0965714778659181
47.216292,7.034282450142796,0.096219584397261
47.220376,7.035099743289078,0.0958889667685694
47.22445999999999,7.035130544460284,0.0955587366315474
47.22855199999999,7.035050620731553,0.0952362100198561
47.232636,7.042369881802788,0.0948534341859909
47.236664000000005,7.054507401948886,0.0944216329199253
47.240756000000005,7.066534197195049,0.0939968587161735
47.244908,7.07463995024136,0.0936144516826027
47.249004,7.085658803712576,0.0932029405087599
47.25314399999999,7.096566932283858,0.0927990468742054
47.257228,7.113190536805015,0.0923440552811538
47.26125999999999,7.132616516851142,0.0918660350693216
47.265344,7.1443111373975,0.0914662919453543
47.269492,7.161721233893735,0.0910147434936351
47.273584,7.176107505065128,0.0906007461785779
47.277716,7.188367167786694,0.0902166455586726
47.281752,7.198389497158498,0.0898699870160012
47.28583999999999,7.213008635805293,0.0894913163841359
47.289976,7.232789625902293,0.0890970894240521
47.294108,7.253013515599031,0.0886784921006722
47.298244,7.275142563945727,0.0882476519613314
47.302328,7.296374395417412,0.0878241061789276
47.30636,7.319289935739184,0.0873998516206005
47.310456,7.34141898408588,0.0869767930071996
47.314588,7.36063493200767,0.0865852596306136
47.31872799999999,7.377724271479632,0.0862238699994792
47.32285999999999,7.397837436276434,0.0858328027863085
47.326992,7.423101034847905,0.085382720687233
47.331076,7.446348749869482,0.0849569480295963
47.335212,7.470272231966201,0.0845404115339437
47.339356,7.487250846538228,0.0841930825656686
47.343492,7.504229461110256,0.0838479056578577
47.347624,7.528042218307041,0.0834424588610258
47.351704,7.549052599978855,0.0830594745582779
47.35584,7.573086806975509,0.0826475526027823
47.359976,7.602725765022105,0.082200741143663
47.36411199999999,7.638977415893587,0.0817121966011327
47.368252,7.674442574789993,0.0812280920941557
47.372388,7.704745882236198,0.0807611026761959
47.37652,7.735614231857609,0.0803097418870791
47.380656,7.766593306378955,0.0798592972522631
47.384788,7.797461656000366,0.0794160308392569
47.388916,7.8274327887467665,0.078980124924359
47.393056,7.860660614293408,0.0785506589833774
47.397196,7.89299122296504,0.0781266013747325
47.401344,7.929353598736457,0.0776702914938535
47.40548799999999,7.964818757632863,0.0772232846906441
47.409632,7.999730292029593,0.0768086389043837
47.413776,8.037665651751166,0.0763715624549257
47.417924,8.073806577722713,0.0759416439721759
47.422072,8.116105879243875,0.075455422143164
47.426204,8.159413122539984,0.0749651358837388
47.430336,8.201823148961083,0.0744849901941171
47.43446399999999,8.246027609132202,0.0740022223908619
47.438596,8.28821618575343,0.0735396491699233
47.44273199999999,8.325021461124589,0.0730978991093201
47.446876,8.35442755169578,0.0726937018948091
47.45101199999999,8.378118166317096,0.072322447943109
47.455144,8.405397648438461,0.0719427598378382
47.459276,8.4332307550595,0.0715393046441667
47.46341199999999,8.455348385730662,0.071169137025077
47.467544,8.478584683076708,0.0707874783028776
47.471692,8.499915821772793,0.0704171878668008
47.475788,8.516306558818549,0.0700432388747367
47.47988,8.534037412339057,0.069647700846799
47.48402,8.545266297934608,0.0692812080862939
47.48814399999999,8.553803532905125,0.0689231580776419
47.492228,8.558186858200386,0.0685614107892827
47.496352,8.556854707545776,0.0682293553274094
47.50044,8.559775773790822,0.0678586119471042
47.504576,8.559783739610959,0.0675063959454826
47.508664,8.556202837931053,0.0671630093187468
47.51275199999999,8.548811618951225,0.0668382202854421
47.51684,8.53603709872133,0.0665250095586816
47.52092,8.523594753191238,0.0661963589875784
47.525012,8.514065508086054,0.0658511470778315
47.529044,8.505765654555685,0.0654876924177446
47.53314,8.502505509900047,0.0650882131233301
47.537228,8.491846180444446,0.0647133055277345
47.541324,8.480178909213897,0.0643454787364068
47.54541999999999,8.47041679663331,0.0639674099156106
47.549516,8.45975746717771,0.0635914010769846
47.553544,8.448311645747033,0.0632108563904342
47.557628,8.441462633591348,0.0628170855690095
47.561764,8.432487012985836,0.0624417604104492
47.565848,8.42620304300536,0.0620604691926087
47.569884,8.422721448549852,0.0616700082649401
47.57391199999999,8.4257418220193,0.06125977282007
47.577996,8.432683237688599,0.0608282524934365
47.582084,8.435703611158043,0.0604192940032552
47.58621599999999,8.43782676775248,0.0600118257004354
47.5903,8.438941982571967,0.0596089803602042
47.594388,8.442859572916426,0.0591972260879094
47.59851999999999,8.454397797860718,0.0587562937104581
47.60265199999999,8.463920139255116,0.0583277990553799
47.606736,8.472545263774506,0.0579020411603153
47.610816,8.480948938494022,0.0574861392345817
47.614952,8.488012496738788,0.0570923807362365
47.619084,8.50168874780844,0.0566758101907433
47.62322399999999,8.51223044865332,0.0562816017823868
47.627312,8.524788033048091,0.0558764314859645
47.6314,8.535219008993035,0.055487795158414
47.63553999999999,8.547555143587935,0.0550922933194416
47.639676,8.550144035133176,0.0547394781307415
47.643812,8.550827768028459,0.054392188133542
