Time,Force,Position
49.45014799999999,9.604871289922675,0.1399970058153986
49.454232,9.728625616331898,0.1392189712825693
49.458324,9.824264846087155,0.1385178506182889
49.46241199999999,9.897172280438518,0.1378223206789845
49.46650399999999,9.949485945511348,0.1371342550784741
49.470588,9.985592618456296,0.1364473282212297
49.47468,10.009436176824286,0.1357733729902127
49.478772,10.02338751421608,0.1351365200359108
49.482864,10.036098042357525,0.1344926535001185
49.48696,10.051168046424198,0.1338423590242024
49.49105599999999,10.064676484216251,0.1332288098503623
49.495116,10.075382546483338,0.1326418446026789
49.499216,10.091582634900426,0.1320070933591018
49.503308,10.11236811491698,0.1312989077504678
49.50740799999999,10.13000762703322,0.1306027415884678
49.51149999999999,10.13856424549941,0.1299924488823373
49.5156,10.14902602261556,0.1293638292370262
49.519692,10.161171508581798,0.1287274642300065
49.52379199999999,10.17230905277309,0.1281019095608289
49.527888,10.18300369736464,0.127497915836746
49.531984,10.1944962516068,0.1269241729330563
49.536076,10.206221673324364,0.1263724467114868
49.54017199999999,10.219852253691885,0.1258019107912746
49.544272,10.235166542909498,0.1252224894813035
49.548364,10.248354223677278,0.1246717241171353
49.55246399999999,10.259636745795104,0.1241419048549144
49.55655599999999,10.27249225186308,0.1236114435811049
49.560652,10.28255680008162,0.1231412346587725
49.56475199999999,10.293186390475368,0.1226803432066702
49.568848,10.29978421376933,0.122265135882267
49.572944,10.308852237888456,0.1218391286754311
49.577036,10.321066229907892,0.1214049384007309
49.581132,10.325548862427556,0.1210482465596457
49.585232,10.329023553172275,0.1207051190757968
49.589328,10.335522069241836,0.120329319039817
49.59342399999999,10.342917802186404,0.1199473433648471
49.59751599999999,10.35132147690592,0.1195564567723503
49.601612,10.355471934725784,0.1192188461199448
49.605712,10.365349286171051,0.118862188296432
49.609804,10.37557022999166,0.1185238353923624
49.6139,10.39060943288713,0.1181433773684055
49.617996,10.410245445057594,0.1177301416997977
49.622092,10.430446499403269,0.1173264984160292
49.62618799999999,10.453117754574103,0.1169167968817433
49.630328,10.480496543919871,0.1164701625680705
49.634424,10.506978116390629,0.1160301675950189
49.638512,10.528862879586386,0.1156253927441436
49.642608,10.549285383731927,0.1152190747267232
49.64670399999999,10.571502321627491,0.1148042181473562
49.65079599999999,10.60044267724788,0.1143334759050902
49.654892,10.63251758309304,0.1138312238897841
49.659028,10.665821880513018,0.1133117643662788
49.66316799999999,10.707422579607972,0.1127353927148115
49.667256,10.747904612028046,0.1121774153299011
49.671348,10.78536281912328,0.1116518057386353
49.675492,10.82102659246849,0.1111374006359465
49.679584,10.853555815588924,0.1106594677854239
49.683672,10.89022753070908,0.1101380786046608
49.68782,10.923753277928933,0.1096240070484175
49.691916,10.956824707873508,0.1090991438631549
49.696012,10.98171046104304,0.10862748248327
49.700164,11.001212912962504,0.1081886698821292
49.70426,11.018920931131944,0.1077607556706539
49.708352,11.03146709785118,0.1073552414472296
49.712448,11.043337497495278,0.106949002196443
49.71654,11.056105114014386,0.106538156342099
49.72068,11.068983455433427,0.1061220154992778
49.724772,11.082083246652344,0.1056972850955229
49.728860000000005,11.090918403296069,0.105289491627726
49.732948,11.092243650239892,0.1049340113534003
49.73704,11.086845479458894,0.10462937622372
49.741128,11.08066081670282,0.1043254672362182
49.74522,11.065503985196626,0.1040684450336655
49.749316,11.046082519115243,0.1038254450715172
49.753412,11.028787661483689,0.1035597715731414
49.757508,11.011603528752069,0.1032888299161101
49.761604,10.99486229562019,0.1029999118603436
49.7657,10.977002395813424,0.1027239635802909
49.76985199999999,10.956340120481697,0.1024650128934394
49.773988,10.932875469624994,0.1022230667122266
49.778084,10.910086585843434,0.1019841175236341
49.78222,10.88830564383682,0.101735385280652
49.786292,10.86786481830496,0.1014640786184312
49.790428,10.850115643398132,0.1011783547038198
49.794512000000005,10.827658934316377,0.1009228548721184
49.798644,10.802510574609585,0.1006797905447244
49.80277999999999,10.778370156677738,0.1004269851951828
49.80685999999999,10.753000347171074,0.1001906476017584
49.81099199999999,10.728417029639491,0.0999531377077525
49.815072,10.707311854708022,0.0997015332376424
49.81920399999999,10.690016997076466,0.0994226983836418
49.823292,10.668690372345123,0.0991778888554784
49.827376,10.654652207513816,0.0988930692277311
49.831456,10.642973518607736,0.098607218434225
49.835536,10.63096265500185,0.0983347074388004
49.83962,10.624335092646035,0.0980368012903222
49.843704,10.61805112266556,0.0977562357407749
49.847784,10.609861994035128,0.0974880570737608
49.851916,10.605826775079946,0.0972117323798845
49.85600399999999,10.60728558227477,0.0969062200073202
49.860088,10.613341198744587,0.0965755497663496
49.864168,10.62265350801465,0.0962424436794743
49.868204,10.631080018085234,0.095944361471473
49.872292,10.64107951210597,0.0956478950774083
49.876388,10.656019407777038,0.0953449688514746
49.880484,10.675223938023295,0.0950308767750069
49.88457999999999,10.698471653044871,0.0947157737770409
49.888676,10.727889161291598,0.0943791208737623
49.892772,10.760341912538696,0.0940497062000063
49.89686799999999,10.793359705961004,0.0937300476164177
49.90100399999999,10.82873697530854,0.0934138672048916
49.90513599999999,10.873197138306132,0.0930570014641566
49.909216,10.91653863462884,0.0927161643335117
49.9133,10.966492823776434,0.0923404289278763
49.91738399999999,11.014541854274071,0.0919773603853211
49.921524,11.057551175896974,0.0916557192909812
49.92566,11.105268031694804,0.0913110261386905
49.929792,11.156352305192812,0.090961147965466
49.933872,11.206650086715744,0.090613138826733
49.93795599999999,11.255829201563795,0.0902807238154448
49.942044,11.30702419996174,0.0899375067498555
49.94617999999999,11.356535489509596,0.0895997897484236
49.95032,11.408505562207084,0.0892327944776529
49.954404,11.461372851779585,0.088866006277575
49.958488,11.513785824076813,0.0884900228746206
49.962572,11.56642024617391,0.0881091598295851
49.966708,11.617924583920592,0.0877153184588002
49.970848,11.665164287092086,0.0873327259783241
49.97498,11.712060397888244,0.0869367569001267
49.979064,11.76152601673397,0.0865105477337319
49.983152,11.810426593404486,0.0860794168811267
49.98723999999999,11.8541653186248,0.0856625486795104
49.991376,11.896220334995034,0.0852497766385024
49.995516,11.932781325215256,0.0848619355063883
49.9996,11.973374082535262,0.0844496469095235
50.003684,12.017322839879917,0.0840076706245469
50.007772,12.054880354199552,0.0835913454749898
50.011856,12.090189117493887,0.0831695162621123
50.015996,12.124822113713083,0.0827444771490531
50.020136,12.159111517556944,0.0823062137946043
50.024224,12.1879068952508,0.0818895276664703
50.028308,12.21322413034454,0.0814796915343194
50.032388000000005,12.23786559836314,0.0810674561898615
50.03646799999999,12.257234490031603,0.0806675245977054
50.04059999999999,12.270998630650126,0.0802901795405572
50.04474,12.284197729093442,0.0799060150501823
50.048888,12.294373002211918,0.0795413003942761
50.052984,12.304659000230329,0.0791734937131111
50.057076,12.310348188973744,0.0788215512891669
50.061168,12.31021117686735,0.0784988286529026
50.06530399999999,12.306263847461038,0.0781929414334433
50.06943999999999,12.302316518054726,0.0778872136041868
50.073528,12.296685479798326,0.0775821055980019
50.07762,12.289149282891968,0.0772848159965448
50.081708,12.275897610035734,0.0770118973312531
50.0858,12.26074077852954,0.0767471892629449
50.08992799999999,12.247710555473176,0.0764667272389579
50.094056,12.237482707941783,0.0761762567063997
50.09809599999999,12.228262802185336,0.0758802230675293
50.10218799999999,12.216362663479384,0.075617160798305
50.106276,12.20625695852346,0.0753495232444366
50.110404,12.200748062842528,0.0750678136568629
50.114536,12.192891108911898,0.0748081941166425
50.11866799999999,12.188844472281184,0.0745330338787115
50.122756,12.192418470250304,0.0742278556491949
50.126844,12.198462669044588,0.0739256015454292
50.130936,12.204506867838877,0.0736232456614113
50.135068,12.211448283508174,0.0733196792242548
50.139216,12.222089291577454,0.0730050572296987
50.143312,12.237437833821666,0.0726743137777747
50.147456,12.254691534715832,0.0723363342900983
50.151548,12.271613060910196,0.0720095629960541
50.155692,12.291902004804736,0.0716833201521091
50.15984,12.31330961537416,0.0713480989841737
50.163996,12.338306093443627,0.0710057870236474
50.16814,12.364089063488176,0.0706664772220864
50.172232,12.388421192158036,0.0703470460134
50.17638399999999,12.409840220402993,0.0700410192312355
50.180528,12.429132640198118,0.069749707962051
50.18466399999999,12.45178106001789,0.0694330452963685
50.188804,12.476445363387556,0.069107559724811
50.19288,12.499315233007197,0.0687867767900261
50.197012,12.5244224359766,0.068449628012962
50.201092,12.547403030496175,0.0681269328899399
50.205232,12.564446699266009,0.0678320673696759
50.20936,12.574988400110886,0.0675553964773693
50.2135,12.587213809805856,0.0672796157527834
50.21764,12.59551817730097,0.0670200365946161
50.221732,12.603711819896152,0.0667647109913396
50.225864,12.611118970516252,0.0665084126216894
50.229956,12.620542004686248,0.0662433396801132
50.234092,12.632423822005876,0.0659559904279541
50.238224,12.642843380275284,0.0656619986048773
50.242356,12.658867689594638,0.0653550980063623
50.24644,12.6781372740387,0.0650295499937413
50.250528,12.695723149632666,0.0647037866521057
50.254608,12.714870591501258,0.0643570063448023
50.258744,12.736820408894822,0.064004320605537
50.26282799999999,12.759888892963266,0.0636442067863653
50.266912,12.77903633483186,0.0632995093534529
50.270996,12.79728655982544,0.0629576410874562
50.275084,12.817552668368911,0.0626084141858001
50.279216,12.838715993787396,0.0622599080538155
50.28335599999999,12.863800361405731,0.0618987172879788
50.287496,12.892019279248846,0.0615218322034868
50.29158399999999,12.922929847716992,0.0611417471565352
50.295672,12.95428331578488,0.0607501881207743
50.299804,12.990565767827569,0.0603413346629008
50.303944,13.022140685695325,0.0599436003399179
50.30807599999999,13.05169972001319,0.0595554087405973
50.31216799999999,13.079242870781162,0.0591771983099184
50.316256,13.105556629974316,0.0588117752811029
50.32034,13.131538214467664,0.0584569889005157
50.32447199999999,13.1516935981112,0.0581219598898538
50.328556,13.164339072054844,0.0578038003519517
50.332692,13.179676196623518,0.0574842110530096
50.336828,13.19748352201736,0.0571703492713332
50.340924,13.212599196786169,0.0568594848625503
50.345024,13.228612088429989,0.056548798756392
50.34911999999999,13.247648805398644,0.0562269474153436
50.353216,13.265677580592358,0.0559099363298606
50.357356,13.280571805561296,0.05560836073681
50.361496,13.292663655005263,0.0553125603247717
50.365636,13.300047970274305,0.055026579724572
50.369724,13.305416401993448,0.0547483815852935
50.373816,13.309433299562308,0.0544585597494223
50.37796,13.310315646906393,0.0541829417050551
50.382052,13.310411502275402,0.0539055238539172
50.3862,13.32025460069407,0.053602515710615
50.390296,13.332113582662634,0.0532929167208679
50.394392,13.340272972231215,0.0529875713037513
50.39848799999999,13.341708944074975,0.0526967078738459
50.40252399999999,13.34437430749355,0.0523965360066915
50.40661599999999,13.346253178937047,0.0520931953885323
50.410752,13.347578425880874,0.0518040840893661
50.41483999999999,13.341504488024736,0.0515233434722552
50.418996,13.327134148493618,0.0512512151851855
50.423096,13.312542359162634,0.0509849359750137
50.427232,13.292235093881771,0.0507290048293707
