Time,Force,Position
48.05706399999999,8.830132773838155,0.1458962575494589
48.061204,8.932521708524694,0.14540676742709
48.06534,9.013641106857555,0.1449399733997942
48.069472,9.075174677686832,0.1444767735332869
48.073616,9.118252505362936,0.1440317227245274
48.07775999999999,9.143672499536471,0.1436309365292697
48.08190799999999,9.161094013708238,0.1432117885835572
48.085992,9.175801041903904,0.1427560988775217
48.090076,9.187816419474537,0.1423282834715754
48.094168,9.199056722745624,0.1419378112979467
48.098256,9.20772751796714,0.1416046623915675
48.102348,9.215058196713908,0.1413030091590096
48.1064,9.223286092335686,0.1409925712269507
48.11051199999999,9.221190285057062,0.1407716446770217
48.11462,9.21437552592798,0.1405737901356936
48.11872,9.21159253389868,0.1403177098590297
48.12282,9.207469425394631,0.140093200114685
48.12691999999999,9.203579184365983,0.1398924906088759
48.13102,9.202170561838036,0.1397111967455943
48.13511999999999,9.205702340960418,0.1394970756314474
48.13922,9.209577712458138,0.1393017704312859
48.14332,9.216820501656034,0.1390814507700474
48.147412,9.22462833302914,0.138869300110256
48.151496,9.231661090102705,0.1386963121247746
48.155588,9.236235064026632,0.1385748899595817
48.15968,9.241374080125766,0.138461452909588
48.171964,9.23810596964999,0.1384447355265288
48.17606,9.243378546000129,0.1383977212399083
48.18015599999999,9.252915756925454,0.1383177542571196
48.18429199999999,9.26951997795094,0.1381746277528826
48.188444,9.2869106909515,0.1380292968470411
48.192536,9.311700588752029,0.1378030905669763
48.19662399999999,9.33615831185275,0.1375942805284465
48.200708,9.357702934528566,0.1374243438792099
48.204788,9.380255498979327,0.1372409895753334
48.208924,9.404713222080051,0.1370353634750152
48.21305999999999,9.43252694520542,0.136775623415891
48.21713999999999,9.463143043855757,0.1364882452203758
48.22122799999999,9.494656359381104,0.1361931047203685
48.225312,9.5271776166814,0.1358873962240138
48.22939999999999,9.558801657106685,0.1355904519271322
48.233528,9.5879554967068,0.1353055979998295
48.237664,9.620022436731825,0.1349859332053476
48.24174,9.645698133731829,0.1347267529552378
48.32784,9.291640794950158,0.1345865663334338
48.331972,9.263846455320463,0.1345571549847018
48.336116,9.239198083591075,0.1345156360073666
48.3402,9.215336203836769,0.1344709006855077
48.344284,9.194387424507362,0.134389970390388
48.34842,9.181956496652804,0.1342144356930133
48.352556,9.175130319848186,0.1339791070220778
48.356692,9.173011677218495,0.1336934444651254
48.360776,9.175157669163998,0.1333790019709474
48.364912,9.184481396109591,0.1330013998847897
48.369048,9.198856249605454,0.132591501852745
48.373184,9.215712721602014,0.1322036548297255
48.377328,9.243225071198776,0.1317219336948461
48.381464,9.275002055370733,0.1312129589098523
48.38559999999999,9.315751208292808,0.1306251756934745
48.389732,9.355492419439935,0.1300471712662203
48.39386,9.394114963912182,0.1294905555742182
48.39798799999999,9.434986259409724,0.128937593640808
48.40211999999999,9.477319813957486,0.1283857699124553
48.406252,9.52201284443048,0.1278306048936389
48.410392,9.566595150003538,0.1272834507608098
48.41452399999999,9.606248471601797,0.1268011300416255
48.418664,9.644893851425106,0.1263342020228252
48.42274799999999,9.68937684977376,0.1258397377143111
48.42683999999999,9.732298281847791,0.1253874026835989
48.43093199999999,9.773768872547144,0.1249727313753981
48.435076,9.812780680096855,0.124605403079185
48.43917199999999,9.848325762721991,0.1242993059545668
48.443268,9.883760120447196,0.1240021583867746
48.447364,9.915949203047688,0.1237541513336767
48.45145999999999,9.950940661173147,0.1234836404726182
48.455604,9.98727223577336,0.1231883633256934
48.45969999999999,10.02640618589854,0.1228725961681146
48.46379199999999,10.065097236423986,0.122579654730817
48.467888,10.100764461624587,0.1223249686675797
48.471988,10.144506638700296,0.1220127625417999
48.47612399999999,10.192513450351198,0.1216807939270581
48.48027199999999,10.238504378452204,0.1213748726090176
48.484408,10.2861790154033,0.1210628422446923
48.488488,10.334529419429533,0.1207578710791569
48.49262799999999,10.38333414073104,0.1204666411632386
48.49676399999999,10.43640349660774,0.1201556412099983
48.50089599999999,10.490824386634724,0.1198521370357523
48.50503199999999,10.543118668211877,0.1195793315796134
48.509172,10.598891092389144,0.1192890785141219
48.51331199999999,10.655450008541484,0.118999342502143
48.517448,10.71570851709381,0.1186821892202328
48.521576,10.777872184296095,0.1183499191625278
48.525652,10.835893359498655,0.11806499760991
48.52973599999999,10.895819693351177,0.1177649299702049
48.533816,10.954848810328686,0.1174765112264208
48.5379,11.012648535731378,0.117209934707082
48.541992,11.06865382738405,0.1169606061752826
48.546124,11.12207819331162,0.1167247746776281
48.550204,11.180431543213986,0.1164477694226697
48.554336,11.23508530071637,0.1162017791950436
48.558472,11.283237090293806,0.1160042271558422
48.56260799999999,11.332618271446057,0.1157903642930811
48.566748,11.383339569073057,0.1155571417550049
48.570884,11.433606549424782,0.1153155837429625
48.57502399999999,11.484427154276185,0.1150542261957984
48.57915599999999,11.532433965927083,0.1147875952077967
48.583284,11.581658751477264,0.114477849055807
48.587416,11.6273939767518,0.1141578619043611
48.59155599999999,11.669307467050883,0.1138411434462777
48.5957,11.71199603164952,0.1134984902245656
48.599836,11.75534894564776,0.1131354302637044
48.60398,11.797239600595782,0.1127720237986918
48.60811999999999,11.841810488493303,0.1123658779531656
48.612272,11.883346133390456,0.11196061415084
48.616416,11.92061714371242,0.1115738721605672
48.620572,11.957876736358848,0.1111614900701178
48.6247,11.989077260680064,0.1107760086070987
48.628836,12.021839351275904,0.1103624097537957
48.632968,12.046526489996634,0.1099947365557813
48.637104,12.07075931144209,0.1096173265815913
48.641232,12.100474741362024,0.1091813462705707
48.64537599999999,12.124917594931818,0.1087701513362568
48.649464,12.144309321951344,0.1083766689605678
48.653604,12.158539197520671,0.1080036434259975
48.65774,12.172425480714663,0.1076170797133006
48.661876,12.186311763908652,0.1072320004323983
48.666008,12.196387729802726,0.1068742137822558
48.670144,12.206795870396608,0.1065048845016488
48.674288,12.213615143490438,0.1061525134170389
48.67842,12.21594833220921,0.1058228427362436
48.682512,12.208079960603046,0.105552514926591
48.686648,12.196057679321628,0.1052916677907511
48.69078,12.183359630965068,0.1050272909598869
48.694904,12.171669524383455,0.1047543904502639
48.699032,12.160311592501648,0.1044692860653355
48.703172,12.148056443744828,0.1041884605330726
48.707312,12.1378171785379,0.1038905580475365
48.711452,12.126902146255832,0.1035891483309282
48.71558799999999,12.116208563773633,0.1032791076830735
48.719672,12.104839214216293,0.1029655414967553
48.723764,12.088873055383951,0.1026764508750025
48.727848,12.0740255632265,0.1023744548109358
48.731988,12.058956621269171,0.1020793726939084
48.73613199999999,12.046579329936884,0.101771326724499
48.740272,12.029162329729864,0.1015025185588621
48.744368,12.007935012222925,0.1012572161333104
48.74846399999999,11.98547830314117,0.101027058630857
48.752604,11.965159620184773,0.1008039434781101
48.75675999999999,11.950224238478452,0.1005563052295854
48.76089199999999,11.935067406972257,0.1003157491094486
48.76502399999999,11.932017294440955,0.1000075552202687
48.769112,11.934239758259794,0.0996792574008152
48.773244,11.936130047378825,0.0993630173917972
48.77738,11.93499651117302,0.0990697971640905
48.78146399999999,11.935325234017428,0.0987807169207579
48.785544,11.933305898612142,0.0985186896518951
48.789628,11.92927067965696,0.0982716249460712
48.79376,11.922998127352017,0.0980476746933583
48.797896,11.920535892346988,0.0978006540178757
48.802036,11.915049832017122,0.0975763681963993
48.80612399999999,11.91483634803739,0.0973337679005652
48.81021599999999,11.916306572907748,0.0970874148964479
48.81435199999999,11.920579173303077,0.0968260808256954
48.81848,11.926424757648556,0.0965658636014784
48.82261599999999,11.938207267743785,0.0962642331270807
48.826744,11.952005661388904,0.0959469866160081
48.830876,11.969946547033746,0.0955964692060033
48.83501999999999,11.98463073987835,0.0952495678847907
48.83916,11.99594751502277,0.0949100154178548
48.84329999999999,12.008604406641943,0.0945512487881384
48.847428,12.01318634638601,0.0942257729219276
48.85156,12.015519535104785,0.0938960956024514
48.855648,12.018517073223162,0.0935438948613441
48.85973599999999,12.026775770016148,0.093148176356085
48.863864,12.031777774008884,0.0927543850662804
48.867996,12.040467952726075,0.0923164558686454
48.872088,12.051506189692963,0.0918520880393782
48.87617199999999,12.06567897688463,0.0913629263755965
48.88026,12.075819996976508,0.0909030064986467
48.884404,12.08999278416817,0.0904148384619442
48.888552,12.09900371990963,0.0899401538766064
48.892648,12.110251989000858,0.0894456351422851
48.89674399999999,12.11802211549197,0.0889599389915345
48.90083599999999,12.1218597821077,0.0884712084605826
48.904976,12.125918898523295,0.0879773547684575
48.90912,12.131096681613776,0.0874733204400786
48.91326399999999,12.13358281407922,0.0869793827021023
48.91735599999999,12.135958221644731,0.0864882827783791
48.921512,12.142254671410091,0.0859752148922022
48.925656,12.15023483002554,0.0854610256718166
48.929804,12.163930464590866,0.0849199094659882
48.93394,12.175499490706365,0.0843949814630488
48.938032,12.185617675447174,0.0838920259409334
48.94212,12.192712034863144,0.083409803740826
48.946256,12.202608769804083,0.0829155988836761
48.950388,12.209260229620318,0.0824484850721571
48.954524,12.219279107136728,0.0819799702707901
48.958612,12.22829004287819,0.0815189671827961
48.962752,12.237633153319456,0.081046146238694
48.966892,12.2451818300107,0.0805792967030165
48.971032,12.25049317335218,0.0801305935162871
48.97517199999999,12.251883474493807,0.0797033816825494
48.97924799999999,12.258767801785442,0.0792586431406761
48.98333999999999,12.269019546777251,0.078811881544174
48.98747199999999,12.273223641119383,0.0784012381029769
48.9916,12.280230110986489,0.0779817600669463
48.995736,12.287912347928732,0.0775676532689005
48.99987199999999,12.299515627070829,0.0771345759580195
49.003956,12.307873631088214,0.0767273655440058
49.008092,12.31454792625551,0.0763216463849099
49.01223199999999,12.315285295673062,0.0759472449448544
49.01636799999999,12.31893576551552,0.0755590238636184
49.02049999999999,12.324037076732662,0.075151139784401
49.024628,12.331940763474778,0.0747346154583001
49.02876,12.339844450216892,0.0743189323368716
49.03289999999999,12.350771962283844,0.0738872114803897
49.03704,12.359118548625698,0.0734595412275753
49.041188,12.364662759442584,0.0730407576749637
49.04532799999999,12.374914504434392,0.0726067870195352
49.049468,12.38595274140128,0.0721750897177283
49.05362,12.40393584589286,0.0717103326778497
49.05775599999999,12.424832050809345,0.0712340352484232
49.061896,12.442028663325848,0.0707701418134142
49.066032,12.459336000742285,0.0703046298435398
49.070164,12.483477480783485,0.0698107937766562
49.0743,12.502911426649748,0.0693338786870971
49.078432,12.52077238856586,0.0688535944099897
49.082568,12.53762540870703,0.068380764680948
49.086708,12.555818545322946,0.0678933263066951
49.090792,12.578608491213856,0.0673976459840677
49.09493199999999,12.60531947930462,0.066886315142989
49.099068,12.634722118020417,0.0663736046175065
49.1032,12.664800523811357,0.0658687269881827
49.107284,12.696108321177109,0.0653564337237163
49.11136799999999,12.729210552292887,0.0648441666731459
49.115496,12.76018617495884,0.0643461707400708
49.11957999999999,12.791161797624792,0.0638499148710228
49.123664,12.826169187390528,0.0633365500303056
49.127704,12.855571826106326,0.0628385908354368
49.13183999999999,12.88429869774698,0.0623363573651133
49.13597599999999,12.91179617781282,0.0618487596720882
