Time,Force,Position
7.207404,0.17594788108914072,0.0
7.209752,0.19293964497463423,0.0
7.212096000000001,0.2077457461324703,0.0
7.214447999999999,0.2165455450510558,0.0
7.216792,0.22613673990255945,0.0
7.219132,0.23493653882114493,0.0
7.22148,0.24601797773986772,0.0
7.223808,0.25546940296451115,0.0
7.226156,0.2630584970695979,0.0
7.228508,0.262499418562157,0.0
7.230843999999999,0.25621357706918607,0.0
7.233188,0.25379216744218863,0.0
7.235531999999999,0.25458356337510674,0.0
7.237883999999999,0.2547233330019669,0.0
7.240223999999999,0.2507191315091332,0.0
7.242568,0.24364189408324416,0.0
7.244916,0.23949792296355024,0.0
7.247252,0.23414324703035758,0.0
7.249596,0.22185110329813604,0.0
7.251944,0.2076966284463579,0.0
7.25428,0.18870276381444753,0.0
7.256615999999999,0.171710999928954,0.0
7.25896,0.15565040160323884,0.0
7.261312,0.14359400477035736,0.0
7.263648,0.13074621200455774,0.0
7.265992000000001,0.11668771442525941,0.0
7.268348,0.10155828165932256,0.0
7.270695999999999,0.08871048889352297,0.0
7.27304,0.07869998516143871,0.0
7.275384000000001,0.07562694922838333,0.0
7.277723999999999,0.07720974109421955,0.0
7.280056,0.07613880590758101,0.0
7.282399999999999,0.07320553960138584,0.0
7.284751999999999,0.06626807180235697,0.0
7.287091999999999,0.061891783257185785,0.0
7.289436,0.0613799265779881,0.0
7.291779999999999,0.057655264338874815,0.0
7.294119999999999,0.05514130691326028,0.0
7.296476,0.06049598284645294,0.0
7.298824,0.07199673064575635,0.0
7.301176,0.08940780341183048,0.0
7.303520000000001,0.10574794099126608,0.0
7.305864,0.11929458189136673,0.0
7.308208,0.13083912204505052,0.0
7.310556,0.14010202219859702,0.0
7.312896,0.15015631828506165,0.0
7.315244,0.15806874399824924,0.0
7.317588000000001,0.16691233527121513,0.0
7.319932,0.17198747195068737,0.0
7.322272,0.1730584071373259,0.0
7.324619999999999,0.172406780831268,0.0
7.32696,0.16947351452507284,0.0
7.329304,0.16747141377865596,0.0
7.331647999999999,0.1651897737785187,0.0
7.334,0.15965153586408548,0.0
7.336335999999999,0.1531821323898739,0.0
7.33868,0.14792343372916109,0.0
7.341028,0.14363969298260695,0.0
7.343363999999999,0.13437679282906045,0.0
7.345704,0.12096992155582002,0.0
7.348044,0.10355884878974589,0.0
7.350396,0.08721871121031029,0.0
7.352728000000001,0.07367207031020964,0.0
7.355072,0.06240363993638349,0.0
7.357419999999999,0.05355661918955482,0.0
7.359755999999999,0.04512890732330678,0.0
7.3621,0.03991400101697433,0.0
7.364444000000001,0.03255722433736483,0.0
7.366796000000001,0.02785417471023008,0.0
7.369135999999999,0.02287501530323768,0.0
7.37148,0.02082569272857768,0.0
7.373828,0.02091824052719474,0.0
7.376172,0.018449609071954108,0.0
7.378512000000001,0.020776575042465287,0.0
7.380856,0.028734326726026764,0.0
7.383191999999999,0.03333950322281243,0.0
7.385528000000001,0.03938770195857411,0.0
7.387872,0.04362232501901584,0.0
7.390216000000001,0.046270726739758565,0.0
7.39256,0.04849981957992067,0.0
7.394904,0.05403426577861541,0.0
7.397247999999999,0.06501593570911987,0.0
7.399596000000001,0.07636969269196181,0.0
7.401932,0.08903013176078234,0.0
7.404275999999999,0.10378521937463676,0.0
7.406611999999999,0.11663075404069141,0.0
7.408956,0.1295688365053631,0.0
7.411296,0.14781437307498432,0.0
7.413639999999999,0.16815455818963942,0.0
7.415984,0.19393853756224147,0.0
7.418324,0.21674545827426797,0.0
7.420667999999999,0.24257819309110668,0.0
7.423004000000001,0.27320652533369727,0.0
7.425352,0.30141344794929026,0.0
7.427695999999999,0.3281301264976642,0.0
7.43004,0.36536916545732007,0.0068825283661436394
7.43238,0.39953516848392057,0.006882528366143639
7.43472,0.43784514263021496,0.013968138172891678
7.437068,0.48667747718779125,0.020447951022345288
7.439412000000001,0.5409570354771773,0.026709262162974562
7.441751999999999,0.5930947233932864,0.03306983372636505
7.444096,0.6398777353762026,0.039636353903691725
7.446439999999999,0.6897337832921743,0.04603503932265875
7.448788,0.741032853447122,0.052404367508214235
7.451124,0.7924716932289301,0.05872419966667139
7.453472,0.8488459000633498,0.06489606275559585
7.455816,0.9052201068977699,0.07114886803565712
7.458159999999999,0.9569384859332983,0.07754625728308476
7.460504,1.0102868786629058,0.0837798133875624
7.462847999999999,1.05977083952654,0.09013730465069622
7.465192,1.1086031740841162,0.09663385783347496
7.467528,1.1529194504696612,0.1033254883029273
7.469875999999999,1.1963045612954277,0.10996338182046064
7.472224000000001,1.2399692113749148,0.11665332795969323
7.47456,1.2856359622008187,0.12319327555995101
7.476903999999999,1.3235738492947755,0.12298219252109602
7.479248,1.3676578082548432,0.12944894747390262
7.481596,1.4080171049757977,0.12892353313992744
7.483931999999999,1.4392045157258289,0.1291143197035048
7.486276,1.466807033863607,0.12952320678770135
7.488628,1.4949686305088263,0.12977090956242673
7.490964,1.5236893056614864,0.1298282070096159
7.493308000000001,1.5482660096944525,0.1302068898025811
7.495656,1.569397590742026,0.13070826692357349
7.497992,1.5866647399236256,0.13143607624055587
7.500336000000001,1.6022093276125289,0.13222386950099269
7.502675999999999,1.6191043897417912,0.13284771134393678
7.505027999999999,1.63786178299061,0.1333528956630126
7.507368,1.654477305866152,0.1340178925722281
7.509712,1.6724433031820525,0.1345263953637372
7.51206,1.6905490701248134,0.13498208436421782
7.5144,1.7145213696799648,0.1350796901106938
7.516743999999999,1.735560402928921,0.1353410435176946
7.519088,1.759672472110933,0.1354097247915481
7.521432000000001,1.7780577783074143,0.13577703588097087
7.523768,1.7963033148770353,0.13614924599042802
7.526111999999999,1.8113360458867407,0.13674750057436078
7.528456,1.8250183024560873,0.1374626729081752
7.530796,1.8422854516376872,0.13801292573793605
7.533139999999999,1.8586214352595087,0.1386000472491591
7.535484,1.8745381100007494,0.1392672022873362
7.537832,1.891106411048048,0.13993646563766568
7.540167999999999,1.9088854169088458,0.14048719087668146
7.542512,1.925313948329284,0.14115076043153732
7.544864,1.947609012362113,0.14146418582526335
7.547207999999999,1.9648289397154695,0.14208691078177615
7.549552,1.9809779318821878,0.14277979949738712
7.551895999999999,1.9955441321830694,0.14349957425925317
7.554247999999999,2.0091791669241728,0.1442562090919324
7.556583999999999,2.021883036105498,0.14505165249664279
7.558932,2.0364492364063795,0.14574721828450216
7.56128,2.0452886737217315,0.14673048360907198
7.563636000000001,2.0544076502908037,0.14765659956483249
7.56598,2.0616642957403193,0.14865536470681093
7.568324,2.069060710816695,0.14963147792495682
7.570676000000001,2.081160175520205,0.1502346305268819
7.573015999999999,2.09181661798474,0.1508416819070337
7.57536,2.1073158797032687,0.15105886928386936
7.577712,2.118299083249767,0.15146580241026036
7.580048,2.130492991609764,0.15177443747394648
7.582392,2.1432459784772013,0.1519809099297658
7.58474,2.1557666479191617,0.15210493823515073
7.587076,2.1676356910550645,0.15221773716626785
7.58942,2.182485222325405,0.15203696877074657
7.591760000000001,2.1940294002372136,0.15196696281937228
7.594111999999999,2.2092056925895176,0.15161432284916676
7.596448,2.2220077971430676,0.1513127029474767
7.598791999999999,2.2389538728163116,0.15078686835054816
7.601139999999999,2.2551085525566363,0.150272669914108
7.603476000000001,2.2724739371104614,0.14968058605729964
7.605824,2.290398400171727,0.14901118341313327
7.608164,2.3106045032331295,0.148183300849643
7.610507999999999,2.334163181481308,0.14716289566586294
7.612848,2.355719758983069,0.14625168893396068
7.615192,2.3809084509253275,0.145090517727332
7.617544,2.4020929413747516,0.1441659103898589
7.619876,2.4223462662643973,0.1432672996456345
7.62222,2.4395265552209877,0.1425481946348784
7.624563999999999,2.4599196497374933,0.14164260996689337
7.626904,2.4759364557088284,0.14087216064244265
7.629244,2.4871576642544113,0.14030461761800686
7.631584,2.497168167986496,0.1398231684648332
7.633927999999999,2.5065270454125224,0.13933033402860098
7.636267999999999,2.516677318771467,0.13883692141729692
7.638612,2.5257566569437726,0.13840595435408412
7.640955999999999,2.534556455862358,0.13802464922489777
7.643307999999999,2.5464292907139985,0.13750018193795147
7.645644000000001,2.5505732618336925,0.13729677300410428
7.647988,2.5542053762741888,0.1370609892335832
7.65034,2.556254698848849,0.13685418008746641
7.652684000000001,2.556301920677092,0.13673831921694224
7.655023999999999,2.555557746572417,0.13663498537703372
7.657368,2.5497384357882704,0.13675990029838211
7.659715999999999,2.543547037951785,0.13683434972650904
7.662051999999999,2.532792360115026,0.13716923891819843
7.6644,2.52003558153185,0.1376000478495008
7.666752000000001,2.5114227740683677,0.13782586027550284
7.669096,2.5028099666048855,0.1380516727015049
7.67144,2.4931262239547642,0.13832873459897588
7.673783999999999,2.487027373916897,0.13849753313013605
7.676124,2.483070394252306,0.13856037038534363
7.678464,2.4765994571621013,0.1386867656404701
7.680811999999999,2.469057584885258,0.13887484245057874
7.683156,2.459653381488858,0.13912783122296682
7.685496,2.448247077346041,0.13948034271468193
7.68784,2.434326815777609,0.1398994926840951
7.690184,2.41225838159665,0.14075225202351008
7.692532,2.3931232137218856,0.14150070686765262
7.694876000000001,2.3739880458471214,0.1422569386875947
7.69722,2.3516400724124416,0.14322556010076418
7.699567999999999,2.3254276671117884,0.14442657772810016
7.7019,2.300146427370914,0.14556791273721834
7.704243999999999,2.275936122816678,0.14667303905049103
7.706595999999999,2.2534483797551377,0.14770687835302987
7.70894,2.2333820463205947,0.14857619571546346
7.711276,2.21559735288619,0.14929369231977999
7.713620000000001,2.1919461268393947,0.15032096591135277
7.715964,2.169365835979238,0.15126674710018306
7.718299999999999,2.144783444372664,0.15234802685024243
7.720644,2.1175473257136153,0.15354551075700973
7.723000000000001,2.0900316678008464,0.15481727818703486
7.725336,2.0633074058209955,0.15612212527006966
7.727679999999999,2.0444517771999515,0.15692622523569832
7.730028000000001,2.0253166093251878,0.15778206264383035
7.732376,2.006181441450423,0.15867548658599356
7.734719999999999,1.9867667343219388,0.15965686390300732
7.737064,1.9745690342462034,0.16019259472081918
7.739416,1.9645132045437455,0.16056888035620795
7.741759999999999,1.9543176052144273,0.16097994494403908
7.744104,1.9459843370046657,0.16130706057695277
7.746447999999999,1.9445885365939326,0.16117886002818868
7.748796,1.9391885346903661,0.16132447229783592
7.751139999999999,1.9359304031600766,0.16130288471937607
7.753484,1.9291799268161511,0.16159443402736545
7.755827999999999,1.9193564145391702,0.16212578731332722
7.758179999999999,1.909253363008469,0.16271304161779304
7.76052,1.9019438081571025,0.163144265968834
7.762864,1.8924923829324594,0.16375222608319276
7.765207999999999,1.8850430584542328,0.16422468763632242
7.767543999999999,1.8788969865881218,0.1647136023945735
7.769892,1.8736820802817893,0.16514811231860976
7.772235999999999,1.874985332893905,0.16515234526168643
7.77458,1.8661383121470765,0.16592812933737744
7.776923999999999,1.8554289602806913,0.16684305933578045
7.779268,1.849654975466918,0.16738802817927115
7.781608,1.8477454225191179,0.167663955433349
7.783944,1.847278891810294,0.16790726883396753
7.786291999999999,1.845182347407391,0.16835600821373886
7.788639999999999,1.844668594870324,0.16875149106443899
7.790976000000001,1.8488106701321492,0.16886166488742613
7.793316000000001,1.8485292350205595,0.16933901331889037
7.79566,1.8527638580810013,0.16956864550832734
7.798,1.854297532260725,0.17008794396612611
7.80034,1.8578333071868656,0.17046423569139538
7.802688,1.8689581762180931,0.1703441011162183
7.80504,1.8843195641676316,0.17004447240546647
7.807376,1.901915370289064,0.16970147783897804
7.80972,1.9230960690227494,0.16917040623386984
7.812072000000001,1.947861660368688,0.16848091507015808
7.814416,1.9774228491403787,0.16752671306159367
7.816756,2.0115000960841005,0.16638460163787758
7.819100000000001,2.039011962281131,0.1657539011551826
7.821444,2.072762448142889,0.1647704419832655
7.823776,2.10953874810946,0.16367386601957412
7.826116000000001,2.1444054951282308,0.162863962691079
7.828467999999999,2.1792250203187584,0.1622149840646126
7.830812,2.213485467001845,0.16170593617858633
7.833152,2.2531931374167415,0.1609616978758462
7.835495999999999,2.2942040604437532,0.1602296745155841
7.83784,2.3326538042169083,0.15974671179547845
7.840176,2.3773421676547906,0.15900612783117501
7.84252,2.4230542444510683,0.15833837881357452
7.844872,2.474865171285214,0.15742828688066898
7.847204,2.5310523866645314,0.15636040574459187
7.849548,2.5862612146558264,0.15554756381443732
7.851891999999999,2.6381174674603454,0.15497613090775267
7.854240000000001,2.6884834761976455,0.15452679970756905
7.856576,2.7409441334799793,0.1541092369105278
7.858919999999999,2.7941489648669884,0.1538253656698363
7.861268000000001,2.8467947177465565,0.15366465203481536
7.863607999999999,2.895668586558768,0.15374797647876634
7.865952,2.951200383916288,0.15356119144353259
7.868295999999999,3.008314973139645,0.15335649516736463
7.870644,3.0674316631094185,0.1530681787104364
7.872987999999999,3.129341849758527,0.1526875491995724
7.87534,3.1912520364076356,0.15229917310809488
7.877687999999999,3.2544654756688596,0.15192622699350766
7.880032,3.3143263397433076,0.15173739133520678
7.882376000000001,3.3785634923629266,0.15145432046676685
7.884715999999999,3.44503506315444,0.1511412020206624
7.887067999999999,3.512670116931209,0.15089249976650368
7.889404000000001,3.582958897760453,0.1505884219934546
7.891752,3.6493360248954803,0.15047783326175918
7.8941,3.716177786881462,0.15047197395334194
7.896444000000001,3.7845551189050366,0.15052173180423103
7.898788,3.859635705444294,0.15050768026231784
7.901132,3.9395572153796765,0.15046510014405057
7.903475999999999,4.02124661277813,0.15052280330298454
7.905816,4.105402745773954,0.15060927295230125
7.90816,4.191186996605989,0.15079495059346082
7.910512000000001,4.285024976394065,0.15085673979970213
7.912848,4.382912483645348,0.15094666654500555
7.915191999999999,4.483778583173201,0.15107631369913838
7.917540000000001,4.592139333149654,0.15117132273693817
7.919876,4.703338905775817,0.15131906243121757
7.922212,4.817517070678548,0.1514854289158998
7.924555999999999,4.934441510432371,0.15164739578629313
7.926907999999999,5.054903620970205,0.1517859450136675
7.929244000000001,5.17331640893338,0.15203684811341028
7.931588,5.29517431988195,0.15223436279354524
7.933944,5.415681756390158,0.1524862373501558
7.936292,5.535769884017787,0.15277245369908202
7.938636000000001,5.664425493138524,0.1528323435006167
7.94098,5.795409964087643,0.15278532788109397
7.943315999999999,5.924998634626027,0.1526920115323969
7.945651999999999,6.048303359529309,0.15260494272792285
7.947996,6.170119736223242,0.1524325168770371
7.950343999999999,6.286071476162655,0.1522306977828982
7.952684,6.395599500840103,0.15204225729777215
7.955028,6.506200356562061,0.151708434533242
7.957371999999999,6.6115882018355565,0.15137430579406733
7.959716,6.7094813966604505,0.15108769012771467
7.962059999999999,6.800299249917325,0.15080920724312005
7.964404,6.882179430486622,0.15058410956257484
7.966747999999999,6.958986370234318,0.15033470059185244
7.969092,7.038448932892358,0.149943035521053
7.971436000000001,7.118285478460605,0.1494685909981693
7.97378,7.197425071752416,0.1489276472353137
7.976132,7.274005381648239,0.1483395218723251
7.978472,7.347327560013772,0.1477548061614446
7.98082,7.415249736475739,0.1471985696024864
7.983164,7.4819158821538325,0.14660834281210766
7.985516,7.541971321114861,0.1460927719165488
7.987856000000001,7.595788140411161,0.14565681370344757
7.9902,7.647230771908707,0.14523970392664137
7.99254,7.696019676353779,0.14484893551352782
7.994876,7.743924637067316,0.14444133821489602
7.997228,7.794390777034709,0.14397927880804284
7.999568,7.84713855700224,0.14347525234241004
8.00192,7.890295142118267,0.14310542012560296
8.004264,7.932660331301378,0.1427461821944749
8.006608,7.975444829365068,0.14236819254568867
8.008944,8.02330446410823,0.1419173502109353
8.011284,8.071164098851394,0.14146935405387018
8.013632,8.118092568034777,0.1410341323925111
8.01598,8.159294274232632,0.14068190144239795
8.018316,8.193558512631457,0.140430073384942
8.02066,8.224889484724088,0.14022065525153027
8.023007999999999,8.257011852749637,0.14000964877505595
8.025344,8.286340724095849,0.1398318256083524
8.02768,8.320232875442336,0.13957505620049254
8.030024,8.35133153010949,0.13935188132836734
8.032368,8.381359249590005,0.13914754369748747
8.034704,8.410595573137602,0.13894623466749456
8.037048,8.441182371125555,0.13871786074797368
8.039396,8.4788464065394,0.13839677285227328
8.041732,8.517022298632442,0.1380911578733148
8.04408,8.554639112218045,0.1378149880298257
8.046424,8.592395695430504,0.13753663019095674
8.048767999999999,8.636018811255356,0.1371876975476602
8.051108,8.678059135214372,0.13684894109002965
8.053448,8.718376897680688,0.1365243222849877
8.0558,8.75804303384095,0.13620451527297628
8.058132,8.797197313322012,0.13587779684509876
8.060484,8.837841836870295,0.1355201265738049
8.062828,8.876903568552741,0.13517035126225652
8.065172,8.91559321318285,0.13480433460726368
8.067508,8.954841936320399,0.13441755679594497
8.069852,8.992787406845833,0.13402827575621465
8.072196,9.034225222184904,0.1335869248311542
8.074532,9.073149080098359,0.1331659510354588
8.076876,9.111421311705758,0.13274287980410884
8.07922,9.14866982995476,0.13230453437625522
8.081555999999999,9.18833975783076,0.13182713051366268
8.083892,9.224564562721367,0.1313751315662092
8.086236,9.254410978320387,0.13098199799417765
8.088583999999999,9.279741335747373,0.1306277184817616
8.090916,9.301906109442687,0.13028546620961715
8.09326,9.321696695339249,0.12995340798071486
8.095604,9.337902388623556,0.1296500833048457
8.097944,9.352385520415167,0.12935808719480177
8.10028,9.369290061833775,0.12902847452573044
8.102628,9.378885048401015,0.12875942941899463
8.104968,9.386617703848703,0.12850690361530773
8.107308,9.392627797803694,0.12826602307292673
8.109652,9.396915330265987,0.12803536922461267
8.111996,9.403344733101553,0.12777759603840524
8.114336,9.403907603324734,0.1275791419839208
8.116672,9.400745811308798,0.12741279982622833
8.119012,9.388923990001139,0.1273303457643849
8.121356,9.373237736827505,0.12728559879571455
8.123696,9.35918149734795,0.1272040807593201
8.12604,9.343635013801178,0.12715275444118163
8.128384,9.325574572828792,0.12711350465592136
8.130736,9.307653901483267,0.12706837334979715
8.133068,9.288010668645043,0.12703351438609894
8.135412,9.267715809500762,0.12699534350217515
8.137756,9.247700489610201,0.1269454698613399
8.140096,9.223960507480527,0.12692746934775212
8.14244,9.199708668671656,0.12690035549380738
8.144784,9.17266333318345,0.12689785100315906
8.147124,9.141753565829271,0.1269320240821176
8.149468,9.113217986273844,0.12695997316476965
8.151872,9.08309961485258,0.1269931376599622
8.154256,9.049256581192205,0.12705902867597657
8.15664,9.017555417905106,0.1270964707295989
8.15904,8.979987722005617,0.1271951685275873
8.161428,8.947774702039322,0.12722385278985868
8.163808,8.919705653192722,0.12720154501897762
8.166212,8.896571971398732,0.12712683704120695
8.1686,8.87329851997788,0.12705839155897602
8.17098,8.845461788556754,0.1270578290708475
8.17338,8.820186236389487,0.12701051203587144
8.175768,8.79383974903558,0.12697677886096287
8.178148,8.768564196868315,0.12692796995658018
8.180544,8.746082141380384,0.1268540069161993
8.182936,8.725462417012007,0.1267630065905207
8.185316,8.704702923016772,0.12667721197445714
8.18772,8.686597156074011,0.12657240750704435
8.190108,8.669282785064167,0.12646468801358646
8.192487999999999,8.657695177039853,0.12630107666087317
8.194884,8.648109669761958,0.12611456559410741
8.197272,8.640293945805002,0.12588404260971306
8.199652,8.633409387407825,0.12564430143166191
8.202056,8.632251591996177,0.12534873726572235
8.204444,8.63002286139789,0.1250672856263882
