Time,Force,Position
7.619991999999999,0.44068583385502047,0.0
7.622336,0.45539559549850106,0.0
7.624679999999999,0.4645183637833116,0.0
7.627016,0.4725701968814837,0.0
7.629352,0.48183273479315447,0.0
7.631695999999999,0.4875103800925723,0.0
7.634052,0.49705245725796343,0.0
7.636399999999999,0.5047322033037981,0.0
7.638744,0.5120398622972951,0.0
7.641084,0.522560326850708,0.0
7.643435999999999,0.5287970506575665,0.0
7.645767999999999,0.5387584367035383,0.0
7.648112,0.5456467868164548,0.0
7.650463999999999,0.5585414391686219,0.0
7.652803999999999,0.5711565522670685,0.0
7.655152,0.5834921261117947,0.0
7.657491999999999,0.5996921318224943,0.0
7.65984,0.6120277056672204,0.0
7.662176,0.6290191073108383,0.008252991549244441
7.664523999999999,0.6530877463803453,0.015781709842511257
7.666868,0.6785994076888282,0.02338106265305294
7.669211999999999,0.7030401338106727,0.030939312296693354
7.671556,0.732416226985129,0.038226670571705486
7.673899999999999,0.7608611545998071,0.045617073140241673
7.676248,0.7914479525877621,0.05270876991162646
7.678596,0.8229659161354955,0.0597709802344339
7.680943999999999,0.8515506133770339,0.06692882181668129
7.683295999999999,0.8790643754319336,0.07418324770806198
7.685636,0.9083006989795298,0.08125311078884973
7.687976,0.9321823465939332,0.08858732832351038
7.690328,0.965562641261223,0.09535602833147458
7.692664,0.9952182736893999,0.10216678115776008
7.695007999999999,1.0248739061175767,0.10899654165473874
7.697351999999999,1.052247898545616,0.11588639039377252
7.699699999999999,1.0808325957871545,0.12258919895655085
7.702035999999999,1.1126300985886086,0.12911992149224064
7.70438,1.140563169524089,0.13578303564574262
7.706736,1.1707306586314634,0.1424270475220379
7.709072,1.2006186084851174,0.1407641759551089
7.711419999999999,1.225151882405579,0.13991540422479226
7.71376,1.2515474874455965,0.13894293064281482
7.716112,1.2792463450977307,0.1380289887076529
7.718447999999999,1.3055947283095057,0.1373859908688855
7.7207919999999985,1.3345968385737552,0.13659174148526526
7.72314,1.360897999957287,0.13620870027061371
7.72548,1.386640082833378,0.1359670135043186
7.727823999999999,1.4147563535082233,0.13564100822413885
7.730168,1.4464575167953215,0.13512133947745322
7.73252,1.4758770400822825,0.13486065454479618
7.734856,1.509021225608357,0.1343170238210733
7.737199999999999,1.535040951880299,0.13457704341620502
7.739548,1.5651574274436917,0.13470809935362907
7.741891999999999,1.597648090805839,0.13478348912876242
7.744236,1.632792481220461,0.1347375249860532
7.746579999999999,1.665887549060423,0.1350087905913447
7.748931999999999,1.6961418983928067,0.13559718019562736
7.751267999999999,1.7295618314568628,0.13608289905883686
7.753616,1.7645645563867556,0.13653228002312123
7.755968,1.7957953972492917,0.13729391907139027
7.758311999999999,1.826047850723806,0.13821102100397303
7.760656,1.857184247929856,0.13921384953297108
7.762999999999999,1.8877615666284648,0.1402945737098909
7.765347999999999,1.920014224991527,0.14142775385214562
7.767699999999999,1.9540819926459028,0.14259106002211108
7.770043999999999,1.994108840711286,0.14352074834128858
7.772396,2.0391636036278977,0.14426661988230632
7.774739999999999,2.087104411022462,0.1449765685599355
7.777083999999999,2.1355098532679806,0.14583630056619457
7.77944,2.187313196670649,0.1466714767634085
7.781792,2.2406521101109105,0.14757249388686539
7.784131999999999,2.300881269521958,0.14819505993290652
7.786475999999999,2.3626459989705983,0.14890299278951322
7.788811999999999,2.4250151328970535,0.14970778009523256
7.791147999999999,2.490502628726938,0.15055733211219785
7.793492,2.5596675649676923,0.15131947104862847
7.795844,2.63637437348529,0.1518605871681721
7.798184,2.71568768722712,0.15239740381389438
7.800527999999999,2.795884944700485,0.15299886314324118
7.802872,2.885393857771633,0.1532312451905941
7.805207999999999,2.9835628001345063,0.15310267328867613
7.807548,3.0828026776840174,0.15292421686651364
7.809888,3.1840446559799465,0.15264316976531725
7.812231999999999,3.2844952383429575,0.15235058674615776
7.814567999999999,3.383223259213272,0.15210331365368882
7.816911999999999,3.476084747471196,0.15207397375402656
7.819252,3.563079703116729,0.15223615392836687
7.821595999999999,3.649050945403867,0.1523731592998732
7.823939999999999,3.7350694095192485,0.15242193596375184
7.82628,3.821274865089733,0.1523742661601641
7.82862,3.9068759161824027,0.15224323904600495
7.830963999999999,3.9890790661179234,0.1521260968482674
7.833308,4.068303623776874,0.15197282643032167
7.835648,4.1474828554654515,0.15169110079377915
7.837991999999999,4.218096501518789,0.15150063533861866
7.840327999999999,4.284148763429722,0.15127910711382764
7.842671999999999,4.344428936384752,0.15110501360108353
7.845019999999999,4.403592848182767,0.150849625009781
7.847364,4.455634196584522,0.1506705304825995
7.849707999999999,4.498411111216735,0.15065722848993238
7.852052,4.534065462452685,0.15073932927925054
7.854399999999999,4.567253078091264,0.1507986044085554
7.856735999999999,4.602490016304502,0.15074864402284754
7.859084,4.6392644204132045,0.15057197946388068
7.861423999999999,4.671430218551257,0.15042723978242795
7.863763999999999,4.705133482584773,0.15014847916745835
7.866108,4.744518183633445,0.1496273776842445
7.868451999999999,4.781668466510222,0.14913164136952034
7.8708,4.813930604162631,0.14869959733262927
7.873131999999999,4.84116482696381,0.1483425403842836
7.875479999999999,4.866164631593095,0.14800386609806157
7.877831999999999,4.886648378050348,0.14774880024205048
7.880176,4.901684900775791,0.14759704281745173
7.882519999999999,4.913136530888982,0.14751354465393463
7.884863999999999,4.9319449376817825,0.1472324760298187
7.887216,4.951824279661221,0.14692209793452646
7.889556,4.967978959401548,0.1466863323747516
7.891899999999999,4.979897120223563,0.14651355469691948
7.894248,4.997449496232491,0.1461702421425048
7.896584,5.014490015562221,0.145806876845891
7.898931999999999,5.030739138959033,0.1454530789102635
7.901283999999999,5.045125931236289,0.14513933189286454
7.9036279999999985,5.0509924638486785,0.14500629880007898
7.905967999999999,5.051132233475538,0.14499534208823855
7.908312,5.0584890101551485,0.14480332154550407
7.910664,5.063331829409144,0.14464466082335373
7.913004,5.060166245677472,0.14467278200019187
7.915347999999999,5.05048250302735,0.14482798865633148
7.917699999999999,5.040286903698032,0.14497030266391453
7.920039999999999,5.034514814742128,0.14498411065688588
7.922379999999999,5.0278115602264455,0.14501564370925504
7.9247239999999985,5.023389945710901,0.14497901421157558
7.927067999999999,5.0200392663819935,0.1449134346124206
7.929403999999999,5.015617651866449,0.14487755158754467
7.931748,5.002396238432318,0.14504033663642366
7.9341,4.98973390350563,0.14515639003406228
7.93644,4.980424143765716,0.1451740003965873
7.938783999999999,4.971254153652661,0.1451807385117911
7.941128,4.9572885661138555,0.14528746695857667
7.943475999999999,4.950679755254659,0.14520108324408115
7.9458199999999986,4.941137678089269,0.14517937112437074
7.948168,4.930152578684901,0.14516079371951793
7.950515999999999,4.921309349653811,0.14508518499556997
7.95286,4.914747760622857,0.1449396846029764
7.955203999999999,4.900457307859957,0.1449601485013299
7.957548,4.885095919910419,0.14501056671587045
7.959891999999999,4.872947337520796,0.14497418110704027
7.962227999999999,4.866944826997284,0.14478253702500662
7.964576,4.861593942779831,0.14459412334099034
7.966919999999999,4.8511679218829045,0.14453181003347623
7.969264,4.842232145053197,0.14440532464875933
7.971607999999999,4.835717777850486,0.14419727041736594
7.973952,4.832416216207693,0.14390145048231157
7.976295999999999,4.8295339634454795,0.1435713884041348
7.978635999999999,4.832378473668797,0.14311950093603273
7.980987999999999,4.830799473518699,0.14279560553274906
7.983339999999999,4.825076502248907,0.14257800905030063
7.985675999999999,4.823217962845088,0.1422768723216038
7.98802,4.822150819374188,0.14196730247765704
7.990367999999999,4.81265596403704,0.14188082003988658
7.992712,4.807305079819585,0.14168852369760276
7.995055999999999,4.801674656348411,0.14151775394201638
7.9974,4.795113067317458,0.14136482550914917
7.999747999999999,4.787340773473007,0.14125235797316005
8.002084,4.784503846681168,0.14102531944449206
8.004428,4.784460416568664,0.14074303910567718
8.006784,4.786558856829435,0.14040386929598533
8.009128,4.785724030784014,0.14012973653841862
8.011472,4.785960139925228,0.13982593801997753
8.013816,4.787127414626222,0.13950238274827745
8.016160000000001,4.784150718207523,0.1392846444781878
8.018496,4.776610741788549,0.13920684941761144
8.020836000000001,4.767999830182935,0.13915722004693912
8.02318,4.759388918577323,0.13910728435864195
8.025528,4.748264049546094,0.13908694355202703
8.027868,4.740212216447922,0.1389914572538312
8.030212,4.738026915962141,0.13876611607073716
8.032552,4.730906248423747,0.13865189326975505
8.034904000000001,4.72578768163177,0.1384909199925252
8.037252,4.724813085959488,0.13822512267041315
8.039604,4.721417080660207,0.13803969441538405
8.041944,4.724399464652515,0.137744382989649
8.044288,4.731106510883935,0.13737997556276307
8.046628,4.739536118608052,0.13699230995942277
8.048972000000001,4.745963625585753,0.1366534954084294
8.051304,4.753462067750092,0.13629028170110827
8.053652,4.757468165100795,0.13603339681280172
8.055992,4.762917284690474,0.1357748315547005
8.058336,4.770368505026569,0.13547423860647234
8.060676,4.776469250922307,0.13522059019422092
8.06302,4.7860151198034355,0.13492002713268061
8.065368,4.795560988684565,0.13461513108355116
8.067708,4.8056187142448925,0.13432773058467662
8.070056000000001,4.816328066111278,0.13404518197227017
8.072396,4.8263385698433625,0.13381701778991648
8.07474,4.838351174321864,0.13354617734395074
8.07708,4.84743051249417,0.13334052278606343
8.079424,4.857952872905452,0.13313256182381158
8.081768,4.868195694063014,0.13294875847012613
8.084108,4.876296644847298,0.13282084917241985
8.08646,4.886539466004859,0.13263762040798144
8.088804,4.890403897870832,0.1325609829782736
8.091140000000001,4.8933371641770265,0.13250158512630192
8.093484,4.895339264923444,0.13245853123972798
8.095836,4.8946404167891435,0.13251278950863232
8.098172,4.892730863841344,0.13260420611518134
8.100512,4.895756677946156,0.13259409323169224
8.102852,4.898642722424108,0.13259448169418409
8.1052,4.898315961342146,0.13267468906746038
8.107544,4.901202005820096,0.13267507752995217
8.109888,4.905298755111547,0.1326386893590117
8.112236000000001,4.917264137761805,0.13244729036144107
8.114568,4.928298354852284,0.13227154751953285
8.116908,4.940403507129404,0.13207080088271853
8.119252,4.953998903473741,0.13181169186795463
8.1216,4.964241724631302,0.1316418575923832
8.123940000000001,4.972202905788726,0.13153330215267198
8.126284,4.980443626199871,0.13140323302248108
8.128628,4.987613411424377,0.13129959022657284
8.130976,4.9975766933282175,0.1311497399808549
8.133316,5.003675543366086,0.13107204402747308
8.13566,5.0093550845233725,0.13102480878813694
8.138004,5.01475508642694,0.13099933294646737
8.140336,5.022017419450064,0.1309429942298499
8.14268,5.034774198033239,0.1307450736335792
8.145028,5.0465998110566375,0.13056352474904812
8.14736,5.050556790721227,0.13053816745520083
8.149704,5.05986844631901,0.13038521493443256
8.152044,5.07239290747671,0.1301562126255454
8.154388,5.085708764567325,0.12992516636453447
8.156728000000001,5.09394948497847,0.12979957309375462
8.159072,5.095392507217446,0.12980062387135607
8.161412,5.098186003896781,0.12975651079263945
8.163756000000001,5.10470416281523,0.12965607977473903
8.1661,5.110803012853098,0.12958588635389737
8.16844,5.121185603637519,0.12941940737274857
8.170784000000001,5.135712165541635,0.12916561887115213
8.17312,5.150518266699471,0.12889254550268098
8.175464,5.166674842297666,0.12857665589733572
8.177816,5.1820400219629414,0.12826824431005385
8.180152,5.205925461293084,0.12782850597135764
8.182496,5.235956972489337,0.1272694252222859
8.184896,5.268409893312588,0.1266525590119177
8.187284,5.300071418202919,0.1260459179663535
8.189688,5.331732943093252,0.12545303331996385
8.192088,5.364465403170223,0.12484007800805165
8.194476,5.402412769553525,0.12411716397229745
8.196872,5.4343538336975765,0.12351169976412217
8.199272,5.467226063401408,0.122905212273731
8.201656,5.498235961985682,0.12232739968617015
8.20406,5.535531702062928,0.12162826807120192
8.206452,5.575760708446368,0.12088497972905335
8.208848,5.616920880389587,0.12013917004184661
8.211244,5.650491958227719,0.11950563405249177
8.213636000000001,5.686204906439128,0.1188331173231756
8.216028,5.721126458717619,0.11817643236525807
8.218428,5.754185679876553,0.11754822571179313
8.220812,5.786685822528046,0.11695591782888866
8.223208,5.818906425925819,0.11638603892338961
8.225604,5.85205819488337,0.11581071014894934
8.227992,5.879622970482253,0.11531312796344606
8.230388,5.9043942494018005,0.11485692216779528
8.232784,5.927023657948069,0.11444577212015984
8.235168,5.9490014401882805,0.11403090979451207
8.237568,5.9659040857490195,0.11369556601085191
8.239964,5.978942299443786,0.11340958360072954
8.242348,5.992632139444609,0.11313266286262139
8.244728,6.010605720191986,0.11278329593120678
8.247124,6.025506265006309,0.11248437111942029
8.249512000000001,6.043759385007408,0.11212544666814023
8.251892,6.058008303515673,0.11182562710543563
8.254288,6.0716055957178785,0.11152226645598586
8.256676,6.084271722360307,0.11123152314571769
8.25906,6.100802280868709,0.11089305012040258
8.26146,6.11761237863083,0.11054266664087507
8.263848,6.1310699012061765,0.11025413528840859
8.266228,6.14652952452794,0.10994098694798225
8.268624,6.161756830424226,0.1095965296486686
8.271008,6.175121805200956,0.10927069673010664
8.273404000000001,6.183691182551933,0.10899904537008569
8.2758,6.19226055990291,0.10872774122782274
8.278188,6.198688066880611,0.10849134161200664
8.280568,6.203393012365614,0.10826574784250415
8.282964,6.205676548223622,0.10809015734685029
8.285352,6.210241724081764,0.10787131000154411
8.287736,6.217740166246103,0.10761522398613316
8.290132,6.222864420611687,0.10736370993368469
8.29252,6.221563063857442,0.10721628638734303
8.2949,6.219470311170277,0.10706984634856784
8.297304,6.213093817736558,0.10699249152526522
8.299692,6.211652691355453,0.10685400660346206
8.302072,6.209932025720625,0.10673181686279835
8.304476000000001,6.204998554525883,0.10666000881635497
8.306864000000001,6.199133917771361,0.1065969896052998
8.309244,6.191918806576481,0.10656616771229516
8.31164,6.18605416982196,0.10650293001795023
8.314028,6.177396036388103,0.10646543708536191
8.316412,6.172602334820221,0.10638527357761629
8.318808,6.170090273252475,0.10626466888767348
8.321196,6.17358451392398,0.10607011771430391
8.323576000000001,6.178149689782123,0.10586003202216197
8.325976,6.183925570453766,0.10562587900498133
8.32836,6.190492847058328,0.10539108581581112
8.330744000000001,6.201483634036303,0.10508460630419833
8.33314,6.209401385081223,0.1048174280834583
8.335528,6.217319136126141,0.10455056638316798
8.337908,6.224026182357562,0.10430681063409264
8.340304,6.234085803775759,0.1040049575581721
8.342692,6.246566834820953,0.10365620751739038
8.345072,6.261329505866284,0.10326802410661996
8.347476,6.268223543552809,0.10297035744685748
8.349864,6.268319883067164,0.10274447811031844
8.352244,6.2720483370220155,0.10244612761412361
8.35464,6.2751251646708095,0.10214031548175317
8.357028,6.2726149989609326,0.10188304990257865
8.359412,6.2691736676912795,0.10163392694083224
8.361808,6.267594667541182,0.1013681751646904
8.364196,6.259869595524973,0.10118388333175908
8.366592,6.251073588322126,0.10101553863720208
8.368988,6.237621753320388,0.10088729075032184
8.371376,6.217372220146482,0.1008317371883615
8.373756,6.194329190293238,0.10080036331800096
8.376152000000001,6.16863243338752,0.1007856629735079
8.378540000000001,6.139722870921888,0.10081726639825572
8.380924,6.1141658836430315,0.10079224988102312
8.38332,6.091030305991172,0.10071696145202769
8.385704,6.071619390578427,0.10060912341304698
8.388084000000001,6.05355894960604,0.10046817129850123
8.390484,6.029072897513822,0.10042140739944316
8.392872,6.003515910234965,0.10038857893742427
8.395252000000001,5.981963124448941,0.10030879028323722
8.397652,5.968698280902306,0.10011740892438878
8.40004,5.949007826235839,0.1000208232444802
8.402420000000001,5.928246436382734,0.09993937321905694
8.404816,5.912699952835962,0.09978510300650885
8.407204,5.896222303729411,0.09963809057430184
8.409588,5.877090927570385,0.09950603630424894
8.411984,5.861032587344415,0.09933323002106356
8.414372,5.843111915998889,0.09917567988709715
8.416756,5.8229096046532245,0.09905849063879404
8.419152,5.812997336293365,0.09880105400637658
8.42154,5.807740895732397,0.09850271005469419
8.423932,5.803415620731207,0.09819418478989682
8.426328,5.797088244983601,0.09790871735741123
8.428712,5.790621099609134,0.0976314131406304
8.431092,5.780941148674752,0.09740306012108592
8.433484,5.767024678822059,0.09718888710344738
8.435872,5.749755633782589,0.09703033374979948
8.438264,5.7383531213555115,0.0968072445319749
8.44066,5.723086177062459,0.09662347497558359
8.443044,5.70595690164985,0.09645484578849306
8.44544,5.684543885490687,0.09635014119513989
8.447832,5.6683457756378575,0.09617161087570893
8.45022,5.653078831344805,0.09598405633209395
8.4526,5.639394678917588,0.09579664884466352
8.454992,5.627852396863649,0.09557553544055913
8.45738,5.618032676302406,0.09534621712317075
8.459776,5.609144121300943,0.09510905494981284
8.462172,5.600395335926339,0.09486200415458805
8.464556,5.5927174857383735,0.09459638443088286
8.466936,5.574609822937743,0.09447696832721693
8.469332,5.5541279723383585,0.09435344399439663
8.47172,5.5344375176718925,0.09423008522044035
8.4741,5.517168472632424,0.09405590823779694
8.476492,5.500178966846675,0.09386281811598524
8.47888,5.482118525874289,0.09368510680313721
8.481276000000001,5.465640876767738,0.09350763211953846
8.483672,5.449302997288046,0.09332053846720417
8.486056,5.433524196315798,0.0930978408885301
8.488436,5.423751697582798,0.09280252107241199
8.49084,5.414770594782716,0.09250692521965653
8.493228,5.406860427169274,0.09219363935426847
8.495608,5.400812590675388,0.09186597962179667
8.498004,5.3938335886217255,0.09154431710603686
8.500392,5.383269693955808,0.09124345154122934
8.502772,5.371355324849531,0.09097505998680457
8.505168,5.357438854996838,0.09072905744910534
8.507552,5.342730989211226,0.0904810885178848
8.509948,5.327743584171895,0.0902488822585851
8.512352,5.319973186185312,0.08992257859511361
8.514736000000001,5.321142356744176,0.08949555617542877
8.517116,5.321612679168738,0.0891111176418054
8.519512,5.327158138272772,0.08866839341843326
8.5219,5.335357324429281,0.08821588589669702
8.524280000000001,5.338573921704934,0.08786554288014573
8.526676,5.3428614541672275,0.08749805423833532
8.52906,5.349011317749078,0.08711743959825315
8.531456,5.361027713943316,0.08668173756437704
8.533852,5.371693635697197,0.08628132974780803
8.53624,5.381148852637579,0.085908376152943
8.53862,5.390883608831681,0.08551791943691707
8.541016,5.398476494652506,0.08515487418724736
8.543404,5.404067279726914,0.0848155134099374
8.545784,5.414313892600215,0.08444613379653519
8.548188,5.424280966219794,0.08409176536752158
8.550572,5.436250140585792,0.0837171420334906
8.552956,5.4503611853250655,0.08331259503584026
8.555352000000001,5.4634012948777,0.08292350852003912
8.557736,5.478443505176752,0.08251281991171223
8.560116,5.485849399542475,0.0822148295084943
8.562520000000001,5.493255293908197,0.08192151240567751
8.564908,5.502803058647195,0.08160022769502323
8.567288,5.5075552259604414,0.08131897270838674
8.569684,5.509234357340634,0.08107197039642611
8.572072,5.518689574281016,0.08071135712826875
8.574456,5.5301468919678145,0.08033265680335092
8.576848,5.5405332744679745,0.07996915823822132
8.579236,5.543842419542246,0.0796775200910977
8.581632,5.5471515646165175,0.0793863701737777
8.584036000000001,5.545525342638175,0.07913679805971577
