Time,Force,Position
7.050652,0.3314340590491006,0.0
7.053032,0.3282212534891851,0.0
7.055439999999999,0.32486867830240923,0.0
7.057827999999999,0.31909469348863595,0.0
7.060207999999999,0.30559184494291564,0.0
7.062603999999999,0.28943526934472064,0.0
7.064991999999998,0.27248729781360753,0.0
7.067375999999999,0.254608160722716,0.0
7.06978,0.24008159881860042,0.0
7.072168,0.22155083542165108,0.0
7.074551999999999,0.2022286760917836,0.0
7.076948,0.1855602438143909,0.0
7.079331999999999,0.17396694821647044,0.0
7.081716,0.17038205560421738,0.0
7.084119999999999,0.1660057670590462,0.0
7.086504,0.15962737776745814,0.0
7.088883999999998,0.15525108922228698,0.0
7.091287999999999,0.15194573586375432,0.0
7.093675999999999,0.15185318806513723,0.0
7.096055999999999,0.14933923063952273,0.0
7.098452,0.1489671435871852,0.0
7.100843999999999,0.14952622209462607,0.0
7.103223999999999,0.15236694060220418,0.0
7.10562,0.1561388246695606,0.0
7.108008,0.1616332702296135,0.0
7.110387999999999,0.16763957246886405,0.0
7.112784,0.17457704026789295,0.0
7.115171999999999,0.17965217694736518,0.0
7.117552,0.18351660881333864,0.0
7.119947999999999,0.19059384623922776,0.0
7.122335999999999,0.19431850847834103,0.0
7.124715999999999,0.19352711254542293,0.0
7.12712,0.18873151511967107,0.0
7.129508,0.17792961545466873,0.0
7.131891999999999,0.16577724134930744,0.0
7.134288,0.15627859429642088,0.0
7.136676,0.14771111280331267,0.0
7.139059999999999,0.14808319985565013,0.0
7.141456,0.1443113157882937,0.0
7.143844,0.14803597802740698,0.0
7.146227999999999,0.14868760433346484,0.0
7.148624,0.14561456840040946,0.0
7.151015999999999,0.13946849653429869,0.0
7.153395999999999,0.13066869761571315,0.0
7.155792,0.12200866832398784,0.0
7.158183999999999,0.1154905094055396,0.0
7.160563999999999,0.11190561679328655,0.0
7.16296,0.10990351604686968,0.0
7.165351999999999,0.10669071048695407,0.0
7.167727999999999,0.10212743048667954,0.0
7.170131999999999,0.09891462492676395,0.0
7.172516,0.10249951753901704,0.0
7.174895999999999,0.10929721571118567,0.0
7.177299999999999,0.11702607944313266,0.0
7.179684,0.12289261205552299,0.0
7.182063999999999,0.12903868392163378,0.0
7.184467999999999,0.1313203239217711,0.0
7.186852,0.12559356093624097,0.0
7.189235999999999,0.12079796351048913,0.0
7.191635999999999,0.11092722940526509,0.0
7.19402,0.10492092716601452,0.0
7.196399999999999,0.10170812160609892,0.0
7.198796,0.10035764716573997,0.0
7.201179999999999,0.1020802086584364,0.0
7.20356,0.10487370533777135,0.0
7.205964,0.10394253977799303,0.0
7.208352,0.09900717272538101,0.0
7.210731999999998,0.09942648160596164,0.0
7.213127999999999,0.10226720011353976,0.0
7.215511999999999,0.10832072418103347,0.0
7.217891999999999,0.11330331306188865,0.0
7.220303999999999,0.11335053489013178,0.0
7.222691999999999,0.11297844783779432,0.0
7.225071999999999,0.11675033190515074,0.0
7.227475999999999,0.12466618709220109,0.0
7.229859999999999,0.13044017190597437,0.0
7.232239999999999,0.14007858858572114,0.0
7.234643999999999,0.15064817082524623,0.0
7.237031999999999,0.16228868825140985,0.0
7.239412,0.17364966642385307,0.0
7.241807999999999,0.18435901829023837,0.0
7.244195999999999,0.19106416866378997,0.0
7.246575999999999,0.19683815347756325,0.0
7.248975999999999,0.2011218942241174,0.0
7.251363999999999,0.20233259903761608,0.0
7.253743999999999,0.21020123239642327,0.0
7.2561399999999985,0.2230052328078425,0.0
7.258528,0.22966316135315096,0.0
7.260907999999999,0.23725225545823775,0.0
7.263311999999999,0.23669317695079692,0.0
7.265695999999998,0.23599432881649585,0.0
7.268075999999999,0.23408477586869614,0.0
7.270467999999999,0.23231499254775656,0.0
7.272855999999999,0.22854310848040013,0.0
7.275236,0.22076702292021,0.0
7.277652,0.2140618725466584,0.0
7.28004,0.20535462142668992,0.0
7.28242,0.19771830549336003,0.0
7.284815999999999,0.19194432067958672,0.0
7.287199999999999,0.18966268067944947,0.0
7.289579999999999,0.18617033586581344,0.0
7.291983999999999,0.18775312773164965,0.0
7.294367999999999,0.18919614997062567,0.0
7.296747999999999,0.1898477762766836,0.0
7.299151999999999,0.19236173370229812,0.0
7.301539999999999,0.19101125926193918,0.0
7.30392,0.18765868407516334,0.0
7.306324,0.18831031038122123,0.0
7.308712,0.18346749112722624,0.0
7.311088,0.18877494523217575,0.0
7.313483999999999,0.19422216896398542,0.0
7.315871999999999,0.2019510326959324,0.0
7.318256,0.2067466301216842,0.0
7.320651999999999,0.20446499012154695,0.0
7.323039999999999,0.20283497642746756,0.0
7.325419999999999,0.2012049627333882,0.0
7.327824,0.20371892015900273,0.0
7.330211999999999,0.20623287758461728,0.0
7.332592,0.20595333833089685,0.0
7.3349959999999985,0.19924818795734525,0.0
7.337383999999998,0.19254303758379362,0.0
7.339763999999999,0.1859776568371022,0.0
7.342167999999999,0.17969181534413126,0.0
7.344551999999998,0.1736855131048807,0.0
7.346931999999999,0.16996085086576745,0.0
7.349328,0.16530502306687586,0.0
7.351716,0.15878686414842763,0.0
7.354095999999998,0.1504063741104228,0.0
7.356496,0.14658916407269243,0.0
7.358879999999999,0.13462378142243445,0.0
7.36126,0.12652283063814998,0.0
7.363659999999999,0.11907350615992342,0.0
7.366043999999999,0.1125553472414752,0.0
7.36844,0.11697885761488953,0.0
7.370844,0.12526679985427736,0.0
7.373232,0.13420636839972305,0.0
7.3756119999999985,0.13886219619861467,0.0
7.378012,0.14230731918400752,0.0
7.3804,0.1464040684754583,0.0
7.382779999999999,0.15916084705863437,0.0
7.385175999999999,0.17149831676122979,0.0
7.387563999999999,0.17820157127691214,0.0
7.389944,0.1842059776582935,0.0
7.392347999999998,0.19323619814448703,0.0
7.394731999999999,0.19956546974996267,0.0
7.397112,0.20920009471397097,0.0
7.399515999999998,0.2192068067303167,0.0
7.401904,0.22916629691841933,0.0
7.404283999999999,0.2381473997185005,0.0
7.406687999999999,0.2515047910637528,0.0
7.409075999999999,0.26216123352828724,0.0
7.411451999999999,0.27426069823179766,0.0
7.413848,0.28966551629384074,0.0
7.416231999999999,0.3012984502885274,0.0
7.418611999999999,0.3115809098428551,0.0
7.421007999999999,0.32558803163629607,0.0
7.423392,0.34103817566871303,0.0
7.4257719999999985,0.3617957738060795,0.0
7.428163999999999,0.3858587253019786,0.0
7.430551999999999,0.4068486408648224,0.0
7.432931999999999,0.4314234490399193,0.0
7.435343999999999,0.4615852505736861,0.007032494394392012
7.437728,0.49454054878678777,0.014015857524987636
7.440107999999999,0.5267044510669714,0.020988631753002245
7.442511999999999,0.563803720399767,0.02764393281280971
7.444896,0.5998320545459241,0.03435025948273943
7.447275999999999,0.6385141157445561,0.04107888920281548
7.449667999999999,0.6782671121298264,0.04790215156003337
7.452055999999999,0.720953374821292,0.05462469536743493
7.454431999999999,0.7665729038189526,0.06115111115075314
7.456847999999999,0.8121924328166134,0.06782597374805398
7.459235999999999,0.8579517314411342,0.07443872090189717
7.461611999999999,0.9038507996925155,0.08099374630821787
7.464015999999999,0.9508208031305352,0.0875327273629781
7.466403999999999,0.9979305761954148,0.09407391418152447
7.468783999999999,1.038894277394184,0.1008989434918372
7.471188,1.0838621800857868,0.1075516966211727
7.473571999999999,1.126176355724915,0.11420434278908731
7.475951999999999,1.1670475091250672,0.12082230492532806
7.478347999999999,1.2059165617788021,0.12757935733624243
7.480732,1.2412007218202843,0.13444208248998055
7.483111999999998,1.278114895555846,0.13406193681083098
7.485507999999999,1.3163795437317665,0.1335710871250006
7.487891999999999,1.3537130263479087,0.13313936771259485
7.490271999999999,1.3881132426578557,0.13302693254608364
7.492687999999999,1.4215822934080242,0.13294154918734033
7.495071999999999,1.4556104226656337,0.13272928150846622
7.497451999999999,1.492199731177101,0.13225443769912462
7.499848,1.5241332118896764,0.132036830688696
7.502231999999999,1.550200159989862,0.1322070821235626
7.504612,1.579479913649963,0.1321119177265151
7.507028,1.6058264010038685,0.13219427117677557
7.509416,1.631241722797996,0.13233359970902134
7.511795999999999,1.656936583845844,0.13241835363410906
7.514199999999999,1.6824916752668313,0.13252859298095984
7.516584,1.7135412122478717,0.13219670346931625
7.518963999999999,1.7399349214300206,0.13211583938822985
7.521355999999999,1.7644662994926124,0.13211449692541385
7.523743999999999,1.7860644112490096,0.1322691440858397
7.526123999999999,1.806731357445628,0.1324371234763255
7.528528,1.8281896995751648,0.13256650092622344
7.530915999999999,1.8442933657715088,0.13309235925770418
7.533291999999999,1.858255161594576,0.13377012023178964
7.535687999999999,1.8742190581640599,0.13431953274688502
7.538072,1.8892517891737657,0.13490457497858155
7.540451999999998,1.9073575561165268,0.13529309656527688
7.542867999999999,1.922250517499372,0.1358911085891608
7.545255999999998,1.9337909036954415,0.13671947515650062
7.547635999999999,1.9494752610112052,0.13729052231147298
7.550039999999999,1.9683724238868843,0.13763887704446112
7.5524239999999985,1.9834051548965899,0.13817993299273726
7.554803999999999,2.001650691466211,0.13850966404021667
7.557207999999999,2.020967163222471,0.13877270323828167
7.559595999999999,2.0341375631126195,0.1393726785186633
7.561976,2.046656336696711,0.1399536255800188
7.56438,2.052889268787831,0.14090543430885075
7.566768,2.063126402371785,0.14163246993440662
7.569147999999998,2.0762968022619344,0.1422068572419717
7.571543999999999,2.092260698831418,0.1426526076604362
7.573927999999999,2.1160932287597087,0.1427072303764377
7.576307999999999,2.141136463501499,0.14266881042870147
7.578699999999999,2.169532273430064,0.14239731159756377
7.581087999999999,2.1939238818657962,0.1423136603846299
7.583468,2.2161736199282513,0.1423628086438494
7.5858599999999985,2.23507078280393,0.14260888699708177
7.588243999999999,2.2522453841869132,0.14291912069199406
7.590624,2.271422086316312,0.14311647020868953
7.5930399999999985,2.290738558072572,0.14328100563173515
7.595423999999999,2.306702454642056,0.14365889074081578
7.597804,2.3237372863981784,0.14397613033924325
7.6002079999999985,2.3446365500202746,0.14411563721455908
7.602595999999998,2.3644648784557316,0.14432313483130302
7.604975999999999,2.3804287750252158,0.1446971139681229
7.607367999999999,2.4038892179011695,0.14464448744478856
7.609755999999999,2.428280826336901,0.14455718391147326
7.612152,2.460820607385161,0.1440663095135103
7.6145559999999985,2.488285251753948,0.14383039962126673
7.61694,2.5126768601896803,0.143746544959772
7.61932,2.5358577638119137,0.14373655080034345
7.621723999999999,2.553311904448617,0.14397218465244596
7.624108,2.572907915458597,0.1441069149057866
7.626487999999998,2.592224387214857,0.14428416313796977
7.628891999999999,2.6156848300908107,0.14425844911625046
7.631276,2.6395645818473445,0.14416840745660972
7.633655999999998,2.668147383231014,0.14378510455802562
7.636051999999999,2.6935173790547666,0.14355924078380614
7.638439999999999,2.7190271445053806,0.14331862854533384
7.64082,2.7428143484632974,0.1431151780820251
7.643215999999999,2.770885293167769,0.14269923692890052
7.6456,2.795883201939185,0.14242905954688567
7.647979999999999,2.8190187795910444,0.14223871092928347
7.650387999999999,2.8410834220562653,0.14210102497890775
7.652771999999999,2.8678038923203775,0.14180352272586325
7.655151999999999,2.8918234137037717,0.14169730073689746
7.657556,2.915842935087167,0.14159612014565395
7.659943999999999,2.931854053484894,0.14181136230694605
7.662324,2.950658668561956,0.1419301969800471
7.664724,2.973327715504991,0.14190950937356242
7.667111999999999,3.0024223735678577,0.14162071264424891
7.669487999999999,3.032168657936783,0.14133862682729714
7.671883999999999,3.0582828278652108,0.14125411034409024
7.674271999999998,3.086119559286336,0.1411365299681627
7.676655999999999,3.11353698182688,0.14107053269242464
7.679055999999999,3.1421178873526796,0.14103472366206618
7.681443999999999,3.171070879930817,0.14104566126845447
7.683823999999999,3.2064022618005428,0.1408855601857208
7.686228,3.2441078314690213,0.14070638509936212
7.688611999999999,3.2889831863620076,0.14036297492638275
7.690992,3.332508066814635,0.14011097256539062
7.693396,3.3793383006257947,0.13980277122010906
7.695779999999999,3.425749225556373,0.13954269562002988
7.69816,3.4743945686588464,0.1392688512626688
7.700564,3.520618502134322,0.13910756935702623
7.702952,3.5676338315427154,0.13893263993105323
7.705328,3.6163245006155624,0.1388068585844472
7.707732,3.670834480472556,0.13857015095013991
7.71012,3.7277186481283042,0.13830979388747294
7.712499999999999,3.7839039676497515,0.13813128454401397
7.714903999999999,3.8346873894097633,0.13823168538587102
7.717291999999999,3.8866342941550305,0.1383503315618452
7.719671999999999,3.943609113751527,0.1383831805875737
7.722075999999999,3.9998850852137218,0.13848418107244126
7.724459999999999,4.063330841900423,0.13845208656895613
7.726839999999999,4.130361491199377,0.1383555475559178
7.729244,4.199207249789644,0.13828822942792895
7.731631999999999,4.265631598752915,0.13831792661002448
7.734007999999999,4.332288265141663,0.13839464108535351
7.7364039999999985,4.399177248955889,0.13853040826281482
7.738791999999998,4.469743673180983,0.13865835930631812
7.741171999999999,4.541194041137613,0.13882404821362151
7.743563999999999,4.6171132454380315,0.13896720662581677
7.745951999999999,4.6969894294030405,0.13907793320974207
7.748331999999999,4.783616089711975,0.13910178357008057
7.750736,4.876993226364835,0.1390519665538047
7.753119999999999,4.970882219696893,0.13900673444998962
7.7555,5.071940998253457,0.13886709576907297
7.757904,5.1776083827806705,0.13871409400304033
7.760292,5.290026243651808,0.1384962864079698
7.7626719999999985,5.411615990493869,0.13814031507792401
7.765075999999999,5.5380938825603,0.13774448116235516
7.76746,5.667225501679207,0.1373337212179546
7.7698399999999985,5.800453870089564,0.13688905547782806
7.772231999999999,5.928979188872787,0.13658544329190903
7.774619999999999,6.058528221014405,0.13632364939792058
7.776999999999999,6.191801915395136,0.13601670896450588
7.779395999999998,6.32866050238812,0.13566722284798216
7.781784,6.464587923821325,0.13532981548057724
7.784163999999999,6.593577877455504,0.13510241785883254
7.786567999999999,6.721264578477565,0.13487723511783714
7.788952,6.8508608324474265,0.13458586626240837
7.791331999999999,6.9786419771259744,0.1342810983161814
7.793728,7.102605911766792,0.13399779280665036
7.796116,7.221030074877183,0.13375281911681744
7.798496,7.33177259608387,0.13358360846773581
7.800908,7.442330021693324,0.13334929609727267
7.803296,7.538827416107484,0.13325639460289024
7.805671999999999,7.626898994513266,0.13319447489220168
7.808067999999999,7.704542656164253,0.13319262414938257
7.8104559999999985,7.7688251347542465,0.13328817667101753
7.8128319999999984,7.825892502149362,0.1333851272872403
7.815227999999999,7.8773275502154325,0.1334789888008825
7.817615999999999,7.925272149325735,0.13353356981646725
7.819996,7.970797234666911,0.13352901450748386
7.822387999999998,8.010969539932765,0.1335057240376571
7.824771999999999,8.042855798817097,0.1335008350359252
7.827152,8.069761364678445,0.13349338838823804
7.829547999999999,8.094479734196142,0.13345275071972862
7.831931999999998,8.122877439982574,0.13330597950601383
7.834311999999999,8.144524669425085,0.13320480631336018
7.8367239999999985,8.160771896964029,0.13312139904465128
7.839112,8.17427284965188,0.1330322390148878
7.841488,8.183304965995942,0.1329491388346245
7.843888,8.188519872302276,0.1328752846842339
7.846271999999999,8.192059438944153,0.1327786663411052
7.848651999999999,8.191222717040862,0.13271746847420002
7.851068,8.19830185032462,0.13252542836766956
7.853455999999999,8.20594006211582,0.1323079323508785
7.855836,8.215999683534015,0.13204599140386705
7.8582519999999985,8.229411880138988,0.13172865511660184
7.860635999999999,8.242032680811043,0.1314144089803432
7.863016,8.249997653684206,0.13114797793571015
7.865416,8.252235863571839,0.13094534539512098
7.867804,8.251820346406996,0.13076474588568632
7.870196,8.249542498122597,0.1306031481220505
7.872591999999999,8.24633348427842,0.1304505916356852
7.874979999999999,8.240330973754908,0.13032627881952105
7.877359999999999,8.229812405059365,0.13024271052761172
7.879764,8.218921749311484,0.1301423756921249
7.882152,8.213944848004237,0.12993800184336513
7.884532,8.20896794669699,0.12973361280744627
7.886935999999999,8.20054592240435,0.1295530805601257
7.8893239999999984,8.194125998858125,0.12934729816252497
7.891703999999999,8.188125384192482,0.12912158621595804
7.894107999999999,8.181333373593922,0.1288981427027942
7.896495999999999,8.174169275943024,0.1286576538976723
7.898876,8.160067710493095,0.12850104094915646
7.901271999999999,8.144243583550471,0.12835579692954388
7.903656,8.1219012976894,0.12827482901044734
7.9060359999999985,8.097836450335631,0.128205072169633
7.908439999999999,8.071909271862307,0.12815396290273637
7.910827999999999,8.044911158202343,0.12811991070859108
7.913207999999999,8.021265619729155,0.1280309241449537
7.915611999999999,7.995757750136411,0.1279609299393954
7.917999999999999,7.964662887184996,0.12794986230059388
7.92038,7.933288484979862,0.12795261042757022
7.922775999999999,7.903404326841945,0.12791837880778592
7.925163999999999,7.878595305383502,0.12781466239718173
7.927543999999999,7.84684881612603,0.1277983422323179
7.929939999999998,7.805883219069392,0.12790900648689218
7.932328,7.764405765333556,0.12800714519818937
7.934707999999999,7.724790642717276,0.12808610419248528
7.937104,7.6833131889814394,0.12818351037955905
7.939491999999999,7.644629231924939,0.128249529276528
7.941872,7.607947375614854,0.12828819671326488
7.944275999999999,7.5716376063571085,0.1283438756534272
7.94666,7.535327837099361,0.12840139141150822
7.949039999999998,7.501671794894089,0.12843484883657713
7.951443999999999,7.473602746047487,0.12841071651754432
7.9538319999999985,7.445254157947164,0.12840018218843652
7.956211999999999,7.41797650503348,0.12837335941634798
7.958611999999999,7.395913758426128,0.12826895955498988
7.960996,7.369567271072222,0.12823154165725098
7.963379999999999,7.34694544595743,0.12815415572114328
7.965776,7.329770844574448,0.12802430860994665
7.968159999999999,7.3158090487513805,0.12784245058855892
7.97054,7.304221440727067,0.12765113551226615
7.972939999999999,7.290352192702618,0.1275001187456309
7.975323999999999,7.280207606917282,0.12730866972552893
7.977708,7.273787683371058,0.12707553463106339
7.980103999999999,7.260802379078143,0.1269534259986971
7.982488,7.244744038852174,0.1268769463080862
7.984867999999999,7.228545928999342,0.12680757395058112
7.987264,7.207132912840179,0.12682010460338303
7.989651999999999,7.185580127054155,0.12683839226162388
7.992032,7.163096175708353,0.12686778672267496
7.994427999999999,7.14033268510883,0.12691378498925343
7.996815999999999,7.114356388949392,0.12701371440842646
7.999195999999999,7.088891949469152,0.12712381758843297
8.001588,7.064218905921829,0.12723140362211555
8.003976,7.043130754986761,0.12730259348413286
8.006355999999998,7.018550259238055,0.12744174147241177
8.008771999999999,6.996483720914964,0.1275664786733817
8.011156,6.971995772964877,0.12774313515347185
8.013535999999998,6.953514127254039,0.12783021301294945
8.015951999999999,6.933402467849123,0.12796374463743895
8.018336,6.908355441391594,0.1281646616375684
8.020715999999998,6.882889106053484,0.1283888483671431
8.023119999999999,6.857934627394571,0.12862513244046012
8.025507999999999,6.836565041347913,0.12882626397330493
8.027892,6.827068290152894,0.12886393177819144
8.030287999999999,6.823018762689687,0.1288455792923261
8.032675999999999,6.821343423025235,0.12881771783566107
8.035055999999999,6.827117407839006,0.12870470757516772
8.037455999999999,6.829119508585421,0.12867571224391192
8.03984,6.83577743713073,0.12859339615094414
8.042224,6.849233063848207,0.12842201584488913
8.044619999999998,6.864411252058382,0.12823565180750562
8.047008,6.880520605828334,0.1280400992466202
8.049387999999999,6.899283686650759,0.12782092904955766
8.051787999999998,6.9165565234059665,0.12764369106123244
