Time,Force,Position
7.139604,0.12388637610416393,0.0
7.141947999999999,0.13580209918159686,0.0
7.144292,0.15065108856522494,0.0
7.146628,0.16550007794885302,0.0
7.148971999999999,0.17741580102628593,0.0
7.15132,0.18919175447685863,0.0
7.153668,0.19617211050167951,0.0
7.156015999999999,0.19701072826284077,0.0
7.158356,0.1969181804642237,0.0
7.160696,0.1948235319191898,0.0
7.163039999999999,0.19822332893420877,0.0
7.165388,0.19962102520281086,0.0
7.16774,0.20036709516535509,0.0
7.170083999999999,0.19790035956798369,0.0
7.172428,0.19515408471689188,0.0
7.174771999999999,0.183980097999552,0.0
7.177123999999999,0.1680601734292854,0.0
7.179459999999999,0.15214024885901878,0.0
7.181811999999999,0.13514938910211363,0.0
7.184156,0.12030039971848558,0.0
7.186491999999999,0.10652234552149603,0.0
7.188832,0.09460662244406312,0.0
7.1911760000000005,0.07975763306043504,0.0
7.193515999999999,0.06490864367680693,0.0
7.19586,0.052992920599374035,0.0
7.1982040000000005,0.04121696714880134,0.0
7.200552,0.03423661112398045,0.0
7.202888,0.03279358888500444,0.0
7.205231999999999,0.03414406332536339,0.0
7.20758,0.03442360257908381,0.0
7.209916,0.029628005153332,0.0
7.212259999999999,0.024370210621207544,0.0
7.214599999999999,0.017901711275584348,0.0
7.216948,0.012364377489739474,0.0
7.219284,0.008220406370045561,0.0
7.221627999999999,0.007758209263672919,0.0
7.223967999999999,0.008592493422383041,0.0
7.226303999999999,0.00859249342238304,0.0
7.22864,0.011568647954370223,0.0
7.230983999999999,0.015475968046135723,0.0
7.233335999999999,0.020454223324539757,0.0
7.235671999999999,0.02743457934936064,0.0
7.238016,0.03213329537404425,0.0
7.240364,0.03590084583894955,0.0
7.242699999999999,0.04381236742354874,0.0
7.245039999999999,0.053865759381425016,0.0
7.247384,0.06499008652593981,0.0
7.249732,0.0736501158176651,0.0
7.252067999999999,0.08151874917647231,0.0
7.254412,0.09031854809505782,0.0
7.25676,0.09790764220014461,0.0
7.259103999999999,0.10796103415802089,0.0
7.261448,0.11694349092925861,0.0
7.263792,0.12299268139430115,0.0
7.266131999999999,0.1276485091931928,0.0
7.268471999999999,0.135560030777792,0.0
7.270816,0.14170610264390276,0.0
7.273156,0.14761552348208512,0.0
7.275504,0.14961762422850197,0.0
7.277847999999999,0.15283042978841757,0.0
7.280187999999999,0.15297019941527779,0.0
7.282532,0.1491057675493043,0.0
7.284875999999999,0.1508755508702439,0.0
7.287215999999999,0.15543883087051844,0.0
7.28956,0.15478720456446052,0.0
7.2919,0.15171416863140513,0.0
7.294248,0.14635949269821247,0.0
7.296588,0.14193598232479812,0.0
7.298931999999999,0.134159896764608,0.0
7.301276,0.12889776863003238,0.0
7.303623999999999,0.12964194273470733,0.0
7.305968,0.12824424646610524,0.0
7.308311999999999,0.12856911169019955,0.0
7.310651999999999,0.13448097027296382,0.0
7.312996,0.14504865665461966,0.0
7.315339999999999,0.1553368037825551,0.0
7.317675999999999,0.16720774277632677,0.0
7.320024,0.18052170400907444,0.0
7.322367999999999,0.19327658673438125,0.0
7.324712,0.20440145576560867,0.0
7.327055999999999,0.22083377890178563,0.0
7.3294,0.24257355614291207,0.0
7.331744,0.25998237080924125,0.0
7.334083999999999,0.2759009414083513,0.0
7.336432,0.2934023038732975,0.0
7.33878,0.3126262278309402,0.0
7.341111999999999,0.3343641092141974,0.0
7.343456,0.35633430802293187,0.0
7.345799999999999,0.38403126981719643,0.0
7.348139999999999,0.4106572964248225,0.0
7.350476,0.4375156404579259,0.0
7.352879999999999,0.4646063019165066,0.0
7.355264,0.49327975524092343,0.0
7.357652,0.515527597445509,0.0
7.360047999999999,0.5344228644633189,0.0
7.362432,0.5508967218541313,0.0
7.364815999999999,0.5692329103645003,0.0
7.367212,0.5877088685017295,0.0
7.3696,0.6100492585049322,0.0
7.371983999999999,0.6321101092544146,0.0
7.374388,0.6503065281379233,0.0
7.376775999999999,0.6655696807152369,0.0
7.379159999999999,0.6833940125464084,0.008037676665442004
7.381556,0.7024290491910784,0.015963567297355062
7.383939999999999,0.7222554817686666,0.023911243010865828
7.386327999999999,0.7440840150926716,0.031545978830503675
7.388728,0.7661920876703971,0.039096047253719075
7.391116,0.7919322746886188,0.04628635879142515
7.393504,0.8127370946542283,0.05377208308985935
7.395899999999999,0.8336816842466983,0.06118360261595279
7.398287999999999,0.8527639427196114,0.0686251151982608
7.400672,0.873476214886604,0.07594895233022464
7.403067999999999,0.8935368607475388,0.08320889136799176
7.405455999999999,0.9210940529149432,0.09017564531926651
7.40784,0.9502812587764269,0.097008678516911
7.410235999999999,0.9800275431453516,0.10381895554916584
7.412623999999999,1.0057696260214426,0.11086363455199673
7.415011999999999,1.034584744830589,0.11768860514260664
7.417408,1.0626084677068168,0.12447070859458373
7.419791999999999,1.0890493987172087,0.1314333779433048
7.422179999999999,1.1159096386081817,0.13843631144853186
7.424576,1.144120352939513,0.14535306973933101
7.426964,1.1715396713379267,0.14420998431918333
7.429347999999999,1.1969568889899236,0.14329537905070522
7.431744,1.2199999188431658,0.14246226064362577
7.434132,1.2363850201510993,0.14227250046879603
7.43652,1.2499766247796982,0.14232875157522495
7.438912,1.2575619271690464,0.14304044880831993
7.4413,1.2705019054915874,0.14309690070055345
7.443683999999999,1.2815795526945715,0.14331321393302524
7.446083999999999,1.294147443964775,0.14328246841260261
7.448468,1.3056444000483398,0.1433814847854594
7.450856,1.3154187946392084,0.14358489415305153
7.453251999999999,1.325053419603217,0.14385579517364927
7.455636,1.3322666349402277,0.14441401643956125
7.458024,1.3405507854638772,0.1448670916227404
7.460419999999999,1.3531186767340806,0.1449057428054463
7.462807999999999,1.3590286394589755,0.1454193449488023
7.465192,1.363076271064314,0.14605161766211994
7.467592,1.3701969386027075,0.14641401516828717
7.46998,1.3802508724472964,0.1465566098232159
7.472363999999999,1.389373640732107,0.14676325957096972
7.47476,1.395283603457002,0.14725353583772172
7.477148,1.4034752061820346,0.14750633879617517
7.479531999999999,1.4161828670790984,0.14749808295192596
7.481932,1.4308926287225787,0.14728310837452943
7.484316,1.4496065918588927,0.14674202128438815
7.486704,1.4735354613015392,0.14571982190464797
7.489099999999999,1.492389194064714,0.14517119760279
7.491488,1.506307559775276,0.14494672307292866
7.493883999999999,1.5134282273136699,0.14526353517818189
7.496292,1.519897268546006,0.14556826084049979
7.49868,1.5252953745917033,0.1459764566564944
7.501075999999999,1.526037652838509,0.14671992880139556
7.503472,1.5312034414587292,0.14699905151215797
7.50586,1.534087590078812,0.14751644267888958
7.50826,1.5359008035122563,0.14812036114264704
7.510652,1.5426493839983126,0.1483446229399696
7.51304,1.5498172733649496,0.14845820974939358
7.515444,1.55526260123889,0.14866110586922393
7.517847999999999,1.5565639579931363,0.14921105057251224
7.520232,1.5570739188144647,0.14978311539740333
7.522627999999999,1.561076224449429,0.1499960773133416
7.525027999999999,1.5632161989648368,0.15032981841943793
7.527415999999999,1.5609798849350733,0.15088334033373868
7.529819999999999,1.5618166068383652,0.15119061855408536
7.532211999999999,1.5617221631818794,0.1515456993850347
7.534611999999999,1.5565525828459208,0.15227249708130322
7.537008,1.5523141680697405,0.15295536820390362
7.539396,1.5580862570256444,0.15290353353446312
7.541791999999999,1.5686539434073006,0.15250540205927227
7.544188,1.578942090535236,0.1521717977928537
7.546576,1.591232338409588,0.1516718918440672
7.548976,1.607387018149914,0.1509050522691472
7.551371999999999,1.616743999718071,0.15063839976850243
7.55376,1.624518189420392,0.1504061196876982
7.556156,1.6293591128165177,0.150392997022822
7.558551999999999,1.6329893313991446,0.15051213514781814
7.56094,1.6388539681536658,0.15059085038930065
7.563319999999999,1.6433681304678278,0.15082662444268993
7.565716,1.654028364648101,0.15058147446533846
7.568104,1.6661316210673496,0.15032345716333764
7.570487999999999,1.680748834912213,0.14999200191308001
7.572884,1.6966693013691923,0.14967982830252372
7.575272,1.7158951211847042,0.1492494337476669
7.577651999999999,1.7348414017464957,0.14890559821361088
7.580052,1.7484330063750944,0.14896134280694573
7.58244,1.764818107683028,0.14883890013512105
7.584819999999999,1.7850676408569355,0.14848418789315468
7.58722,1.8022441380977874,0.14839087546996993
7.589608,1.823285067204613,0.14810623344924678
7.591984,1.8471194929907733,0.1476871039964647
7.594379999999999,1.870534609896353,0.1473497363947653
7.596764,1.8887348204956003,0.14735189882286154
7.599155999999999,1.9101006148265198,0.14724988584656196
7.601552,1.9377050288221676,0.1468711774088408
7.603935999999999,1.9661008387507333,0.1464403716302581
7.606332,1.997290145358634,0.1458911435795079
7.608723999999999,2.0247547897274214,0.14552840932225813
7.611112,2.0579461970817388,0.14486232063488166
7.613488,2.0827098925698087,0.14476834380417863
7.615891999999999,2.1097552280580154,0.14452953779189276
7.61828,2.1355898587327236,0.14441774167262236
7.620671999999999,2.1617040286611515,0.14425824320762892
7.623068,2.1859558674700237,0.14418549924672475
7.625456,2.210719562958093,0.1441507757910187
7.627836,2.2433518918049695,0.14370265946216143
7.630239999999999,2.2795691132640994,0.1431445145095031
7.632624,2.3127132987901735,0.14277754304941678
7.635004,2.345298405808807,0.1425107812553884
7.637399999999999,2.373460002454026,0.14252562629963086
7.639783999999999,2.401481829472385,0.14257428957907933
7.642168,2.431645526864021,0.14250931218457027
7.644568,2.4686069224278255,0.14215120191022473
7.646955999999999,2.5078499579917675,0.14165901809004605
7.649336,2.5421576265030965,0.1413903581915863
7.651731999999999,2.5791190220669016,0.141035346145776
7.654119999999999,2.6125880728170707,0.14088937058076043
7.656499999999999,2.6507129513661307,0.1405722640951777
7.658899999999999,2.683762693235719,0.14049064163745062
7.661287999999999,2.723889672531196,0.1400733135285367
7.663667999999999,2.75852220626662,0.13994745911201395
7.666072,2.791012869628767,0.13992577376647344
7.66846,2.8210821233639174,0.14003992153315364
7.67084,2.85501580896504,0.14001356191351694
7.673235999999999,2.8862957675136895,0.14005500183572955
7.675623999999999,2.9115694238230865,0.14034492464353698
7.677999999999999,2.9306970082663737,0.14089330514551027
7.680396,2.952198780508415,0.14139749411969804
7.682784,2.9759821927505943,0.14178035859164378
7.685179999999999,2.999765604992773,0.14215239241154107
7.687576,3.0194050461152573,0.14269610326176255
7.689959999999999,3.0376940127973837,0.14332075070454345
7.692344,3.0498369076133987,0.14419426034413382
7.694735999999999,3.0637023639221104,0.1450135710557148
7.697123999999999,3.0806408561638774,0.14570255551749756
7.699515999999999,3.0974395787787845,0.14640033379704198
7.701912,3.1180101854610474,0.14688465130224082
7.7043,3.1344368210236166,0.14752769375318628
7.706683999999999,3.1537967228923804,0.1480615952964197
7.70908,3.173668481440343,0.1486138695006498
7.711463999999999,3.1984756070409173,0.1489873507125433
7.713847999999999,3.225424603014768,0.14926801780592056
7.716248,3.2575885052949514,0.14934382863807474
7.718636,3.285468666828581,0.14959400613381862
7.721015999999999,3.31907559134774,0.1496703182438596
7.723419999999999,3.3573383436657913,0.1496052200384394
7.725804,3.4008160022901746,0.14933271243843793
7.728187999999999,3.4419194731158043,0.14909447222154573
7.73058,3.4796703687546584,0.14900129223351638
7.732968,3.519423365139929,0.1488369079391043
7.735348,3.56504289413759,0.14847865884417336
7.737743999999999,3.611733358321889,0.1480810743840815
7.740131999999999,3.6642903551185784,0.14749042188894324
7.742528,3.710841049676018,0.1471028706628351
7.744923999999999,3.7566003483005384,0.1467368740030978
7.747311999999999,3.8017080206190013,0.14637089529351616
7.749692,3.8419728736834693,0.14622430037265183
7.752087999999999,3.8842398274943544,0.14600033648286392
7.754472,3.9285088820516556,0.1457269273649978
7.756852,3.967330712877148,0.1455849392579826
7.759255999999999,4.002148342209806,0.14556562996469558
7.76164,4.0378971371022425,0.145530169012488
7.764023999999999,4.068570795315207,0.1456561767647075
7.766427999999999,4.099523992781892,0.14574718322054833
7.768811999999999,4.125402053569104,0.14599721811900457
7.771191999999999,4.151280114356317,0.14624659503234255
7.773595999999999,4.177809801449588,0.1465017852077074
7.775983999999999,4.207644841901391,0.14670688802704138
7.778364,4.241204544592308,0.14682129637903718
7.780768,4.2762072695222,0.14693204701032303
7.783151999999999,4.3099992896385935,0.14709217559169752
7.785536,4.3444429360610455,0.14725618323136555
7.787939999999999,4.376884481737081,0.1474746233405097
7.790324,4.413050689652229,0.14760354360532524
7.792703999999999,4.45117177648555,0.14774463452704745
7.7951,4.488594015184571,0.14794096756255867
7.797483999999999,4.52843766351059,0.1480395068693148
7.799868,4.569492016650107,0.1480934750010494
7.802263999999999,4.604679837177233,0.1482906599621957
7.804648,4.644803024756973,0.14836196010736544
7.807027999999999,4.686136917150209,0.1483805542697603
7.809424,4.7203935721175565,0.14858197300577816
7.811812,4.755721162271543,0.14874442708188898
7.814207999999999,4.792259457239029,0.1488609419125897
7.816604,4.8314987010872334,0.1488653069515415
7.818992,4.865570260457348,0.14895399401986745
7.821372,4.893682739416455,0.14913759580411365
7.823767999999999,4.916115677218276,0.14939191037540153
7.826155999999999,4.934871174609229,0.14966524679566334
7.828536,4.947435274163697,0.1499934285824303
7.830931999999999,4.955530537374373,0.1503482631140157
7.833319999999999,4.960227899427902,0.1506978299228462
7.835699999999999,4.9611080514436985,0.15107755111201565
7.838103999999999,4.96124402935482,0.15140321223747888
7.840487999999999,4.955328379056317,0.15177234023956895
7.842867999999999,4.948296467600802,0.15206438871093075
7.845272,4.94131177797353,0.15229468250833547
7.847655999999999,4.933163605361001,0.15250500515944265
7.850035999999999,4.927856151256052,0.15259881943198053
7.852432,4.918172408605932,0.15276557084293482
7.854816,4.9103982189036115,0.15283398948033966
7.857211999999999,4.911890358828699,0.15260723417939379
7.859615999999999,4.91342972058203,0.15232269208728283
7.862,4.91180349860369,0.15206955866789712
7.864376,4.906732153639956,0.15187007435288652
7.866771999999999,4.907015484609415,0.15152334168917603
7.869156,4.907578354832593,0.1511519599336914
7.871551999999999,4.909212160242408,0.15074842204979239
7.873944,4.906050368226473,0.15044895188211002
7.876332,4.903400432889735,0.15016156978165704
7.878708,4.904475159792112,0.14979585655888344
7.881103999999999,4.9060617433736855,0.14944414622420005
7.883488,4.910302054007735,0.14904421178856764
7.885883999999999,4.913611199082006,0.14866553482087158
7.88828,4.919434301581892,0.14824842491508497
7.890668,4.927491822253672,0.1478201672505975
7.893048,4.933919329231371,0.14746909705155126
7.895451999999999,4.939136131395574,0.14716114476415085
7.897836,4.943142228746277,0.14689588175206275
7.900216,4.947939722029899,0.14662181082065262
7.902607999999999,4.950315805686522,0.14643215824433486
7.904992,4.94798883971601,0.14639624724972092
7.907387999999999,4.946033960797836,0.1463856344199888
7.909784,4.948175831171113,0.14632731385270414
7.912167999999999,4.9529714285968645,0.14622588568722364
7.914548,4.9545542204627,0.14621174801911968
7.916952,4.960653070500568,0.1461197193735614
7.919335999999999,4.971267978710467,0.14595193954235283
7.921716,4.990403146585232,0.1456145587131567
7.924111999999999,5.015265077445526,0.14516321481452804
7.926496,5.037705598678823,0.1447925777827565
7.928891999999999,5.060937515845038,0.1444160148991283
7.931288,5.080956627451337,0.144120677239358
7.933672,5.102278991669752,0.14383535426353258
7.936052,5.126115313313781,0.1435220089532519
7.938456,5.148880699771172,0.14323970751957013
7.94084,5.1728567910420615,0.1429196103474928
7.94322,5.200417774925205,0.14254721464336265
7.945623999999999,5.227699219554627,0.1421942996991447
7.948012,5.258705326423163,0.14177909940813468
7.950388,5.292504929971034,0.14131764534918653
7.952783999999999,5.324022893518768,0.1409167019231328
7.955168,5.35540108743964,0.14052726808840504
7.957564,5.382775079867679,0.14022418659134006
7.959968,5.4066567274820825,0.14002178991850994
7.962351999999999,5.43319210214896,0.13978280808228136
7.964732,5.458516772002341,0.13958520961513646
7.967124,5.479557701109167,0.13949431250160502
7.969512,5.499108386148774,0.1394631048837888
7.971892,5.5175881360017405,0.1394608553488443
7.974288,5.536859281787627,0.13945177123315922
7.976671999999999,5.555850888319794,0.1394618078381346
7.979068,5.582059501904711,0.13931775916611025
7.981463999999999,5.609199281049406,0.13916137439314427
7.983848,5.633685333141624,0.13904208256180003
7.986227999999999,5.66110465154004,0.1388726398273057
7.988624,5.691177696990929,0.13867309034777203
7.991012,5.715244440202568,0.1385886456319571
7.993407999999999,5.7431756152801805,0.13843881652052004
7.995811999999999,5.766450962558902,0.13836263901974247
7.998196,5.788795144277845,0.1383032955935623
8.00058,5.813281196370065,0.13819491960471406
8.002972,5.840700514768479,0.13803772946514065
8.005355999999999,5.875476609846505,0.1377323384043734
8.007736,5.915188071977141,0.13733936104745226
8.01014,5.952757663734502,0.13699545087965187
8.012523999999999,5.9913981906785,0.13663400821730862
8.014904,6.033391292809273,0.1361978466391532
8.017299999999999,6.072870437514432,0.1357868985407018
8.019684,6.10741421516698,0.13546048123473076
8.022076,6.143168697633025,0.1351044958673452
8.024472,6.180925280845486,0.1347152018263453
8.02686,6.216120684804091,0.13440579515433146
8.02924,6.247591426523581,0.1341490571670752
8.031644,6.283066369735906,0.13382759489823062
8.034028,6.313466176268757,0.1335979937802927
8.036408,6.340141320562496,0.13342228609845672
8.038812,6.371379744856509,0.133144121451624
8.041196,6.399964442098048,0.1329001451730164
8.043576,6.432273801578699,0.13260686225619822
8.04598,6.46486270031307,0.1323012642234454
8.048368,6.497870907928024,0.13197257646289232
8.050747999999999,6.531298424423558,0.1316287349329311
8.053139999999999,6.559930343493339,0.1313610374386552
8.055527999999999,6.587119240324144,0.1310976319353759
8.057908,6.612865114915974,0.1308325225641565
8.060312,6.636097032082188,0.13058867462658008
8.062695999999999,6.657746157382568,0.13035549810312716
8.06508,6.681676922683083,0.13007798734294876
8.067484,6.713104234290069,0.12967028290911795
8.069872,6.744019689217857,0.12925418983789216
8.072251999999999,6.772840495600611,0.12883635332724094
8.074656,6.796633387132135,0.12845309507735037
8.07704,6.823918623477297,0.12799975558948912
8.079419999999999,6.8454770968369285,0.1276220382847354
8.081816,6.869736519077277,0.1271766413223591
8.084204,6.892273379824929,0.1267431648326829
8.086584,6.911597435012665,0.12636674192901648
8.088987999999999,6.931201029454122,0.12597730472629565
8.091372,6.948430436096825,0.12560014182377036
8.093752,6.9599330797539976,0.12529389733388466
8.096148,6.970644327478252,0.12499193901134462
8.098536,6.974697646657197,0.12477299875846025
8.100916,6.976888634716587,0.12457541800911731
8.103311999999999,6.972701233484388,0.12444400729539501
8.105699999999999,6.971726637812105,0.12425829528111917
8.108092,6.969820876580043,0.12408297390041907
8.110488,6.964050683482008,0.12395722205952087
8.112872,6.952274188144723,0.12391788818761695
8.115252,6.933560225008409,0.12397367667741381
8.117656,6.914986031498956,0.12402015839072557
8.120044,6.893338802056447,0.12411315769515403
8.122423999999999,6.876906478920269,0.12412309328474658
8.124827999999999,6.858472055037676,0.1241595956215539
8.127212,6.844041832647916,0.12413981547529995
8.129591999999999,6.82639880469824,0.12417286160366868
8.131996,6.8131792871219785,0.1241269659242039
8.13438,6.802381179172715,0.12403072046582163
8.136759999999999,6.79158307122345,0.12393403258019822
8.139164,6.777711927341133,0.12388237822371506
