Time,Force,Position
8.382784,0.704379895492463,0.041811990069376186
8.38518,0.7408766562053131,0.04772025079715685
8.387576,0.7783045824779415,0.053647752924111676
8.389963999999999,0.8061413138990664,0.05990991435404906
8.392344,0.8386810949473259,0.0658240858071864
8.394739999999999,0.870848788943248,0.07172529674872472
8.397127999999999,0.8966380936475822,0.07794974882842054
8.399507999999999,0.9231262464862172,0.08410908680009563
8.401912,0.9524551178324304,0.09031550437195762
8.404295999999999,0.9748465213796147,0.09706155057977842
8.406676,0.9957949026878231,0.1037283462768007
8.409075999999999,1.019164693623029,0.11029460611370773
8.411463999999999,1.0298702537736757,0.1176436875882107
8.413844,1.0359199861254311,0.12538669142038159
8.416248,1.0390364521709912,0.12650357820704644
8.418631999999999,1.032794040790525,0.12034462037376449
8.421016,1.0228269671709453,0.11422439027339719
8.423407999999998,1.0093675487377298,0.1082427478562784
8.425796,0.9876201880651265,0.10271043995228081
8.428175999999999,0.9637309570192458,0.09698808014056397
8.430579999999999,0.9417040570929219,0.09133117792677907
8.432967999999999,0.9254039201521282,0.0854229171989984
8.435348,0.9083123872784163,0.07949541507204357
8.437752,0.8960164518304562,0.07323325364210619
8.440135999999999,0.8802281715688602,0.06731908218896884
8.442516,0.8673731576134592,0.07074667187286737
8.44492,0.8623867770168655,0.07318981006717667
8.447308,0.858843418659248,0.0755270174250421
8.449688,0.8599558881005219,0.0773593205129789
8.452088,0.8712186309007405,0.07809277609233739
8.454471999999999,0.8819222951935182,0.0790071922693577
8.456852,0.8912754850459368,0.08012263679122603
8.459247999999999,0.9092887041900807,0.0803558947782639
8.461635999999999,0.9328889166928943,0.08003302774249052
8.464015999999999,0.9588633169944627,0.07962646635539367
8.466415999999999,0.9907042499084212,0.0870002411181798
8.4688,1.0275730976736088,0.09434607896537021
8.471184,1.0692375428645484,0.10159620227498473
8.47358,1.1135557151079625,0.10896221486577677
8.475968,1.1676048518297404,0.11601055017968932
8.478364,1.2190928092976607,0.12314641336811612
8.48076,1.2681593571385834,0.13036773844945246
8.483144,1.3177377616587043,0.1376414790597777
8.485527999999999,1.3666173180445238,0.14502781582404023
8.487924,1.4169398966693192,0.15244183243483764
8.490312,1.464142217532816,0.15069523123963913
8.492692,1.5083640502618745,0.14969224753609855
8.495087999999999,1.5520268044834922,0.14891037031530485
8.497475999999999,1.5939197753841705,0.14858330771809639
8.499856,1.6306903877771333,0.14897009694711838
8.50226,1.6655514472222963,0.149574774909756
8.504643999999999,1.7027866944662138,0.15006298588481176
8.507024,1.742116590255165,0.1505596526160923
8.509428,1.782749738656232,0.15110905867533958
8.511816,1.8228238085498583,0.15177061359586672
8.514199999999999,1.8677860236678536,0.15226863985100486
8.516596,1.9140514913979647,0.152774059801266
8.518984,1.9604095069266925,0.15339663833473532
8.521363999999998,2.011515898052929,0.15386639640331215
8.52376,2.059362261791007,0.15471667889092744
8.526148,2.10809256926062,0.15559901279345353
8.528528,2.160500317141104,0.1563969574748693
8.530923999999999,2.21444363505918,0.1572372520988568
8.533311999999999,2.2740664941345434,0.1578911941282095
8.535692,2.3352249232474995,0.15858963606348353
8.538088,2.4020628935177424,0.1590867012145336
8.540476,2.4727180738257157,0.15948553534969
8.542872,2.5447690545444224,0.1599335044668212
8.545268,2.6192867708605,0.16039988850156336
8.547656,2.7001356546399227,0.1606818046897995
8.55004,2.7917392162561048,0.16051458494718376
8.552435999999998,2.8847385782830197,0.1604229294024426
8.554824,2.981694919974525,0.1603161697352089
8.557203999999999,3.081537306143982,0.1602458782783233
8.559603999999998,3.1846850456719724,0.16009990341500552
8.561992,3.2864823107596037,0.16008473218470873
8.564371999999999,3.3881398062203743,0.16009179942890975
8.566768,3.49273056798734,0.16001017268306897
8.569156,3.5955987682616097,0.15997781463758148
8.571536,3.6987465077896,0.1598946058615942
8.573932,3.8053865921312253,0.15963829922029268
8.576315999999998,3.9069987616216224,0.15946460270762222
8.578712,4.011870958500179,0.15909770268053408
8.581116,4.111343153475168,0.1588206788327787
8.583504,4.210490483226064,0.15843638862847534
8.585884,4.302794788834415,0.15812982686135293
8.58828,4.395193538099254,0.15772182712569444
8.590663999999999,4.486243708781604,0.15717667243131458
8.593043999999999,4.570730394575132,0.15666748029868935
8.595448,4.649352443614139,0.15615828315874766
8.597836,4.717826115152071,0.1557976322567092
8.600216,4.784299581801456,0.15531808058588806
8.602611999999999,4.840484901322905,0.1549822270476764
8.604999999999999,4.887313239276196,0.15475760363389857
8.60738,4.9225029556611934,0.15470731310890795
8.609776,4.953271057530646,0.15463223517110808
8.612164,4.979338005630834,0.1545531341999211
8.614548,4.9964200592152,0.15460232696208231
8.616943999999998,5.0085214197765815,0.15466916063468836
8.619332,5.017504418434532,0.15471251831087074
8.621723999999999,5.020435788882859,0.1548072250139728
8.624127999999999,5.027977661159704,0.15469115239153147
8.626515999999999,5.028629287465763,0.15469358659590712
8.628896,5.0282572004134245,0.15466862137505857
8.6313,5.022996968136719,0.154707853067839
8.633683999999999,5.021788159181091,0.15458633240448386
8.636064,5.012198860187456,0.15464160824904616
8.638468,5.001957934887766,0.15469237233983707
8.640851999999999,4.9939061017895945,0.15462464455644634
8.643232,4.9853424120122245,0.15454225813859274
8.645639999999998,4.979479671115572,0.1543555868604278
8.648024,4.972034138353083,0.15418442886486844
8.650404,4.968872346337148,0.1538954038862384
8.652807999999999,4.96706102876157,0.153553940210958
8.655196,4.976470919731577,0.15293024243180797
8.657572,4.985601271447863,0.15232971240810744
8.659972,4.997525119843484,0.15167659129122812
8.662355999999999,5.014524104918578,0.1508981561220521
8.664736,5.03259402518031,0.15008574896245316
8.667131999999999,5.050291858389706,0.14924999700294672
8.669519999999999,5.068129461225962,0.1484020391348075
8.671899999999999,5.081962862569383,0.14766066713887774
8.674304,5.096215572793386,0.1468847698833283
8.676687999999999,5.110608052644249,0.14609966078942938
8.679068,5.126211237308609,0.14527090362707132
8.681472,5.1328748534275235,0.14464701501635746
8.68386,5.13995777842702,0.1439827542126237
8.68624,5.145178372306959,0.14335677754622805
8.688644,5.149700118052596,0.14278728355293507
8.691028,5.15007789267854,0.1423206788029297
8.693408,5.144961221744431,0.14201046271220943
8.695808,5.137702680437046,0.14175817902164292
8.698196,5.125788311330769,0.14159640585206734
8.700576,5.113873942224493,0.14143358872652254
8.702979999999998,5.097303745319325,0.14135644629893954
8.705368,5.0774281950556235,0.141318055367181
8.707747999999999,5.051034485873475,0.14140567225996473
8.710144,5.018122617772878,0.14161951110875595
8.712532,4.986561224112638,0.14177835761546395
8.714912,4.955511687131598,0.14194853393912327
8.717315999999999,4.923530984590778,0.1421365130173126
8.719704,4.890107259810985,0.14232473130991197
8.722088,4.856823304658049,0.14249938845314833
8.724483999999999,4.824098428012555,0.14262364540443356
8.726868,4.795517522486756,0.14263676203755346
8.729248,4.773734315133125,0.14250878017240268
8.731648,4.753673669272191,0.14235669122834269
8.734036,4.733892562664976,0.14218089721962685
8.736415999999998,4.7114577290052875,0.1420467289685011
8.738812,4.69381849277135,0.14181304075437087
8.741195999999999,4.683256493963302,0.1414099257393649
8.74358,4.672554725528394,0.14101609042411997
8.745975999999999,4.661293878586044,0.14066501058435102
8.748363999999999,4.651895362763251,0.14027692925130408
8.750744,4.642217307686738,0.13991054250541798
8.753139999999998,4.635984375595619,0.13949309930083045
8.755528,4.633755644997333,0.1389763103272105
8.757907999999999,4.638976238877273,0.13831290782295838
8.760311999999999,4.644708689436411,0.13766967789569207
8.762699999999999,4.651791614435908,0.1369785282038695
8.76508,4.662738971301378,0.13620873878844797
8.767475999999998,4.673127249659407,0.13547969721714823
8.769864,4.682025283950217,0.13481045998514338
8.772243999999999,4.691435174920226,0.13416331527924527
8.774648,4.693208749956903,0.1337281015347678
8.777031999999998,4.692980224247164,0.13333933375505966
8.779411999999999,4.695684964843622,0.13288982957742382
8.781811999999999,4.70304553323897,0.1323621412602834
8.784199999999998,4.717343569433346,0.13169057092479763
8.786579999999999,4.729779274508166,0.13105360660523122
8.788976,4.739002174023071,0.13050440841400182
8.791364,4.751437879097891,0.1298754541821229
8.793747999999999,4.7686691815984625,0.12915485012679717
8.796144,4.778823246673145,0.12858280406695058
8.798532,4.788278463613527,0.12806635025082713
8.800911999999999,4.799316472419745,0.12754339860689531
8.803308,4.812309360144138,0.12704082304674852
8.805696,4.821949672681755,0.12663340877078577
8.808079999999999,4.833312546712067,0.12621156977261166
8.810476,4.840623997421302,0.12593140741691772
8.812864,4.844303333690042,0.12576211051863276
8.815259999999999,4.851427792944174,0.12555363766318237
8.817656,4.865349950370474,0.12522163057138655
8.820044,4.878713029289335,0.12493475892285287
8.822427999999999,4.899153345634083,0.12450047421945944
8.824824,4.922107619404449,0.12404548239552124
8.827207999999999,4.943571649107593,0.12365287037429802
8.829588,4.960332629183602,0.12339612398953265
8.831992,4.972250790005617,0.12328216328011725
8.83438,4.9886850089996635,0.12311183521724578
8.83676,5.005910623926628,0.12293906101468029
8.839163999999998,5.024439491465707,0.12278419596792373
8.841548,5.042828589377927,0.12264272311223771
8.843928,5.07174004770143,0.1223341702479509
8.846324,5.100791275651791,0.12201366401236115
8.848711999999999,5.13184460434857,0.12166560874814734
8.851092,5.16331724192593,0.12129305370144271
8.853487999999999,5.196931749876567,0.12087808372260574
8.855875999999999,5.229195783386844,0.12051178399525742
8.858255999999999,5.267745658390092,0.12002198362120917
8.860652,5.309228799699536,0.11948359537924273
8.86304,5.352853811382257,0.1189125767948412
8.865435999999999,5.3912639167586445,0.11845057879922229
8.867832,5.430465418067952,0.11798841518638535
8.87022,5.468036905683179,0.11759217562254759
8.872599999999998,5.505468623671546,0.11721034599814407
8.874996,5.542760572033053,0.11683843938839453
8.877384,5.579400894088502,0.11645565697914827
8.87976,5.619393791330726,0.11600347927571189
8.882164,5.660178084505868,0.11556382253777354
8.884552,5.702684939173707,0.11511586013093869
8.886932,5.744912254587826,0.11469350867451919
8.889327999999999,5.787139570001945,0.1142771522277484
8.891715999999999,5.828156180602565,0.1139018418857699
8.894096,5.871314661576462,0.11349073411401353
8.8965,5.910329171430665,0.11315225175284646
8.898883999999999,5.949203911658008,0.1128277581164324
8.901268,5.989661443751187,0.11250678237092729
8.903671999999998,6.02867595360539,0.11218263183329387
8.906056,6.067690463459593,0.1118687811616043
8.908436,6.109917778873712,0.11150999621172478
8.910839999999999,6.151074159101191,0.11117754110832327
8.913227999999998,6.196514280075226,0.11078050312175973
8.915607999999999,6.241302774743203,0.11037928400517391
8.918012,6.290002923105396,0.10989814218224049
8.920399999999999,6.3405654025871465,0.10940605001620485
8.92278,6.392478356509255,0.10888537803842316
8.925184,6.451328778230392,0.108288275245155
8.927572,6.509899660697811,0.10771623999753499
8.929952,6.563814715366335,0.10719457437634489
8.932348,6.6161469781690245,0.10668039435535528
8.934736,6.6658255139192395,0.10618582136420905
8.937116,6.716435215229232,0.10568956014958908
8.93952,6.768395390979583,0.10517571214310541
8.941908,6.8242199985959076,0.10463579948636734
8.944287999999998,6.887401382891843,0.10401032000439273
8.946684,6.951513932747556,0.10338490206142532
8.949067999999999,7.01618556111071,0.10274521123804446
8.951448,7.0836506861532005,0.10208954722172386
8.953852,7.147391148956576,0.10147067115434087
8.95624,7.20619624470734,0.10090966420232836
8.95862,7.260485282286073,0.10037908820853941
8.961024,7.312911988745249,0.09987196618147777
8.963412,7.364407529644646,0.0993728546491772
8.965791999999999,7.408546293864434,0.09896658227672354
8.968188,7.451521575098966,0.09854749386113629
8.970576,7.490772194094386,0.09815561835096835
8.972956,7.521223014171218,0.09784473229571888
8.975351999999999,7.550510351262795,0.09751776321982361
8.977735999999998,7.5799374579812335,0.09718462492081614
8.98012,7.612297831005866,0.09683052043235095
8.982515999999999,7.646288217724579,0.09643982088531242
8.984903999999998,7.678835582204314,0.09604643100823074
8.987283999999999,7.704585248511884,0.09571119012703501
8.989688,7.722885590341225,0.09542722356223636
8.992071999999999,7.731454967692201,0.09522341265304499
8.994451999999999,7.738581322804204,0.09501409810193806
8.996848,7.737839044557398,0.09486946474417682
8.999236,7.73323233444462,0.09475411686914227
9.001615999999999,7.7287653939587,0.09463255912430592
9.004016,7.725509158286279,0.09449315739345757
9.0064,7.725046419293194,0.09433671914493674
9.008795999999998,7.719508543620635,0.0942267724726277
9.0112,7.717323243134854,0.0940758249778251
9.013588,7.716488417089431,0.09390035012452078
9.015968,7.713651490297591,0.09374259198424578
9.018364,7.71775203130478,0.09352913907514959
9.020752,7.7301405145513575,0.0932371922440391
9.023132,7.741318292984436,0.09296395872276471
9.025536,7.748771409178402,0.09271077877769165
9.027924,7.750777301640556,0.09248445643243162
9.030304,7.7535745900356305,0.0922601849200019
9.032708,7.754369777684286,0.09205248825499003
9.035092,7.757726144586801,0.09180429937601425
9.037472,7.760151345929537,0.09155995374966402
9.039876,7.763507712832052,0.0913089825615886
9.042264,7.7660726838016485,0.09105793066166498
9.044644,7.773712791450717,0.09076222272346678
9.047047999999998,7.781911977607225,0.09044190463191872
9.049432,7.790250933390595,0.09011614548004421
9.051812,7.7968673276812686,0.08979508545376941
9.054208,7.803763261225661,0.08946328731981977
9.056596,7.815082705143468,0.08908079142928423
9.05898,7.822537717195302,0.08872614662128056
9.061376,7.834928096299751,0.08833749831620917
9.063764,7.844105669844281,0.08798021267236694
9.066144,7.846625314843505,0.08766455009102585
9.068544,7.839553764991223,0.08740819688788772
9.070932,7.827546848086329,0.08718603031579272
9.073312,7.81847319748763,0.08694248749155356
9.075708,7.8101909428218494,0.08669934978993518
9.078096,7.798975421849874,0.08647642783539419
9.080476,7.7838954690119255,0.08627714764780609
9.08288,7.7645317754274235,0.08611990606195896
9.085268,7.7493120529626145,0.08592470287515107
9.087648,7.736234200871081,0.08570738318816407
9.090044,7.719943543219633,0.08552144343920093
9.092432,7.70071961926199,0.08535493293887769
9.094812,7.6804247601177105,0.08519801035584815
9.097207999999998,7.657988030600151,0.08506182672579396
9.099596,7.6334094307093165,0.08494638791482816
9.101976,7.607248038952644,0.0848264980200882
9.104375999999998,7.579084546449556,0.08472039561784044
9.106764,7.549989888386689,0.08461766111217871
9.109144,7.512235201032097,0.0845660160072001
9.11154,7.474899822558086,0.08449604899725013
9.113928,7.438355840016994,0.08442667837707082
9.116308,7.404465584528375,0.08434939776451228
9.118712,7.375790235346088,0.08422394052921958
9.121099999999998,7.350467461350577,0.08405856405770312
9.12348,7.3255639962356485,0.08387323238099004
9.125876,7.299869135187802,0.08368498322886721
9.128264,7.282322446752482,0.08342927553163648
9.130648,7.268919729436855,0.08313600915867132
9.133052,7.252164436934454,0.08287999021594508
9.135436,7.232475878125856,0.08264202819447393
9.137816,7.2160001248771755,0.08237120314633357
9.140212,7.1996641412553535,0.0820926584746693
9.1426,7.186261423939728,0.081794194543589
9.144984,7.175419885877959,0.08145494501992713
9.14738,7.1680706926298265,0.08107042454186512
9.149768,7.156437758635139,0.08072530913949842
9.152148,7.140940392774479,0.08040097114574601
9.154544,7.125443026913819,0.08007485322861799
9.156928,7.113018696986216,0.07972036605483816
9.159324,7.102456698178167,0.0793555948247639
9.16172,7.091382842690921,0.07897420343888174
9.164104,7.080448756830536,0.07858442844033897
9.166484,7.06965444059701,0.07818798362421536
9.168888,7.052993591751092,0.0778274720927955
9.171276,7.032049002158623,0.07750625388825287
9.173656,7.010313016633235,0.07718004352207788
9.176052,6.9825707288685965,0.07689567945381147
9.178439999999998,6.954037045171041,0.07660662216900427
9.18082,6.924060339234508,0.07630323827575228
9.183216,6.897296438857891,0.0759664247714529
9.185604,6.86680787624216,0.07564203242226401
9.187983999999998,6.838461183999707,0.07529468362817113
9.190388,6.804527498398583,0.07496659054670232
9.192772,6.766449841677766,0.07466944845637585
9.195156,6.724228213837255,0.0744029360793283
9.19756,6.68521939155666,0.07410271319554547
9.199944,6.650494310022619,0.07375737487024073
9.202324,6.619121803675354,0.07337170883387537
9.204728,6.586678362141448,0.07299269485145497
9.207116,6.555585395047904,0.07258757054591213
9.209496,6.523281723140861,0.07219534853602022
9.211892,6.491117820860677,0.07179306192045429
9.21428,6.456300191528019,0.07138979221436653
9.21666,6.42120302294164,0.07099524982202825
9.219055999999998,6.390389595101815,0.07055619229619885
9.221444,6.362509433568185,0.07009718912023606
9.223824,6.335979746474915,0.06960992574561897
9.22622,6.304374922702171,0.06915365979764233
9.228608,6.2744926604221245,0.06869334222245205
9.231004,6.240094339970046,0.06823578611899603
9.2334,6.205835789144829,0.06776436956559623
9.235788,6.167712806453638,0.06730687788065902
9.238168,6.132523090068642,0.06682697206820189
9.240571999999998,6.097473143310507,0.06633310807705245
9.24296,6.061631800619454,0.06582717324654062
9.245336,6.0262097668089805,0.06529326499966613
9.247732,5.988645862625231,0.06477347475149575
9.25012,5.943864951388731,0.06430215241214889
9.2525,5.90015497533887,0.0638149503191133
9.254904,5.854442898542592,0.06333396543585304
9.257292,5.807939425813397,0.06284050481163045
9.259676,5.7626466578977,0.06232322759215512
9.26208,5.71758620740748,0.06183466071345882
9.264463999999998,5.6777406632235925,0.06129977670630943
9.266848,5.636824183853067,0.06076872337537241
9.269244,5.591251876683649,0.060239611600044284
9.271628,5.543118390260373,0.059744538469910305
9.274012,5.4979181701432935,0.05922745222775469
9.276408,5.452717950026213,0.05870448581661794
9.278796,5.408820982521248,0.05819917736115971
9.281176,5.368369138001677,0.057695857505829895
9.283572,5.3287086894150235,0.05719034952747772
9.28596,5.289560097507569,0.05670153949426694
9.28834,5.252925463025728,0.05621766922366936
9.290736,5.223320844141533,0.05574237883604465
9.293124,5.192737837869317,0.055317607115380064
9.295504,5.163737623462937,0.05490137570641209
9.297908,5.136320200922393,0.054491286637937335
9.300296,5.111836044688044,0.05406584211611548
9.30268,5.08278860845342,0.053687685034236994
9.305076,5.0534616329650754,0.053318881146486016
9.307464,5.019571377476456,0.052998676219951094
9.309848,4.981956459748725,0.05267752110826887
9.31224,4.93884709646094,0.05240764338675577
9.314628,4.894387258732795,0.052158980952973104
9.317008,4.852813465482604,0.05195370852920884
9.319404,4.817245974471663,0.05171326868958343
9.321792,4.784192440886336,0.05148444468007033
9.324176,4.749928202487511,0.051269749598415786
9.32658,4.7163155903947445,0.051069066533754315
9.328964,4.682563208675117,0.05087435641274235
9.331344,4.650393618821325,0.05069261149460456
9.333744,4.616221928221117,0.05051782734412652
9.336132,4.58097930243427,0.05034970835913764
9.338512,4.538427121796058,0.050173238049163814
9.340916,4.494012610038289,0.04999562638074411
9.343304,4.4473164582803815,0.04984435563207138
9.345684,4.405555673575086,0.04967004257989388
9.34808,4.354296241816904,0.049570185234549397
