Time,Force,Position
11.301279999999998,0.0005766680904006556,0.0
11.30366,0.0008154806628209442,0.0
11.306056,0.0016068765957390544,0.0
11.308444,0.0027768547279376637,0.0
11.310823999999998,0.005669394352832703,0.0
11.313228,0.009394056591945985,0.0
11.315616,0.015359632149896406,0.0
11.317996,0.023467078081123888,0.0
11.3204,0.03436802069168633,0.0
11.322788,0.044198028115610244,0.0
11.325171999999998,0.05216570441997751,0.0
11.327576,0.059341984791426675,0.0
11.329964,0.06451616441645898,0.0
11.332344,0.06955057441463108,0.0
11.334748,0.07258288366638635,0.0
11.337132,0.07440448810464285,0.0
11.339512,0.07515515735626083,0.0
11.341916,0.0759058266078788,0.0
11.3443,0.0759058266078788,0.0
11.34668,0.07665649585949677,0.0
11.349072,0.07917045328511131,0.0
11.35146,0.0803339362703669,0.0
11.35384,0.0793037277650285,0.0
11.356243999999998,0.07967581481736598,0.0
11.358631999999998,0.07767371407094914,0.0
11.361007999999998,0.07371023925941557,0.0
11.363412,0.06774466370146516,0.0
11.365799999999998,0.05963721777023768,0.0
11.36818,0.048736275159675234,0.0
11.37058,0.039005310681311384,0.0
11.372967999999998,0.03192807325542231,0.0
11.375348,0.027644332508868195,0.0
11.377752,0.03136899474798147,0.0
11.380135999999998,0.03430226105417664,0.0
11.382516,0.041379498480065724,0.0
11.38492,0.04966744071945355,0.0
11.387308,0.05795538295884138,0.0
11.389684,0.06824542594464605,0.0
11.392079999999998,0.07835497262229038,0.0
11.394468,0.08571174930189987,0.0
11.396848,0.09013525967531422,0.0
11.399252,0.0968404100488658,0.0
11.401636,0.10573925191301142,0.0
11.40402,0.11309602859262093,0.0
11.406424,0.12203559713806665,0.0
11.408808,0.1337279356815472,0.0
11.411188,0.14341817347861094,0.0
11.413583999999998,0.15324818090253484,0.0
11.415971999999998,0.16307818832645876,0.0
11.418352,0.1697361168717672,0.0
11.420748,0.17560264948415757,0.0
11.423132,0.17732521097685403,0.0
11.425512,0.16842636911270842,0.0
11.427928,0.1610695924330989,0.0
11.430312,0.1514311757533521,0.0
11.432692,0.14132162907570778,0.0
11.435088,0.13228301758470196,0.0
11.437475999999998,0.12124230534727928,0.0
11.43986,0.11113275866963496,0.0
11.442256,0.10549854348272189,0.0
11.444643999999998,0.10107503310930756,0.0
11.447024,0.09665152273589322,0.0
11.449428,0.09143661642956077,0.0
11.451816,0.08300890456331275,0.0
11.454196,0.07317889713938885,0.0
11.456592,0.06148655859590828,0.0
11.45898,0.05277930747593982,0.0
11.46136,0.04365274747539073,0.0
11.463764,0.03424664822112122,0.0
11.466152,0.029775916019463743,0.0
11.468532,0.024374018258027937,0.0
11.470928,0.021253760496729404,0.0
11.473316,0.0212537604967294,0.0
11.4757,0.020642860871971633,0.0
11.478096,0.020171730874074076,0.0
11.480484,0.021387034976646596,0.0
11.482864,0.021387034976646593,0.0
11.485259999999998,0.021387034976646593,0.0
11.487647999999998,0.022602339079219113,0.0
11.490028,0.02148418206433743,0.0
11.492424,0.022228356169012392,0.0
11.494812,0.020970429527270497,0.0
11.497208,0.017850171765971964,0.0
11.499604,0.018362028445169657,0.0
11.501992,0.023488986241958814,0.0
11.504371999999998,0.028895483292468396,0.0
11.506768,0.03438992885252126,0.0
11.509151999999998,0.039232748106516224,0.0
11.511536,0.04463464586795203,0.0
11.513932,0.050455852509968466,0.0
11.51632,0.057068455084903005,0.0
11.5187,0.06433268396589545,0.0
11.521104,0.07216059064340251,0.0
11.523492,0.08399269881374327,0.0
11.525868,0.09982900847691774,0.0
11.528272,0.11472955329124011,0.0
11.53066,0.13671193482052535,0.0
11.53304,0.15669221560339372,0.0
11.535436,0.17359486116413292,0.0
11.537819999999998,0.186213765978318,0.0
11.5402,0.1948284692996694,0.0
11.542599999999998,0.20623666930035575,0.0
11.544984,0.22136953154015537,0.0
11.54738,0.23780564639207083,0.0
11.549784,0.24609358863145867,0.0
11.552172,0.2550331571769044,0.0
11.554552,0.26197062497593326,0.0
11.556947999999998,0.2719811287080175,0.0
11.559335999999998,0.2847851291194367,0.0
11.561716,0.2922344535976633,0.0
11.564116,0.303967518822444,0.0
11.5665,0.31290708736788975,0.0
11.568884,0.32585085740616915,0.0
11.571288,0.33199692927228,0.0
11.573671999999998,0.33013459815272334,0.0
11.576052,0.32692179259280774,0.0
11.578448,0.3147694184874464,0.0
11.580836,0.30783195068841757,0.0
11.583215999999998,0.3026170443820851,0.0
11.58562,0.30154610919544655,0.0
11.588008,0.30140633956858637,0.0
11.590388,0.2974021380757526,0.0
11.592783999999998,0.2946086413964177,0.0
11.595168,0.2919549143439429,0.0
11.597552,0.2951677199038584,0.0
11.599948,0.29423655434408014,0.0
11.602332,0.2911635184110247,0.0
11.604716,0.2848776769180538,0.0
11.607119999999998,0.27137482837233357,0.0
11.609507999999998,0.26280734687922536,0.0
11.611888,0.24595192314672926,0.0
11.614292,0.2332404705339271,0.0
11.61668,0.21638504680143103,0.0
11.619064,0.20418545086782658,0.0
11.62146,0.1951986604941377,0.0
11.623848,0.18742257493394754,0.0
11.626228,0.18271952530681282,0.0
11.628628,0.17266179974648538,0.0
11.631016,0.1636750093727965,0.0
11.633396,0.15790102455902325,0.0
11.635796,0.15641078049180404,0.0
11.638184,0.15785380273078006,0.0
11.640567999999998,0.15329052273050553,0.0
11.642964,0.14314024937156106,0.0
11.645352,0.1321985800796985,0.0
11.647732,0.12675135634788878,0.0
11.650128,0.12530833410891273,0.0
11.652516,0.12386531186993674,0.0
11.654896,0.1276371959372932,0.0
11.657296,0.1315488496315098,0.0
11.65968,0.13867330888564203,0.0
11.662064,0.14551822888605387,0.0
11.664459999999998,0.15529641519266085,0.0
11.666848,0.16200156556621242,0.0
11.669232,0.16935834224582202,0.0
11.671632,0.17429370929843405,0.0
11.67402,0.17843768041812794,0.0
11.6764,0.1856546874708772,0.0
11.678804,0.19408239933712523,0.0
11.681188,0.19608450008354208,0.0
11.683568,0.19180075933698792,0.0
11.685963999999998,0.18379235635132052,0.0
11.688348,0.17950861560476639,0.0
11.690727999999998,0.18281396896329905,0.0
11.693124,0.18504838713519317,0.0
11.695512,0.18379046049345127,0.0
11.697892,0.18080997235901297,0.0
11.700288,0.18104228978449027,0.0
11.702676,0.180203672023329,0.0
11.705056,0.17228781683627867,0.0
11.707456,0.1663740623956452,0.0
11.70984,0.1568754153427586,0.0
11.71222,0.14351233642389855,0.0
11.714616,0.13471253750531303,0.0
11.717,0.12712344340022627,0.0
11.719384,0.12288692448191528,0.0
11.72178,0.12130413261607907,0.0
11.724163999999998,0.12186321112351989,0.0
11.726548,0.1173471529514885,0.0
11.72896,0.11618366996623292,0.0
11.731348,0.12009532366044956,0.0
11.733728,0.12759186996691926,0.0
11.736144,0.1342970203404709,0.0
11.738528,0.13513563810163215,0.0
11.740908,0.1349033206761549,0.0
11.743315999999998,0.13802357843745341,0.0
11.7457,0.1427266280645882,0.0
11.74808,0.14607920325136398,0.0
11.750483999999998,0.14929200881127958,0.0
11.752871999999998,0.15478645437133243,0.0
11.755252,0.15706809437146968,0.0
11.757648,0.16293462698386002,0.0
11.760036,0.17294513071594428,0.0
11.762415999999998,0.17359675702200217,0.0
11.76482,0.1750397792609782,0.0
11.767207999999998,0.17354953519375904,0.0
11.769588,0.16819485926056638,0.0
11.771984,0.15743368627686413,0.0
11.774372,0.14960577959935709,0.0
11.776751999999998,0.14196946366602714,0.0
11.779156,0.13326221254605866,0.0
11.78154,0.12483450067981067,0.0
11.783919999999998,0.11454445769400598,0.0
11.786324,0.10839838582789524,0.0
11.788712,0.10132114840200615,0.0
11.791092,0.0918225013491196,0.0
11.793487999999998,0.08311525022915113,0.0
11.795872,0.07333706392254413,0.0
11.798256,0.06500189985491318,0.0
11.800652,0.06462791694470646,0.0
11.80304,0.07184302813958651,0.0
11.80542,0.07635719045374866,0.0
11.807816,0.07882203019325079,0.0
11.810204,0.08831688553039888,0.0
11.812596,0.09497102235996882,0.0
11.815,0.10530259960040894,0.0
11.817388,0.11959115650543958,0.0
11.819768,0.14082178049857288,0.0
11.822171999999998,0.16265680896952095,0.0
11.824559999999998,0.18797768710716195,0.0
11.82694,0.21390296972261771,0.0
11.829339999999998,0.243086383868363,0.0
11.831724,0.2786009654774532,0.0
11.834108,0.3102964411909438,0.0
11.836504,0.3483230843677792,0.0
11.838888,0.38802506720906793,0.0
11.841268,0.42982169859539066,0.008828965581866874
11.843664,0.4734334392730267,0.017846229142734756
11.846051999999998,0.5166258710700823,0.027046802735600887
11.848432,0.559259224359697,0.035911480377036196
11.850828,0.595839053581818,0.04530282918166782
11.853216,0.638797272095527,0.05425528671949283
11.855595999999998,0.6872027143410457,0.06284829334672117
11.858,0.7390532795719573,0.07126875065335889
11.860388,0.7954199029749004,0.0796176339590832
11.862768,0.8515069871241228,0.08809735040076244
11.865163999999998,0.9098284894452394,0.09650982808094782
11.867552,0.9647974165795803,0.10511821730268592
11.869932,1.0236307755798948,0.11358526303722685
11.872331999999998,1.0797631856994911,0.12226936629712978
11.874716,1.1338934950726707,0.1312408770317506
11.8771,1.1840196029530168,0.1404616092948192
11.879496,1.2347973371394205,0.14951526092237066
11.881884,1.2933039350577713,0.15835517109965222
11.88428,1.3467353962966497,0.1675136753176891
11.886676,1.4038915197746418,0.1765263010185855
11.88906,1.459277859931694,0.17685075326843752
11.89144,1.5179695534472788,0.17690824856152523
11.893844,1.5815493921872326,0.17665471545230466
11.896232,1.6429401387256664,0.1768874105592187
11.898611999999998,1.7141543975410807,0.17632037626410166
11.901012,1.7841107297147532,0.1762335120895717
11.903396,1.8494565600599082,0.17678160500046317
11.905776,1.917129356375574,0.17743449815670456
11.90818,1.986989349034891,0.1781634124960936
11.910568,2.0649030706502494,0.17857810338678431
11.912952,2.145143758236119,0.17905066109797924
11.915348,2.230225369218114,0.17937355186736242
11.917736,2.3202404513948522,0.1797892368255405
11.920115999999998,2.419612515139747,0.17989502397892532
11.922512,2.5337887841846096,0.17949554056056513
11.9249,2.6611864666636023,0.1786716296003174
11.92728,2.788210166232388,0.17813018426939844
11.929676,2.9159308180776056,0.1778470768784225
11.932064,3.057152422610674,0.17710139702403854
11.934444,3.1973484179274783,0.17660448107677243
11.936844,3.3438755807076275,0.17593631652545047
11.939232,3.4930092487120077,0.17532920165149574
11.941612,3.642747321194203,0.17486606561748932
11.944007999999998,3.8002142574083453,0.17412964609154977
11.946395999999998,3.952885596196736,0.17368194995954273
11.94878,4.103834373492431,0.17324850135302355
11.951175999999998,4.261628070788539,0.1724536405555135
11.953563999999998,4.417606658793332,0.171701839496205
11.95596,4.573120611947172,0.17090226340269823
11.958355999999998,4.721512001704751,0.170299172951032
11.960743999999998,4.866412942506561,0.16968008653706287
11.963128,5.007591116927127,0.16898896741300745
11.965532,5.139506753436023,0.16833694471918165
11.96792,5.259506124980773,0.1677853497848869
11.970299999999998,5.364655965255183,0.16744116615619986
11.972696,5.4528144038859745,0.1673260130525236
11.975084,5.538647772404124,0.16702063972872427
11.977467999999998,5.618291638943658,0.1666326157462844
11.979864,5.682946204585991,0.16640440767103457
11.982252,5.748069196795019,0.16594548636993234
11.984632,5.803510342211794,0.16552377770137114
11.987032,5.849921267142376,0.16513597156201668
11.98942,5.887721280467345,0.1647471110012072
11.9918,5.909925692559429,0.1645805464974445
11.994196,5.927336403083629,0.1643776641977641
11.996584,5.941536203905784,0.16411814067718078
11.998964,5.949452059092835,0.16388710646348195
12.001359999999998,5.950013033458146,0.16370643295644244
12.003748,5.9417288829344965,0.1636338549825969
12.006132,5.933399406440473,0.16347116130373082
12.008527999999998,5.920601093602662,0.16334127654143793
12.010915999999998,5.905987671473537,0.16319763262107914
12.013296,5.889651687851716,0.16308066952155392
12.015692,5.872104999416395,0.16300239390525345
12.01808,5.850554109488241,0.16302048223976945
12.020464,5.830074154746725,0.16301276122085584
12.022868,5.806800703325875,0.16305820277539512
12.025256,5.783527251905026,0.163100354199762
12.02764,5.764909628283067,0.16304700939016734
12.030036,5.73814383204858,0.16318861697256662
12.032419999999998,5.714451071747149,0.1632525383996823
12.034804,5.693039951445856,0.163249016481148
12.0372,5.675353493383675,0.1631707756501297
12.039587999999998,5.6636733375607475,0.16295279012760677
12.041968,5.651062016178038,0.1627522095460675
12.044364,5.639661399608828,0.16251232367750998
12.046752,5.622254480800368,0.1624133553198638
12.049136,5.607780828298103,0.16224762729419093
12.05154,5.597451146915533,0.16197620976244623
12.053928,5.581394702547431,0.1618264351406229
12.056308,5.567200589298888,0.1616381981083378
12.058704,5.552075310490565,0.1614671025629269
12.061092,5.536018866122464,0.16131507652736624
12.063476,5.523826853620337,0.16107689702047
12.065872,5.518432539290378,0.16068435446883833
12.06826,5.514900556079976,0.160251573317126
12.07064,5.508015997682797,0.15991570262846438
12.073035999999998,5.500060504098979,0.15960888017952515
12.075428,5.487821269768609,0.15942010866013948
12.077808,5.480657172117711,0.15910300850768774
12.080208,5.466927693720121,0.15897498891026812
12.082591999999998,5.4517079712553125,0.15890720836338695
12.084976,5.4323442776708095,0.1589483062160683
12.08738,5.413911749646085,0.15896633117470402
12.089768,5.397853409420116,0.15895701599240067
12.092148,5.380584364380647,0.15898636233204083
12.094544,5.371183952699985,0.1588311405386247
12.096932,5.360293296952103,0.15873623716072516
12.099312,5.348191936390724,0.15868030236177366
12.101712,5.340746403628235,0.15852872262088152
12.104095999999998,5.33087946123875,0.15845722376853721
12.10648,5.320453440341824,0.15842757899678916
12.108876,5.317616513549985,0.15823434729426594
12.111263999999998,5.315710752317923,0.1580231467247368
12.113644,5.306587984033112,0.1579949475327564
12.116044,5.298908237987278,0.1579599381673439
12.118432,5.294813384553695,0.15786024151983644
12.120812,5.293092718918868,0.15773507820075572
12.123212,5.2943053195902365,0.15754242675544933
12.125596,5.295750237687082,0.15738440791161987
12.12798,5.305203558769595,0.15703334786541467
12.130375999999998,5.315588045411886,0.15666303289539346
12.13276,5.332490690972625,0.15616289730636218
12.13514,5.346412848398924,0.15578379670666948
12.137536,5.359403840265447,0.15542522739539297
12.139924,5.372906688811168,0.1550784732431849
12.142304,5.379052760677278,0.15492475333522526
12.144704,5.38533860217025,0.15475977124278897
12.147092,5.392927696275335,0.15459903705923736
12.149475999999998,5.401680273365678,0.1544554350757641
12.151872,5.412295181575578,0.15427293516060647
12.15426,5.4247724209050325,0.15405304025206729
12.15664,5.4300326531817396,0.15401689298561294
12.15904,5.431148914338751,0.15408560844768282
12.161423999999998,5.442927305533906,0.1539208633865285
12.163808,5.454426157475341,0.15377752966470717
12.166204,5.4699292109096085,0.15354393173941694
12.168588,5.4842215595303765,0.15335061513250733
12.170967999999998,5.501307404830481,0.15310898751422267
12.173364,5.51559975345125,0.15292036866722736
12.175752,5.526679296512103,0.1528163591627238
12.178136,5.540272796998572,0.15268202798730607
12.180532,5.550001865619066,0.15262815189563672
12.18292,5.561081408679922,0.1525263320464328
12.185304,5.570530938046695,0.1524899643050222
12.1877,5.5858470000258595,0.15233472858572056
12.190088,5.607820990550333,0.15204873111935008
12.192468,5.632960564806478,0.15173518671973596
12.194864,5.662244110182318,0.1513327659340995
12.197252,5.687802993319043,0.1509977564944565
12.199635999999998,5.714153272388687,0.1506554563795924
12.202032,5.7431572785108065,0.15027937466190097
12.20442,5.7748150116854005,0.14985874010120503
12.2068,5.811919968591804,0.1493493644246997
12.209196,5.8478142206847075,0.14889498169997561
12.211583999999998,5.887572904643585,0.14837612667951838
12.213964,5.921185516736353,0.14799091543089699
12.21636,5.95479812882912,0.14760623207512277
12.218752,5.981193733869138,0.14737682276194125
12.221132,6.010243065961631,0.14710936838475494
12.223527999999998,6.042085894733459,0.14679777481686393
12.225916,6.073928723505286,0.14649282168762406
12.2283,6.106143639329452,0.14620789450349805
12.230695999999998,6.144225087766008,0.14582204740885976
12.233084,6.188452608068675,0.14531396071411415
12.235468,6.2266738261320915,0.1449310646723561
12.237863999999998,6.26410364826259,0.14456063762380872
12.240251999999998,6.300881844087031,0.14419184457173828
12.242632,6.331653737672219,0.1439388899037482
12.245031999999998,6.36764053756374,0.14358456876585715
12.247419999999998,6.404046646335843,0.14320668076900825
12.2498,6.435796927309052,0.14290121704380546
12.252196,6.472110488282539,0.14249735852808498
12.254584,6.5049789262706295,0.14213522577466656
12.256968,6.530537809407356,0.1418743038016351
12.259367999999998,6.551860173625771,0.14165962590976258
12.261755999999998,6.580679084150655,0.14129837211564475
12.264136,6.609917303556121,0.14091433358265293
12.266532,6.643579033335001,0.14043281208979028
12.26892,6.680733107927518,0.13988170914234352
12.271304,6.716304390654198,0.13934606076245223
12.2737,6.748290780768624,0.13885567570947294
12.276088,6.781115788644212,0.13831881598971343
12.278472,6.806351702414712,0.1378960524352704
12.280872,6.823346895774069,0.13757880161761454
12.28326,6.841832333200645,0.13721827858089392
12.28564,6.858595209134523,0.13687646868264775
12.288052,6.8731236668965074,0.1365413009962105
12.290439999999998,6.888350972792793,0.13616554048698515
12.29282,6.895709645330272,0.13591191758786164
12.295232,6.905489727494748,0.13560570212117387
12.297619999999998,6.915828888166665,0.1352673806560169
12.3,6.917647789173717,0.13504645060522297
12.302404,6.9178838983149324,0.13483344405088074
12.304792,6.9183995467098685,0.13460298926749023
12.307172,6.917052863985249,0.134396535390839
12.309568,6.905975216782265,0.1343353637205303
12.311956,6.889590115474331,0.13433177740007984
12.314336,6.87176199192742,0.13432786697868823
12.316731999999998,6.8454136087156465,0.13443924721652717
12.319116,6.8177619728917565,0.13454122267202429
12.321496,6.790809185202166,0.13460337059450214
12.323896,6.7621338360198795,0.1346799204014362
12.326284,6.735088500531672,0.13470516947997016
12.328664,6.7151204024693545,0.13461410173683067
12.331079999999998,6.692498577354561,0.1345499504419441
12.333464,6.671506765933848,0.13443284295937125
12.335864,6.652517055259552,0.1342830945749303
12.338259999999998,6.635669214958534,0.13409320064117633
12.340644,6.624455589844428,0.13379017092375478
12.343024,6.60723566249107,0.13357886381837386
12.345424,6.590946900697492,0.13335519919802336
12.347812,6.580524671516304,0.13304658345626302
12.350192,6.574525952708531,0.13265354788170292
12.352588,6.571600269833812,0.13220978402600259
12.354971999999998,6.569885291772592,0.13173776838719076
12.357356,6.573245450390842,0.13118233568579588
12.359756,6.585265638300821,0.1305092754440413
12.362144,6.598216991770576,0.1298260063432284
12.364527999999998,6.6122392804269685,0.12911656467613566
12.366931999999998,6.62691319538942,0.128412779063074
12.369319999999998,6.639585009605456,0.1277376597665858
12.3717,6.65360729826185,0.12702902581742864
12.374096,6.667210278037663,0.12634382294427518
12.376484,6.674946725201085,0.12574382906059015
12.378868,6.683893877178007,0.12511575312857076
12.381264,6.688697058035235,0.1245557196143428
12.383652,6.688704641466711,0.12405754011550484
12.386031999999998,6.6865703545249096,0.12359783781473666
12.388436,6.6770792909035,0.1232600797801483
12.390824,6.6714526591480645,0.12286948311586082
12.393204,6.664243235526793,0.12248418945573412
12.395604,6.651027509666268,0.12218756865192738
12.397988,6.633388273432331,0.12197293807938009
12.400372,6.6169597420118915,0.12173027482102754
12.402767999999998,6.600391440964593,0.12149429357298185
12.405156,6.584474766223352,0.12126260731400193
12.407536,6.558547587750024,0.12117456718803316
12.409932,6.5315494740900615,0.12110308646175706
12.41232,6.508276022669211,0.12098859443043034
12.4147,6.483791866434862,0.12089939401182766
12.417096,6.462613063559044,0.12079119534191649
