Time,Force,Position
11.556648,0.03357318873962241,0.0
11.559044,0.023319742692966456,0.0
11.561432,0.01427700145980925,0.0
11.563816,0.0075159002267893155,0.0
11.566212,0.0007547989937693812,0.0
11.5686,0.0,0.0
11.57098,0.0,0.0
11.573376,0.0,0.0
11.575764,0.0,0.0
11.578143999999998,0.0,0.0
11.58054,0.0,0.0
11.582928,0.0,0.0
11.585307999999998,0.0,0.0
11.587704,0.00010317268771148106,0.0
11.590092,0.00048588462914338253,0.0
11.592475999999998,0.0004858846291433825,0.0
11.59488,0.0004858846291433825,0.0
11.597268,0.0038018628767704558,0.0
11.599647999999998,0.004836201124260257,0.0
11.602052,0.004836201124260257,0.0
11.604436,0.0048362011242602575,0.0
11.60682,0.0048362011242602575,0.0
11.60922,0.0048362011242602575,0.0
11.611608,0.0048362011242602575,0.0
11.613984,0.0048362011242602575,0.0
11.61638,0.0048362011242602575,0.0
11.618764,0.0048362011242602575,0.0
11.621144,0.0048362011242602575,0.0
11.623548,0.0048362011242602575,0.0
11.625936,0.0048362011242602575,0.0
11.628315999999998,0.0048362011242602575,0.0
11.630712,0.0048362011242602575,0.0
11.633095999999998,0.0048362011242602575,0.0
11.635476,0.0047330284365487765,0.0
11.63788,0.004350316495116875,0.0
11.640263999999998,0.004350316495116875,0.0
11.642644,0.004350316495116875,0.0
11.645048,0.0010343382474898018,0.0
11.647436,0.0,0.0
11.649815999999998,0.0,0.0
11.65222,0.0,0.0
11.654604,0.0,0.0
11.656983999999998,0.0,0.0
11.659375999999998,0.0,0.0
11.66176,0.0,0.0
11.664155999999998,0.0,0.0
11.666552,0.0,0.0
11.66894,0.0,0.0
11.671319999999998,0.0,0.0
11.673716,0.0,0.0
11.676099999999998,0.0,0.0
11.678492,0.0,0.0
11.680899999999998,0.0,0.0
11.683284,0.0,0.0
11.685664,0.0,0.0
11.688067999999998,0.0,0.0
11.690452,0.0,0.0
11.692832,0.0,0.0
11.695228,0.0,0.0
11.697616,0.0,0.0
11.699996,0.0,0.0
11.702392,0.0,0.0
11.70478,0.0,0.0
11.707159999999998,0.0,0.0
11.709564,0.0,0.0
11.711952,0.0,0.0
11.714332,0.0,0.0
11.716728,0.0,0.0
11.719116,0.0,0.0
11.721495999999998,0.0,0.0
11.723892,0.0,0.0
11.72628,0.0,0.0
11.728659999999998,0.0,0.0
11.731068,0.0,0.0
11.733452,0.0,0.0
11.735836,0.0,0.0
11.738232,0.0010343382474898015,0.0
11.74062,0.0011375109352012825,0.0
11.743,0.0013804532497729738,0.0
11.745404,0.002275021870402565,0.0
11.747788,0.0031695904910321562,0.0
11.750172,0.004995324671440067,0.0
11.752568,0.0077522244116263,0.0
11.754956,0.010648893778672742,0.0
11.757336,0.014476728705497505,0.0
11.75974,0.018584102886042685,0.0
11.762124,0.022831246693448083,0.0
11.764508,0.022831246693448083,0.0
11.766904,0.022831246693448083,0.0
11.769288,0.022831246693448083,0.0
11.771672,0.022831246693448083,0.0
11.774068,0.024424663448378726,0.0
11.776456,0.025086914643531046,0.0
11.778835999999998,0.025086914643531046,0.0
11.78124,0.02775126658510022,0.0
11.783628,0.03041561852666939,0.0
11.786008,0.03125423628783065,0.0
11.788412,0.03595728591496541,0.0
11.790796,0.040241026661519526,0.0
11.793176,0.0418710403555989,0.0
11.795579999999998,0.044432219609456605,0.0
11.797968,0.044851528490037235,0.0
11.800348,0.04541060699747807,0.0
11.802751999999998,0.04676108143783701,0.0
11.805139999999998,0.04718039031841765,0.0
11.80752,0.04704062069155744,0.0
11.809915999999998,0.04569014625119849,0.0
11.812304,0.05165985155130031,0.0
11.814684,0.05870049203804067,0.0
11.817087999999998,0.0654615932710606,0.0
11.819475999999998,0.07315386006385885,0.0
11.821856,0.07739037898216981,0.0
11.824251999999998,0.0864224953262326,0.0
11.826639999999998,0.09611686286544771,0.0
11.82902,0.10021361215689847,0.0
11.831416,0.10431036144834921,0.0
11.833804,0.10719640592630122,0.0
11.836184,0.1031449826052244,0.0
11.83858,0.09861829954409858,0.0
11.840964,0.10099248734285289,0.0
11.843348,0.10350644476846745,0.0
11.845744,0.1103041429406361,0.0
11.848132,0.11388903555288919,0.0
11.850528,0.11733415853828204,0.0
11.852923999999998,0.11849764152353763,0.0
11.855311999999998,0.12073205969543177,0.0
11.857692,0.12454926973316212,0.0
11.860087999999998,0.12580530051703478,0.0
11.862472,0.12450015204704973,0.0
11.864856,0.12598850025639963,0.0
11.867252,0.1267780003314485,0.0
11.86964,0.12859121376489274,0.0
11.87202,0.126912082384701,0.0
11.874423999999998,0.12825876510932147,0.0
11.876811999999996,0.13463336268517098,0.0
11.879192,0.14016934249985927,0.0
11.881588,0.14980207160599832,0.0
11.883979999999998,0.16953785224283865,0.0
11.88636,0.19412518116489919,0.0
11.888756,0.2126955829586147,0.0
11.891144,0.23093922367036668,0.0
11.893528,0.2460626066208201,0.0
11.895924,0.2662139044225026,0.0
11.898312,0.283524483716607,0.0
11.900696,0.3092155530487163,0.0
11.903099999999998,0.33541847906002326,0.0
11.905487999999998,0.3624128010042484,0.0
11.907871999999998,0.38912758369475303,0.0
11.910268,0.41742515825109394,0.0
11.912655999999998,0.44264969687437944,0.0
11.915036,0.4688054010574432,0.0
11.917431999999998,0.4980341411735624,0.0
11.919819999999998,0.5292649820360985,0.0
11.9222,0.5549088295399646,0.0
11.924599999999998,0.5794817418571921,0.0
11.926987999999998,0.604985819734198,0.0
11.929368,0.6295587320514255,0.0
11.931763999999998,0.6473339461964847,0.0
11.934152,0.6613844981024302,0.0
11.936536,0.6767855244487349,0.0
11.93894,0.6926058596756203,0.0
11.941323999999998,0.7077745685964476,0.0
11.943704,0.7232228167709952,0.011259268615005537
11.946099999999998,0.7460278416251525,0.02162030121446859
11.948484,0.7628265642400591,0.032221964744004156
11.950879999999998,0.7792059779743854,0.042968257115921164
11.953284,0.7959574787610488,0.05376141652738383
11.955672,0.8165734114136858,0.0640740252682574
11.958052,0.8422644807457951,0.07380448572991224
11.960456,0.8735425434365742,0.08309185263845964
11.96284,0.9058915413139919,0.0922714650139935
11.96522,0.9410340358707445,0.10109112709061165
11.967624,0.9718927896809433,0.11028978682803568
11.970008,1.013413673529284,0.1188362742563969
11.972392,1.0564248014448439,0.1272419144712198
11.974788,1.1046508356667364,0.13532443302273622
11.977176,1.1566015321277419,0.14321372665643972
11.979556,1.213068286760779,0.15101120441859636
11.98196,1.2721415466180475,0.15889509877311822
11.984348,1.3296773405798539,0.16719247280155972
11.986728,1.3889810220047305,0.17570668983419055
11.989124,1.461738434289215,0.18392609934080964
11.991512,1.5362165122085265,0.18107988591865354
11.993892,1.613578738747921,0.1791954708303165
11.996296,1.7003904946540895,0.1770191661549083
11.99868,1.7970710888076131,0.17457585881626297
12.00106,1.9034807515816312,0.17198212505327828
12.003456,2.0119831670428137,0.17001223308450092
12.005844,2.1225783351911613,0.16870708575719603
12.008223999999998,2.232332989720478,0.16805177375247016
12.010628,2.351397403989709,0.16738105993755636
12.013016,2.4737652757596034,0.1670922788805192
12.015396,2.6083761735756066,0.16637451587700974
12.017799999999998,2.7436368018397985,0.1662893626787105
12.020188,2.8849943842839894,0.16634004308227224
12.022568,3.0299349634825634,0.16668418074327704
12.024964,3.1740822508903506,0.1673252044479715
12.027352,3.322511383186823,0.16803871443946017
12.029732,3.4741060992149686,0.16864632619186
12.032128,3.6377134197216154,0.1686681339585631
12.034516,3.803929141310364,0.16840345329115153
12.036896,3.9557599664797265,0.16850844060769768
12.039292,4.107360370081481,0.16831704873789888
12.04168,4.251048710211924,0.1680408354508699
12.044059999999998,4.385194973176976,0.16781588082083956
12.046464,4.509379850096055,0.16770385042403818
12.048848,4.618435656491074,0.16777651732405444
12.051227999999998,4.7214417305343375,0.16769512545655
12.053624,4.818258302598985,0.16749998054604603
12.056008,4.912237947871793,0.16704592076313096
12.058391999999998,4.991740148926597,0.16678655856773011
12.060796,5.062119581696591,0.1665149848236677
12.063184,5.121234375808498,0.1663140821336367
12.065563999999998,5.169316848687795,0.16620749706785454
12.067968,5.208648640334618,0.16611692922945676
12.070356,5.239881377055026,0.16604580866990454
12.07274,5.269812757021188,0.1658082247473384
12.075143999999998,5.289642981314516,0.16564261701045535
12.077528,5.305051591092298,0.16546551126899006
12.079912,5.310404371167623,0.1654616060253698
12.082307999999998,5.313150646018715,0.1654550363815723
12.084692,5.320599970496941,0.16529235483671467
12.087076,5.323113927922556,0.1652534288520386
12.089479999999998,5.32520857646759,0.1652462892625169
12.091867999999998,5.325952750572266,0.1652909219038452
12.094248,5.326045298370883,0.16533439730504887
12.096643999999998,5.332004378781891,0.16523572159102695
12.099031999999998,5.3408967254990936,0.16506839875215182
12.101412,5.348997676283378,0.16491159581419546
12.103811999999998,5.356958857440802,0.1647673241307811
12.106196,5.369995175277698,0.16449350956531955
12.10858,5.382240097181676,0.16422703752213608
12.110976,5.397837594272431,0.16386213852530132
12.11336,5.414925335430403,0.16343081887313665
12.11574,5.431361450282319,0.1629968775490073
12.118136,5.447006169201316,0.16257315335189573
12.120524,5.457715521067701,0.16227004845828072
12.122903999999998,5.470287204053643,0.16192455017849391
12.1253,5.478063289613835,0.16168820816812207
12.127688,5.489331719987661,0.16134373860748497
12.130067999999998,5.496456179241792,0.16111091724421778
12.132464,5.498086192935872,0.16103907079992658
12.134852,5.501718307376368,0.1609179535778167
12.137232,5.504279486630225,0.16082632405174913
12.139627999999998,5.512986737750195,0.16057729909640048
12.142015999999998,5.523137011109139,0.16032182925669508
12.144412,5.5347303067070595,0.16006400575355642
12.146808,5.542971027118203,0.15990547755996948
12.149196,5.553306396074383,0.15974302057265452
12.15158,5.565876183202455,0.15956863511507302
12.153976,5.577886891823087,0.15943657228335947
12.15636,5.591852479361892,0.1593085295798451
12.158739999999998,5.6056310754455945,0.15924445019092875
12.161136,5.622715024887831,0.15913950304448285
12.163524,5.6461773636216535,0.15892566562668137
12.165903999999998,5.67215365978109,0.15868126321531026
12.168304,5.703856718926058,0.15832400941351812
12.170687999999998,5.739563979563858,0.157884951941315
12.173088,5.78686453579958,0.15722377370766122
12.175484,5.829601812035026,0.15669563521233942
12.177868,5.875132584949808,0.15611601700134903
12.180252,5.926157803424644,0.15539633248854223
12.182648,5.9781141874592585,0.15467076310303976
12.185032,6.038730600785597,0.15379508775772333
12.187411999999998,6.094271877432463,0.1530413223603997
12.18982,6.148742218892692,0.1523155312506863
12.192208,6.200279294046724,0.1516558652044999
12.194588,6.253958239574033,0.15094946318574384
12.196984,6.30391252286223,0.15030534600185744
12.199372,6.351213079097952,0.14970741963632622
12.201752,6.39972434014717,0.14908510938400454
12.204148,6.451588176383168,0.14838926396543642
12.206536,6.500146659260633,0.14772812558689155
12.208916,6.546982580645399,0.14709441666292192
12.211316,6.589022904604414,0.14655613575674745
12.213704,6.628409501510954,0.14605632236192606
12.216084,6.6663530761785195,0.1455700018234029
12.21848,6.70015267972639,0.1451709242262809
12.220868,6.722638526930061,0.14495466972888055
12.223252,6.747406014133869,0.14468663742112992
12.225648,6.7707304790987,0.144422870579052
12.228036,6.7904228296230364,0.14425098852544763
12.230432,6.808392618654675,0.1441002709203717
12.232827999999998,6.818913083208089,0.1440596442828666
12.235215999999998,6.8298528566420815,0.14399486236888046
12.237596,6.842282874143293,0.1438856717684216
12.239992,6.8552719701519464,0.14374546557739934
12.24238,6.870123397280156,0.1435821565766658
12.244764,6.889538104408642,0.14332160269732355
12.24716,6.90709048041757,0.1430861500938257
12.249548,6.920778424560523,0.14291060189685756
12.251928,6.933954512024281,0.14272828889823708
12.254328,6.9512745706077315,0.14247439300044942
12.256716,6.9700848732584015,0.14217998090769515
12.259096,6.988103779976153,0.14189064912475904
12.261492,7.007473161134263,0.14156714010339835
12.26388,7.024700671919097,0.14128517254980122
12.266264,7.042627030838231,0.14096546193594367
12.268667999999998,7.0654887568099785,0.14056960925893033
12.271055999999998,7.085976294982971,0.14018911589282684
12.273436,7.109536869089018,0.1397614324807164
12.275831999999998,7.134075830583088,0.13928061395601996
12.278219999999996,7.155309438718624,0.13882403453588174
12.2806,7.172958154241908,0.13840466525421935
12.282996,7.190095013085994,0.1379750662060078
12.285384,7.205788849691103,0.13754969039318224
12.287768,7.218689189616879,0.13716019387785106
12.290171999999998,7.225630449131645,0.1368248249915063
12.292559999999998,7.228055650474382,0.1365419038866217
12.29494,7.230248534391641,0.13623213135816287
12.297335999999998,7.231417704950505,0.13589919945381956
12.299723999999998,7.227139651777558,0.1356296007122181
12.302104,7.216622978939884,0.13542642374112074
12.3045,7.1995881471837615,0.13530439248993792
12.306888,7.179667270949687,0.13518338495554122
12.309272,7.154438940610663,0.1351175024174103
12.311676,7.127255731353466,0.1350407028469042
12.314063999999998,7.098349960603572,0.13497860485241045
12.316444,7.0672097716817825,0.1349182675747315
12.318839999999998,7.034347021267298,0.13487319059188393
12.321227999999998,6.996176816747864,0.13487982602684373
12.323612,6.95842592110901,0.13485991870117559
12.326007999999998,6.920023399164099,0.13483726147413455
12.328395999999998,6.884182056473046,0.13475333875791998
12.33078,6.846478382662435,0.1346918221840298
12.333175999999998,6.803327485120016,0.134693208384562
12.335563999999998,6.757662630151981,0.134717204900828
12.337944,6.7079935736911125,0.13481167195515226
12.340339999999998,6.657393351670465,0.13491881012112
12.342727999999996,6.610005935209733,0.1349593077356975
12.345112,6.564201310614838,0.13499046552567864
12.347511999999998,6.516394585273524,0.13505786151908572
12.349895999999998,6.470729730305491,0.1350838272354866
12.35228,6.430140012016927,0.13502185356106672
12.354684,6.390993315967339,0.13495913848143481
12.357072,6.356642217343504,0.13482390800291325
12.359452,6.320940644279309,0.13472617324768588
12.361847999999998,6.2852390712151145,0.1346271323341498
12.364235999999998,6.244322591844587,0.13462720486215562
12.366619999999998,6.20312657322034,0.13464618405174214
12.369015999999998,6.164584281648567,0.13463204234549944
12.371403999999998,6.1220377885839605,0.13468528426950338
12.373784,6.084147123318247,0.13467021685257446
12.376188,6.047699480291508,0.1346518550405523
12.378576,6.0117636939439665,0.13464758338189745
12.380955999999998,5.982066527261153,0.13456852709731662
12.383356,5.960889620243204,0.13436066140553582
12.385744,5.948512512143843,0.13400791958051816
12.388123999999998,5.939720296656732,0.13361054225561833
12.390524,5.927435736355989,0.13329469125983498
12.392907999999998,5.916082341615023,0.13296512821861256
12.395291999999998,5.906311738739892,0.13262444591477274
12.397688,5.898635784409796,0.13228782605482486
12.400071999999998,5.889469586012481,0.1319986447826352
12.402456,5.8818861794810005,0.13170034003303596
12.404851999999998,5.8725329896285805,0.13146728645975592
12.407239999999998,5.868487253881111,0.13117343740878187
12.409616,5.867746871492173,0.13085448703803695
12.412024,5.87524720951438,0.13042644375491355
12.414412,5.889405476081896,0.12990145535261452
12.416792,5.902213268209053,0.12941622838569505
12.419192,5.919257579254518,0.12889154047166335
12.42158,5.935603042165687,0.12841499049621213
12.423963999999998,5.952600131382912,0.12794582000925575
12.42636,5.9762551491454445,0.12738508221245132
12.428748,5.999630627654257,0.1268462207506998
12.431131999999998,6.017511660603018,0.12642520486862674
12.433528,6.0356250109772525,0.12604137854683195
12.435916,6.050246016537853,0.12573495649325497
12.438295999999998,6.06724120989721,0.12541788436467605
12.440692,6.082746159189345,0.12514650178502243
12.443079999999998,6.107562764079265,0.1247612558237315
12.445463999999998,6.133030995275242,0.12438432044114692
12.44786,6.161664810202893,0.12399663956017638
12.450247999999998,6.194814683302579,0.12356623184139735
12.452628,6.2318289882682345,0.12308399432369219
12.455023999999998,6.269774458793667,0.12259863492666881
12.457411999999998,6.306509224505603,0.12214483173468979
12.459792,6.3409623502174,0.12174188443227854
12.462191999999998,6.370712426302063,0.12144266427346359
12.464579999999998,6.402696920558621,0.12114317861625583
12.466976,6.439057703360351,0.12081326482599083
12.469372,6.4788636091474725,0.12046254697163426
12.47176,6.52118347236021,0.12010208424159902
12.474144,6.559219594826392,0.11982007334121167
12.47654,6.597627804344913,0.11956064820131707
12.478928,6.640691841662324,0.11925292815366516
12.481308,6.682545174166236,0.11897455757910438
12.483704,6.731335974469179,0.11860689366187685
12.486092,6.783991206638093,0.1181993745509716
12.488476,6.842093662538819,0.11774436850711456
12.490872,6.89526075138693,0.11736420352811142
12.49326,6.946425739488625,0.11701078536785904
12.495639999999998,6.997078870911125,0.11664998231894323
12.49804,7.04321594416159,0.11633406011426684
12.500428,7.088701391105999,0.11601892828813405
12.502812,7.13204496767713,0.11573976648501384
12.505208,7.176599249061762,0.11544032915809797
12.507596,7.22357494007339,0.11509898949428066
12.50998,7.272180644779097,0.11471312210152257
12.512376,7.320554032059329,0.11430364083676278
12.514764,7.363480195607749,0.11394480093262073
12.517143999999998,7.4033805450513555,0.11359152313511282
12.519544,7.437833670763154,0.11328306382999215
12.521932,7.4697728390493365,0.11298457265780901
12.524311999999998,7.500548524350265,0.11266977009314276
12.526712,7.529881187412215,0.11235591637707337
12.5291,7.556699893048553,0.11205329281422628
12.531484,7.578583231632278,0.11180806717706847
12.53388,7.594739807230472,0.11161966873994567
12.536268,7.60614800723116,0.11144107575681426
12.538652,7.616904580925787,0.11125817900864148
12.541048,7.634226535367107,0.11098553789338728
12.543436,7.650477554621789,0.11072879118547797
12.54582,7.667659739436249,0.1104652557466294
12.54822,7.685773089810486,0.11019741873714084
12.550608,7.704165979438445,0.1099177436862345
12.552988,7.719765372387068,0.10966128827385695
12.555384,7.73028962865622,0.10946163574109546
12.557768,7.742024589738869,0.10924347231690036
12.560147999999998,7.75375955082152,0.10902658603000898
12.562552,7.767915921531166,0.10877142147461301
12.56494,7.777928321121121,0.10856351362420934
12.56732,7.79115352627099,0.10831517755025262
12.569724,7.807731306607633,0.10802030765041715
12.572112,7.822306986197863,0.1077456445316472
12.574492,7.830224737242784,0.10752671960141869
12.576888,7.839912271608642,0.10726291503006802
12.579272,7.849507258175883,0.10696831390877239
12.581651999999998,7.860872028064065,0.10662865891916892
12.584052,7.8720970283253875,0.1062953989888647
12.586436,7.880808071161094,0.10597075903525938
12.588832,7.877646279145161,0.10576253566942256
12.591228,7.871179133770694,0.10556294833282928
12.593616,7.861127095783974,0.10538467480538816
12.595996,7.844836438132527,0.1052421622554114
12.598392,7.8241694919359075,0.10512140590454824
12.60078,7.805923955366286,0.10496047691495629
12.60316,7.789448202117605,0.10475382400625627
12.605563999999998,7.7673854555102535,0.10458798464392256
12.607952,7.740806650730871,0.1044496990930354
12.610332,7.707569917406179,0.10436519918326861
12.612728,7.675683658521846,0.10425458589367792
12.615116,7.64114367258504,0.10415678776087046
12.617496,7.603810189968897,0.1040776728093275
12.619899999999998,7.568898116979753,0.10395775666258728
12.622284,7.539061180670078,0.10378340250960287
12.624664,7.506802834733407,0.10364694687838824
12.627067999999998,7.474264949543016,0.103521652475613
12.629455999999998,7.439724963606206,0.10341434812235689
12.63184,7.402251711363203,0.1033335077212465
12.634235999999998,7.364126832814139,0.1032451608399801
12.63662,7.330425464638491,0.10309654193670513
12.639004,7.301939002769177,0.10288490457664534
12.6414,7.276525576832916,0.10263835567275756
12.643788,7.253905647575992,0.10236949053927594
12.646168,7.2343587542521215,0.1020649698569413
