Time,Force,Position
4.069604,1.837462206970974,0.168542998597277
4.07194,1.940609946498964,0.1682435753710848
4.076632,2.1397375361883078,0.1678054684249688
4.078975999999999,2.236928091163159,0.1674936155553468
4.08132,2.338868917593389,0.166586791626992
4.0836760000000005,2.436527899134934,0.1656638667915656
4.08602,2.530044805414654,0.1646341861905928
4.088364,2.622911981246186,0.1633247274025142
4.090707999999999,2.716991757749085,0.1615819869965847
4.093044000000001,2.803065027124186,0.1599719194036232
4.0953800000000005,2.888581113849716,0.1581525281297819
4.097728,2.968512103074446,0.1562573279997132
4.100084000000001,3.0360130747979626,0.1547744624500987
4.102423999999999,3.098161266446156,0.1533491366296111
4.104768,3.1512320157799123,0.1521518620339555
4.107108,3.1940146179857334,0.1512245801158371
4.109451999999999,3.2267886123173395,0.150467060299956
4.111788000000001,3.255792618439458,0.1497089312580594
4.114132,3.2807470970983688,0.1489508961299728
4.116484,3.297368307547518,0.1483969278578433
4.118824,3.3113830127724366,0.1478397751031755
4.121167999999999,3.319718176840067,0.1474048138892638
4.123512,3.332384303482496,0.1466932549224217
4.125864,3.338020414527278,0.1461734452232763
4.128208000000001,3.332622308481581,0.1459889237413404
4.142303999999999,3.2737870536233973,0.1458556108243312
4.144640000000001,3.2661998553761795,0.1458400282437164
4.146988,3.262616858621796,0.1456861737424214
4.1493400000000005,3.2579629266807726,0.1455754528425568
4.151684,3.2531692251128908,0.1454808111344691
4.154028,3.2502378546645647,0.1453308203484467
4.156371999999999,3.249820441641853,0.1451291630645615
4.158708000000001,3.247540697499585,0.1449837759876063
4.161056,3.2451211837304568,0.1448544674195808
4.172776000000001,3.220404710070632,0.1448040327657117
4.179796,3.2054173050313004,0.1446712137965375
4.182136,3.1984817330901403,0.1446634411652671
4.184476,3.1999738730152294,0.1443109865729542
4.186816,3.200674617007399,0.1439708854488837
4.189159999999999,3.20151513062643,0.1436117960140141
4.191496000000001,3.195418176446431,0.1434987422286556
4.193835999999999,3.193185654132406,0.1432617001572355
4.19618,3.1889510310719644,0.1430936714266589
4.198523999999999,3.185647573571301,0.1428980455431056
4.200856,3.1842064471901947,0.1426494021094896
4.203196,3.182905090435948,0.1423828917194053
4.205544,3.1771802233082878,0.1423082106463881
4.210228000000001,3.164939093120047,0.1421679323671244
4.212572,3.1624270315523018,0.1419587182627241
4.214912,3.161637531477253,0.1417100514850221
4.217256000000001,3.163129671402341,0.14134958491225
4.219595999999999,3.169557178380041,0.1408258728941804
4.22194,3.1701181527453515,0.140500783391942
4.224288,3.1717500622973,0.1401307415087624
4.226628,3.1795280437153592,0.1395211218590988
4.228972000000001,3.1834415932674456,0.139045288649449
4.231311999999999,3.1833509413266974,0.1387163081302022
4.2336480000000005,3.18340005901281,0.1383711274337775
4.235992,3.1855910470721995,0.1379421718942198
4.238336,3.188852970318228,0.1374704986235289
4.240679999999999,3.189461166511781,0.1370638080692107
4.243024,3.1959358953177244,0.1364761853834462
4.245364,3.203481559310306,0.1358517090389733
4.247707999999999,3.207162791436915,0.1353426655448417
4.250043999999999,3.21270635468308,0.1347860102493043
4.252392,3.224395989795356,0.1340129067949936
4.25474,3.2350146897209933,0.1332861113853226
4.257084000000001,3.250708526326103,0.1323887001392166
4.259428,3.265471197371435,0.1315306898355693
4.261772000000001,3.2805134076704867,0.1306428838575778
4.26412,3.298488884275734,0.1296784501858926
4.266451999999999,3.305522691589118,0.1290475532119624
4.268800000000001,3.3145585996489197,0.1283465383469503
4.271144,3.3229428814026627,0.1276371394578628
4.273484,3.333329263902823,0.1268823613781778
4.275828000000001,3.344507042335901,0.1261204943991957
4.278172,3.3546138855823413,0.1253964033770563
4.280524,3.366583059948338,0.1246369717303806
4.28286,3.376270594314197,0.1239703022497641
4.285208000000001,3.3828850927470007,0.1233947752339269
4.287552,3.385355620060111,0.1229490630609021
4.289896000000001,3.384101485134108,0.1225943962790443
4.292235999999999,3.37884314871527,0.1223569825718409
4.29458,3.376238539348908,0.12206906053647
4.296924000000001,3.374704865169184,0.121746073861826
4.299268,3.3753130613627373,0.1213570686058753
4.301612,3.374850322369652,0.1210028335016588
4.303964000000001,3.374108044122846,0.1206828005770951
4.306304000000001,3.372155061062542,0.1204132070139454
4.308643999999999,3.3711332435620154,0.1201250137777678
4.310992000000001,3.3667588508747133,0.1199539624759303
4.313331999999999,3.370113321919358,0.1195958039092435
4.31568,3.375981750389618,0.1192109806678682
4.318020000000001,3.3852953018452703,0.118783948735217
4.320368,3.388183242181092,0.1185595443852844
4.322708,3.3898604777034134,0.1183827957715803
4.325052,3.3915377132257367,0.1182051884811301
4.327404,3.3912128480016426,0.118081260894106
4.329744,3.3927503138971047,0.117919898298271
4.332084,3.3990833772183184,0.1176495032381597
4.334424,3.412074369084841,0.1172313911435816
4.336772,3.4287900231904773,0.1167455386583351
4.339116000000001,3.452303375468282,0.1161051086956421
4.341455999999999,3.477167202186445,0.1154156593379811
4.343795999999999,3.5010998633448303,0.114758268911656
4.346144000000001,3.520469244502941,0.1142677800233202
4.348483999999999,3.544913762340524,0.1136611672666314
4.350828,3.565493848312133,0.1131365352710006
4.353168,3.5871448694703814,0.1125847917219435
4.355511999999999,3.60758518581513,0.1120814435202583
4.357851999999999,3.631238307719795,0.1114912352702363
4.360192,3.657033299997736,0.1108621445645171
4.362539999999999,3.6849701626489546,0.1101942461778349
4.364879999999999,3.711836090113535,0.1095690332005847
4.367224,3.7447083198173674,0.1088142270610581
4.369564,3.783586851760447,0.1079461439296788
4.3719,3.827121211502421,0.1070191446299713
4.374248,3.874380233483507,0.1060536327273477
4.376595999999999,3.922710190651232,0.1050751617157158
4.378936,3.971691774125016,0.1041276878243325
4.381276,4.022256149464634,0.1032084198153073
4.3836200000000005,4.071190511110174,0.1023790792630367
4.385956,4.117703463128716,0.1016423208974879
4.664828,2.821170295156982,0.10112505344663
4.667176,2.8308540378071028,0.1010141648442779
4.669523999999999,2.84212057232306,0.1009043005707309
4.671860000000001,2.8581827042647685,0.1006959607834415
4.674204,2.8861176710581176,0.1002300824246772
4.676551999999999,2.912562393784248,0.0998515863385276
4.678888000000001,2.942731778749492,0.0994224770961885
4.681236,2.9722023155804336,0.099066600630863
4.683576,3.0055372842773505,0.0986415142666891
4.685924,3.0392443400266043,0.0982645924851711
4.68826,3.0754653532014724,0.0978877113931896
4.690604,3.112337992682398,0.0975256117010006
4.692952,3.1482794666035465,0.0971770909645448
4.695288,3.187014437204029,0.0968044072513515
4.697644,3.2358996811634566,0.0962015793361232
4.699984000000001,3.281432349936108,0.0957072342536903
4.702323999999999,3.33134130725393,0.0951847289654182
4.704663999999999,3.384043761251088,0.0946264654268672
4.707004,3.4391676248752425,0.0939847754248066
4.709364000000001,3.494011949245677,0.0934026867884644
4.711712,3.54964766954903,0.0928371926335207
4.714055999999999,3.60006848354605,0.0924122337312871
4.716396,3.648487196796654,0.0920207448997375
4.718736,3.6986284715399536,0.0916324233909968
4.721080000000001,3.7376883073645306,0.0914652758348106
4.723424,3.7806125750550814,0.0912463679325731
4.725764,3.819253101999078,0.0911229702645695
4.7281,3.862456908943349,0.0908842330563926
4.730444,3.902308140700844,0.0907298667379883
4.7327840000000005,3.94271845096578,0.090526916324995
4.735128,3.978333163804965,0.0903899255358275
4.737463999999999,4.015018811830787,0.0902306858624887
4.739808,4.053706560603026,0.0900399454821663
4.742148,4.090671747882569,0.0898702271424286
4.7444880000000005,4.123353194415558,0.0897955247626316
4.746832,4.159387216135323,0.0896471636147484
4.749172,4.1911847189367775,0.0895165525604849
4.751524,4.220188725058896,0.0894150480230226
4.753868000000001,4.25198622786035,0.0892941754845134
4.756216,4.281130003609329,0.089192532590607
4.7585560000000005,4.306409347492335,0.0891361603100705
4.760911999999999,4.330897295442423,0.0890764232670347
4.763252,4.360088293019644,0.0889100482937854
4.765596,4.387556729104171,0.088754777256489
4.767939999999999,4.417167035561974,0.0885562524136429
4.770275999999999,4.440678491981909,0.0883892897609852
4.772624,4.467030666909422,0.0881326185172533
4.774967999999999,4.49030980590388,0.0879280039933217
4.777308,4.518291994525472,0.0876228732957524
4.779655999999999,4.542829060161673,0.0873308454219054
4.782,4.56964776579801,0.0869911076854762
4.784352,4.597165319568648,0.0866071943534247
4.786692,4.626033347779645,0.0861937838618458
4.789035999999999,4.649454152258833,0.085818226520115
4.791388,4.670920077819847,0.0854076243943631
4.793723999999999,4.688940880395467,0.0850112493936764
4.796063999999999,4.707241222224809,0.0845971058826492
4.798411999999999,4.725169477001813,0.0841505170620797
4.800756,4.734717241740812,0.0837704521330946
4.803103999999999,4.742821984240835,0.0833759556021254
4.805444,4.752556740434937,0.0829245286451532
4.807791999999999,4.759125912897367,0.0824584080460081
4.810131999999999,4.758757617560766,0.0820731592235705
4.812476,4.7522904721863,0.0817049882897039
4.814824,4.743588908639939,0.0813159509596255
4.817156000000001,4.73381640990694,0.0809405151494061
4.8195,4.720319248934827,0.0805921954831724
4.82184,4.706450000910378,0.0802105166350316
4.824188,4.687365846579596,0.0799025386181198
4.826528,4.668002152995093,0.0796124660722229
4.828868,4.64933730754489,0.0792712779803628
4.831216,4.626388721348135,0.0789939458528171
4.83356,4.598504768098768,0.0787663445357827
4.835903999999999,4.574485246715373,0.0785011710863751
4.838244,4.548323854958701,0.0782647132780254
4.840584,4.5220226935751695,0.0780354319653489
4.842916000000001,4.494650597004999,0.0778194956511902
4.845255999999999,4.467278500434829,0.0776002221893298
4.8476040000000005,4.441908504611076,0.0773566628118584
4.849944000000001,4.412394537667629,0.0771656699566612
4.852288,4.383160109977902,0.0769495852588835
4.8546320000000005,4.361514776393261,0.076672939023743
4.856972000000001,4.340148982062342,0.0763725742351263
4.859316,4.326372281836508,0.076012723659383
4.8616600000000005,4.316460013476649,0.0756176435253934
4.864008,4.309620781049845,0.0751828121022247
4.866348,4.306645980489014,0.0747158725513788
4.868691999999999,4.29938743918163,0.074308057485099
4.871036,4.2896149404486295,0.073892148155118
4.873379999999999,4.281332685782851,0.073426596771331
4.875724,4.269558086303434,0.0730274845741039
4.878072,4.258342565331459,0.072583230040443
4.880412,4.248197979546123,0.0721202978745029
4.882768,4.236191062641229,0.0716671331717389
4.885108000000001,4.227908807975448,0.0711911818200128
4.887452,4.218415848496169,0.0707384196880831
4.889792,4.2097142849498095,0.0702899143335674
4.892128,4.198591311776451,0.0698903169343498
4.894475999999999,4.190261835282429,0.0694741845513153
4.896827999999999,4.189940761774072,0.0689734743479403
4.899172,4.187849904944777,0.0685408757170621
4.901515999999999,4.182686012182426,0.0681484478660677
4.90386,4.178825372032192,0.067785392067733
4.906208,4.169749825575623,0.0674880716882198
4.908543999999999,4.1594635743055575,0.0672157886668215
4.9108920000000005,4.14889778378177,0.0669636079470424
4.913244000000001,4.132977317324791,0.0667837433866479
4.91558,4.12399431866684,0.0665419219727857
4.917923999999999,4.12087785262128,0.0662528526786554
4.92028,4.119483948068417,0.0659663458169983
4.922616,4.117019108328916,0.0656912332843297
4.924972,4.118790787507724,0.065428629013877
4.927312000000001,4.123495732992727,0.0651456677597372
4.929651999999999,4.128572765530069,0.0649001402930211
4.931991999999999,4.132439093253912,0.0646799118242524
4.934332,4.143522428030503,0.0643864641924068
4.936679999999999,4.155956237247454,0.0640616877389571
4.939012,4.174396348703656,0.063686486163699
4.941356000000001,4.191765524973219,0.0633273875105339
4.943695999999999,4.203919794936449,0.063027556478667
4.946047999999999,4.2175643089669,0.0626842988831712
4.948383999999999,4.228135787064294,0.0623705794492384
4.950728,4.242199609975325,0.0619993575380327
4.953075999999999,4.260267634379189,0.0615969119062439
4.955416,4.280197989902609,0.0611928435207119
4.95776,4.301199280612669,0.0607787799711124
4.960100000000001,4.328346643188839,0.0603092831031959
4.962444,4.351489804272175,0.0598758400605014
4.964784,4.372491094982234,0.0594731135920469
4.967128000000001,4.392281680878794,0.0590956236230293
4.969467999999999,4.416867864201107,0.058695907738292
4.9718160000000005,4.436937989351388,0.0583012587242393
4.974156000000001,4.454866244128391,0.0579344649321448
4.9765,4.473213807785976,0.057539321006308
4.97884,4.491049514764363,0.0571181197883141
4.981176,4.502878919503499,0.0567446273382934
4.98352,4.511215979428999,0.0564244851737939
4.985856,4.516759542675165,0.0561128511119631
4.988196,4.520440774801774,0.055803774355028
4.990539999999999,4.527195042861438,0.0554704120785841
4.99288,4.5335300020405205,0.0551660306519551
4.995224,4.544940097899076,0.0548269092093127
4.997564000000001,4.554068553757494,0.0545218771739531
4.999912,4.560263743309717,0.0542318413698957
5.002252,4.562734270622827,0.0539479476331704
5.0046040000000005,4.562411301256603,0.0536677282987403
5.006948,4.559155065584181,0.0534021357774244
5.009292,4.554176268419064,0.0531273705210483
5.011635999999999,4.54705560088067,0.0528720167943593
