Time,Force,Position
10.402024,0.9852955863130382,0.1596717810308221
10.404408,0.993443758925566,0.1585524892076645
10.406804,0.999310291537956,0.1578764032612296
10.409192,1.008249860083402,0.1568217486498951
10.590771999999998,1.0834248902791457,0.1567975870836668
10.593176,1.1016761144223743,0.1545275472638561
10.595564,1.1149919715129912,0.1530853898312356
10.597943999999998,1.123092922297276,0.1523793951612815
10.600348,1.1294713115888635,0.1518193995859627
10.602736,1.137572262373148,0.1511290916137337
10.605116,1.1506085802100443,0.1499099956968997
10.607519999999996,1.172864005846107,0.1476833643400256
10.609907999999995,1.1872507981233626,0.1463567474208424
10.612288,1.2000547985347818,0.1451345406461183
10.614691999999998,1.213650194879119,0.1439053662657788
10.617075999999996,1.2264541952905383,0.1426831594910547
10.619456,1.2424710012618732,0.1411583698452516
10.621859999999998,1.2538319794343165,0.1400633995722305
10.624247999999998,1.268126223912955,0.1387850580765517
10.626628,1.2824204683915932,0.1375067165808728
10.629032,1.2905686410041208,0.1368064565773105
10.631415999999998,1.2965749432433713,0.1363127039618429
10.633796,1.3028607847363425,0.1357374849295572
10.636191999999998,1.3139422236550646,0.1348463998575822
10.638579999999996,1.3264666848127635,0.1339152018225842
10.64096,1.3397825419033809,0.1329949437647633
10.643363999999998,1.3521672334342194,0.1321241356049899
10.645751999999998,1.3659023994054171,0.1310505826886135
10.648132,1.3787063998168363,0.1300272039224667
10.650531999999998,1.3928608746686142,0.128866318612234
10.652919999999998,1.4059444143337538,0.1278754437520523
10.6553,1.4107400117595057,0.1275797995018972
10.657695999999998,1.4184688754914527,0.1270701206042535
10.660083999999998,1.4269891351563178,0.1265528133104616
10.662464,1.4307137973954314,0.126330082746686
10.664859999999996,1.440444761873795,0.1256986465145088
10.667247999999995,1.4429587192994098,0.1256139170308588
10.672027999999996,1.4499415130688125,0.1255148004056961
10.674415999999995,1.4537587231065427,0.1254835731939272
10.676796,1.458926407584632,0.125288064834122
10.827308,1.3499083437285129,0.1247949092430331
10.829704,1.3541920844750672,0.1244687478055712
10.832092,1.361688630781537,0.1239053701975391
10.834484,1.371047508207563,0.1232503031049567
10.836876,1.3784042848871725,0.1226832905994647
10.83926,1.387902931940059,0.1219252365319761
10.841656,1.3979134356721434,0.1212405460121003
10.844047999999995,1.409506731270064,0.1205215503330094
10.846432,1.4203086309350663,0.1197853636147392
10.848812,1.4243128324279,0.11949179384788
10.851208,1.425243997987678,0.1194385393889585
10.853592,1.4276654076146758,0.119175814803178
10.855967999999995,1.4302265868685335,0.1188894482412496
10.858363999999998,1.4346500972419476,0.1185137542808445
10.860751999999998,1.4387940683616416,0.1182082643175634
10.863128,1.444520831347172,0.117905101151755
10.865524,1.4507594510118995,0.1176667538087147
10.867912,1.4612818114231818,0.1171319277034758
10.870288,1.4730148766479625,0.1165139431849858
10.872684,1.4820942148202685,0.1159886399644466
10.875068,1.4871693514997406,0.1156838091508427
10.877447999999998,1.4922444881792132,0.1153881134771367
10.879859999999995,1.4982507904184634,0.1150758837371138
10.882248,1.5036054663516565,0.114743336579147
10.884628,1.514826674897239,0.1141209722395278
10.88704,1.528981149749017,0.1133884539264064
10.889423999999998,1.5426237679215975,0.1126093671872482
10.891804,1.5569652342284792,0.1116969294960548
10.89422,1.5761022979611126,0.1105968013779158
10.896604,1.6024563687464952,0.109090869867543
10.898999999999996,1.628950209158738,0.1075178218795037
10.901404,1.6523710136379255,0.1060892536024523
10.903788,1.6697855158778625,0.1049588693240768
10.906167999999996,1.685337686998243,0.1039287366315725
10.908572,1.7011693973723436,0.1028283999419443
10.910956,1.710343179201136,0.1020089992997718
10.913335999999996,1.7157922987908147,0.1013129364367916
10.91574,1.717888843193718,0.100857925658737
10.918124,1.7177037475964838,0.1005643244876583
10.920503999999998,1.7196605223725268,0.1001474350154527
10.922899999999998,1.7276235993878202,0.0994493301537913
10.925287999999998,1.7347952804701954,0.0987646059459618
10.927664,1.735029493753542,0.0983839538531426
10.930059999999996,1.7381969733430835,0.0978952763227157
10.932444,1.7402935177459868,0.0974733407860341
10.946787999999998,1.6978376766221293,0.0973039649161666
10.949164,1.6964418762113962,0.0971131266458096
10.951556,1.700912608413054,0.0967281600506444
10.953944,1.7063145061744898,0.0963247459077862
10.956324,1.7109250080030076,0.0959164802414486
10.958735999999998,1.718748315391441,0.0953503263672258
11.008912,1.6572536459071745,0.0947604331224246
11.0113,1.6550192277352802,0.0947192064021899
11.013679999999995,1.6537159751231647,0.094657015615712
11.016084,1.660840434377297,0.0942526906718548
11.018472,1.6742507351244,0.0935981915745815
11.020851999999998,1.6891512799387225,0.092813607023084
11.023248,1.7044711336336256,0.0919716200250726
11.025631999999998,1.722212396955526,0.0909500624651209
11.028012,1.741815991396983,0.0898761150705849
11.03042,1.7564842187858285,0.088990061979328
11.032804,1.7771587484139235,0.0878960284363628
11.035183999999996,1.797693508415159,0.0868478462695464
11.037588,1.8225120091629483,0.0856108798227756
11.039976,1.8403930421117092,0.0846092750905768
11.042355999999998,1.85827407506047,0.083607670358378
11.044752,1.8810904750618431,0.0824519591389409
11.116424,1.846501371438924,0.081705125702149
11.118807999999998,1.8450583491999475,0.0816648693362737
11.121188,1.842684161401193,0.0816420135309311
11.125988,1.834350893191432,0.0816350927695159
11.128367999999998,1.8314648487134797,0.0815536055633533
11.130768,1.8313723009148624,0.0814240587004764
11.133156,1.8330023146089416,0.0812873124585464
11.135535999999998,1.837845133862937,0.0810330793784146
11.137932,1.840266543489934,0.0809060259368784
11.14032,1.8452491323707891,0.0806285757983208
11.142699999999998,1.8493005556918665,0.080368135666565
11.145104,1.85549384938622,0.0800293760353095
11.147492,1.8586141071475184,0.0797867417668103
11.149871999999998,1.869742767894484,0.0793297845972248
11.152276,1.88073165901459,0.0788949239045912
11.15466,1.8927914853213343,0.0784224319844173
11.15704,1.9067136427476352,0.0779305419121867
11.159444,1.920356260920216,0.0774957257500936
11.161828,1.933207483159878,0.0770567978119076
11.164208,1.9472694102130392,0.0765652294291761
11.1666,1.96119156763934,0.0760984136881597
