Time,Force,Position
10.283724,1.6563592115729904,0.1677115175944899
10.34106,1.640348093175263,0.1671316597938576
10.343448,1.63881252313767,0.167015496990457
10.345832,1.6367650964208793,0.1668604936111084
10.348228,1.6365800008236453,0.1665869567601206
10.350616,1.6408184155998258,0.1659331950403138
10.352996,1.6449170607491457,0.1653215624647036
10.355392,1.6491554755253257,0.1646980589107725
10.35778,1.662101141421474,0.1633745734022121
10.360176,1.6830552103032903,0.1614131127754411
10.362572,1.7037297399313858,0.1594818657961905
10.36496,1.724683808813202,0.1574964379894432
10.36734,1.7434960073217407,0.1556517591955964
10.369736,1.76244797545714,0.1537691307527118
10.372124,1.778326907659484,0.1521190010428977
10.374508,1.7922037391154113,0.1505735536002127
10.376904,1.8059408009444784,0.1490997728438557
10.379288,1.8181876187063253,0.1478362764721121
10.381672,1.8317376890802888,0.1465921937729448
10.384068,1.8432856587078357,0.1455502369118578
10.386456,1.8532036146413025,0.144714619621733
10.462912,1.8338399210567995,0.1444074403074703
10.484428,1.8457580818788144,0.1440037818243942
10.486816,1.8488311178118704,0.1438015599112682
10.4892,1.849390196319311,0.1436854124348788
10.491596,1.852742771506087,0.1434302753454712
10.493984,1.8570265122526408,0.1431328236335453
10.496364,1.863452123372472,0.1426889704420256
10.498764,1.8772345111719129,0.1417598644334207
10.501152,1.8883631719188787,0.1409348594946803
10.503532,1.896046709680452,0.140235455535457
10.505932,1.90694305300194,0.1393082206634095
10.50832,1.9162566044575928,0.1384020703432207
10.5107,1.9238475944205489,0.137601067710907
10.5131,1.924361346957616,0.1372216301653782
10.515484,1.9248750994946828,0.136838309184946
10.517868,1.920034176098557,0.1368048730046085
10.520268,1.9201286197550436,0.1365039613465412
10.522652,1.925298200091002,0.1359117991731627
10.525036,1.935123608225852,0.1351015652640163
10.527432,1.9409448148678683,0.1345096096276507
10.572824,1.906129081393079,0.1337741459673241
10.575204,1.905384907288404,0.1336385946338075
10.577608,1.9042214243031488,0.1335828090029296
10.579992,1.907993308370505,0.1332922995273302
10.582372,1.916048933184416,0.1327321149797537
10.584768,1.9243840972520465,0.1321188488871106
10.587152,1.9319278653867595,0.1315147654157109
10.589548,1.9385404679616935,0.1309372823866509
10.591948,1.9452928401634888,0.1303340734323606
10.594336,1.948832406805368,0.1299290405463609
10.596716,1.9487870808349936,0.1296560322626797
10.59912,1.954748057103871,0.1290732230840721
10.601504,1.962850903746024,0.1283720762483787
10.603884,1.971093520015038,0.1276687070419564
10.606288,1.9818500937096664,0.1269027740610735
10.608672,1.9999634440839045,0.1257539379785258
10.611052,2.012861888151809,0.1248799831061611
10.613456,2.030695699272328,0.1237780520035751
10.615844,2.042383438526734,0.1229820336194192
10.618224,2.0519293074078635,0.1223000524521689
10.620624,2.0585419099827984,0.1217513283554972
10.623008,2.0619417069978176,0.1213938865498143
10.632552,2.042763109010549,0.1213894540126999
10.634956,2.0384340422936207,0.1213685012834662
10.63734,2.041042443375722,0.1210323674515835
10.66362,1.990581990981935,0.1208954706134275
10.666008,1.9874636290785055,0.1207823118105162
10.668388,1.990351569414327,0.1204110283589722
10.670784,1.996731854563784,0.1198324462960296
10.673172,2.005393779713379,0.1191010736084002
10.675568,2.017920136728947,0.1182242073213358
10.677964,2.0336592993044302,0.1172253097884092
10.680352,2.0511210233726107,0.1161934634999711
10.682732,2.0699332218811497,0.1150963348057522
10.685128,2.08180795259066,0.1142873692186892
10.687512,2.0924719784866714,0.1135464713511106
10.689892,2.1048585658753787,0.1127858621067125
10.692296,2.114731195838472,0.1120548674083587
10.694684,2.1283284880406788,0.1112208792996353
10.697064,2.14457950729536,0.1103095991160599
10.69946,2.160178900243984,0.1093609844233191
10.701848,2.172565487632692,0.1085540348951854
10.704228,2.1870939453946763,0.1076168484497966
10.706624,2.2029728775970203,0.106604429855452
10.709008,2.2240667161056966,0.1053646742139907
10.711404,2.241296122748399,0.1043048995323641
10.7138,2.2553127238311865,0.1034068990547968
10.716188,2.2613209219283066,0.1028089385011989
10.718568,2.265838875958207,0.1023379426176707
10.720972,2.27529219704072,0.1017170889506258
10.72336,2.2815327125633167,0.1012353287298202
10.72574,2.281347616966083,0.1010229056057669
10.728136,2.281302290995709,0.1007911105062687
10.730524,2.277904389838559,0.1007083623412462
10.732904,2.278231150920523,0.1005407537562507
10.735308,2.283912587935679,0.100170190966741
10.737692,2.288011233084999,0.0998041560297754
10.740076,2.2959743101002927,0.0993405382095886
10.742472,2.300072955249613,0.0989767874855747
10.744856,2.305661844466152,0.09851598989251
10.747236,2.315906561481582,0.0979637272285494
10.749632,2.332157580736264,0.0972375565665085
10.75202,2.352273031856919,0.0964297858462382
10.754416,2.369035907790798,0.0957654904501389
10.756812,2.3813752733512623,0.0952797260809673
10.7592,2.391432998911589,0.0948844698718261
10.76158,2.4032132859646134,0.0944717666186702
10.763976,2.418997774510471,0.0939341519371772
10.766364,2.4349220326831884,0.0933849139452025
10.768744,2.4406960174969616,0.0931338941391888
10.77114,2.4475409374973736,0.0928421358083652
10.773528,2.456527727871062,0.0924665841517306
10.804592,2.418680492717854,0.0922395075624842
10.806988,2.413280490814287,0.0921987630476156
10.809372,2.40923096335108,0.0920855689998737
10.811756,2.405181435887872,0.0919718961320621
10.814152,2.399269577305107,0.0918879305544963
10.81654,2.403368222454428,0.0915564032711381
10.81892,2.410028046857605,0.0911078335061946
10.821316,2.416967410514504,0.0906237181880901
10.823704,2.422184212678705,0.090147054763614
10.826088,2.43126544670888,0.0895911356411359
10.828484,2.4422090118586115,0.0889934832577136
10.830872,2.4554342170084813,0.0883089442591717
10.833252,2.467868026225432,0.0876161395923895
10.835648,2.478951361002024,0.0870030809999826
10.838036,2.4858907246589226,0.086508651994361
10.840432,2.4948321890622376,0.0859660415555925
10.842828,2.4988382864129406,0.085535517430771
10.845216,2.5027046141367832,0.0851244261015444
10.847596,2.511506308913238,0.0845985848946359
10.849992,2.518957529249334,0.084149400514243
10.852384,2.527200145518348,0.0837091776858301
10.854764,2.5345115962275835,0.0832868581747742
10.85716,2.536096283951289,0.0829653659583639
10.859552,2.5375412020481343,0.0826627896067826
10.861928,2.5377754153314807,0.0824083677924737
10.864332,2.5362870671221307,0.0821685009711854
10.866716,2.530375208539366,0.082070704389622
10.869096,2.523392414769963,0.082002561236716
10.8715,2.5192031176798952,0.0818958268968099
10.873884,2.5134310287239914,0.0817773959767338
10.876264,2.508869644581586,0.0816097762704527
10.878668,2.501235224506125,0.0815138929882907
10.881052,2.494951278871023,0.0813501493061275
10.883428,2.488807102862781,0.0811679398996139
10.885824,2.486155271668176,0.0808584255527513
10.888208,2.480570174167376,0.0806013882563368
10.8906,2.478989278159409,0.0802586064982772
10.893004,2.4796900221515794,0.0798413857596137
10.895392,2.4768058735314966,0.0794518777937332
10.897768,2.476994760844469,0.0789983468048708
10.900176,2.4742503818512467,0.0785936954882545
10.90256,2.467641570992051,0.0782457855504016
10.90494,2.463034860879272,0.0778497335732418
10.907344,2.457124898154376,0.0773988420686092
