Time,Force,Position
10.099836,0.9352970689008694,0.1488769440214848
10.102239999999998,0.944795715953756,0.1475632049436222
10.104627999999998,0.9488471392748328,0.1468160106032865
10.107008,0.95303833222277,0.1460179662129385
10.118963999999998,0.9469413780427712,0.1456013601140802
10.121344,0.945777895057516,0.1455018668628067
10.123739999999998,0.9507604839383712,0.144694515233427
10.126127999999998,0.9606784398718382,0.1433789317678291
10.128508,0.9715275613650838,0.1418946561641167
10.130903999999996,0.9851701795376642,0.1401044517001739
10.133292,0.9989525673371048,0.1381824262252606
10.135687999999998,1.0127349551365457,0.136282720201586
10.138084,1.0250270988687673,0.1346844839679305
10.140467999999998,1.035317141854572,0.1334095038107088
10.142848,1.0396008826011258,0.1328592818500869
10.145243999999998,1.0410911266683451,0.1325749957209951
10.147631999999998,1.0447232411088412,0.1320509350392962
10.150012,1.0452823196162822,0.1318524372791532
10.154795999999996,1.0439790670041664,0.1318044103558944
10.157176,1.0437467495786892,0.1316220743853147
10.169131999999998,1.0340649027864377,0.1315778983548645
10.362672,1.0255144840141526,0.1251295367662432
10.369843999999995,1.03868867562004,0.1249304397482455
10.372224,1.0477207919641027,0.1243738109826807
10.374616,1.0587550090545823,0.1237027312385898
10.377004,1.0679268950255056,0.1231529118183551
10.379396,1.0783094858099274,0.1224834690302091
10.381799999999998,1.0990746673787708,0.1211850302803419
10.384187999999998,1.1193279922684167,0.1198805997194507
10.386567999999995,1.138510381971424,0.1187009582440044
10.388963999999998,1.1599744116745685,0.1172316446247702
10.391347999999995,1.1762235350713803,0.1162313233629924
10.393728,1.1883286873484986,0.1155746900191727
10.396131999999998,1.1997822133195588,0.1148952375786137
10.398515999999995,1.2116550481711996,0.1141170121714711
10.400899999999996,1.232886760448867,0.1126020663068286
10.403295999999996,1.2521163719801172,0.1111701854716097
10.405683999999995,1.2726964579517264,0.1095670058718092
10.408064,1.292997004669615,0.1081068709272176
10.477363999999998,1.2930895524682329,0.1075849474034534
10.479743999999997,1.2927174654158953,0.1074791730620742
10.482139999999998,1.2977000542967507,0.1069977968097146
10.484527999999996,1.3060352183643815,0.1062813869780328
10.486908,1.3154413176186512,0.1055245229437622
10.489311999999998,1.3239162513131422,0.1048281786143822
10.491699999999998,1.3342535161271902,0.1040654190170202
10.494079999999997,1.344590780941238,0.1032654837065308
10.496475999999998,1.355998980941924,0.1023640322382151
10.498863999999998,1.3609815698227794,0.101911460320615
10.501244,1.370759756129386,0.1012702205215587
10.503647999999998,1.3857528487423256,0.1003094487629645
10.506031999999998,1.4047501428480984,0.0991350021480615
10.508415999999997,1.4245388328867898,0.0979898205566032
10.51082,1.439252386246009,0.0971346336745535
10.513208,1.4568992059114234,0.0961804522705076
10.682848,1.2731555798475616,0.0952651093574707
10.685236,1.275576989474559,0.0950796334103041
10.687615999999998,1.2772070031686382,0.0948909146237109
10.690012,1.2831207576092716,0.0944493066997746
10.6924,1.2922473176098206,0.0938483743747377
10.694784,1.3025845824238689,0.0931614776166328
10.69718,1.3138530127976946,0.0924551853659091
10.699568,1.3312675150376316,0.0914788542372955
10.701947999999998,1.3482627083969878,0.0906218006037334
10.704344,1.3660492976892624,0.0897679209375608
10.706732,1.3898421892207875,0.0886680265404204
10.709115999999998,1.4130760022448714,0.0876650668386009
10.711512,1.4398947078812083,0.0865269324585606
10.7139,1.464851082397989,0.0854724331123965
10.716296,1.4923686361686272,0.0842243849351407
10.718691999999995,1.5238903914320991,0.0828227332773313
10.721079999999995,1.5486144485234026,0.0816949135971673
10.72346,1.5701729218830334,0.0805757847624264
10.725855999999997,1.5835832226301363,0.0798179132421746
10.728243999999997,1.5991353937505168,0.0789360096440452
10.730628,1.6137563993111188,0.0780932672444365
10.733023999999997,1.623674355244586,0.0775839894682555
10.735411999999997,1.632241836737694,0.0771832979427203
10.737796,1.6437425845369975,0.0767122920965204
10.740191999999997,1.6501681956568286,0.0764313208234278
10.742576,1.6575249723364385,0.0761430380866317
10.744955999999998,1.6631591875233511,0.0758620476513958
10.747348,1.662926870097874,0.0757398561954698
10.749731999999998,1.6603203648736424,0.0755818923943598
10.752108,1.6589245644629094,0.0753534309073983
10.75452,1.6505912962531477,0.075315410222602
10.756908,1.644307350618046,0.0750377939531379
10.7593,1.6355094475573295,0.0747479859842191
