Time,Force,Position
12.950276,2.148699592288494,0.1787723851510129
12.952659999999998,2.2273178496117607,0.1774677025135308
12.955043999999996,2.3039831238747235,0.175823635089721
12.957439999999998,2.367054897651218,0.1749896681771033
12.959827999999998,2.4225394731804952,0.1742630414255658
12.962208,2.4779333967690245,0.1730856522704201
12.964612,2.5306754891629484,0.1716449179532093
12.967,2.574200369615575,0.1706112938866364
12.969379999999996,2.604783375887792,0.1700772664852088
12.97178,2.632527559510299,0.1695151766452933
12.974168,2.661716661229652,0.1686260572239184
12.976547999999998,2.685365991418579,0.1679057104039239
12.978952,2.7090625434357483,0.1670761438509607
12.981336,2.728894663586944,0.1664564620345226
12.983719999999998,2.7527309852309734,0.1656490246481951
12.986116,2.7687912213148125,0.1653389926711868
12.988499999999998,2.785083774824129,0.1651008504479688
12.990883999999998,2.806823552065256,0.1646641260202231
12.99328,2.82879564673186,0.164284858886195
12.995663999999998,2.8550042603167745,0.1637939722163392
12.998044,2.886380558379778,0.163138061327157
13.000448,2.9173375475622016,0.1625617370021909
13.002836,2.9494580197298808,0.1620549708269348
13.005216,2.9842322189500345,0.1614447546026474
13.007611999999998,3.0215203755958027,0.1607619131124854
13.009999999999998,3.0559678137339925,0.1603125146866601
13.01238,3.094139914111296,0.1597560896389816
13.014779999999998,3.1301701441153225,0.159288653904832
13.017163999999998,3.172066906731739,0.158584293134198
13.019548,3.2094476111761248,0.15803962720441
13.021952,3.245757380433872,0.1575792609081115
13.02434,3.288073451930869,0.1569030667892256
13.026719999999996,3.330808832308447,0.1561914389587453
13.02912,3.377036557499661,0.1553212218235062
13.031508,3.4206105556384,0.154559452579323
13.033887999999996,3.464883401911441,0.1536974991077915
13.036283999999998,3.507061599639448,0.1528475086569269
13.038676,3.541790472889227,0.1522333632679406
13.041055999999998,3.580151460579504,0.1514518498795051
13.043451999999998,3.6172091956576633,0.1506989088443281
13.045839999999998,3.6521722821907896,0.1499672078034324
13.048223999999998,3.685273037604359,0.1492908729124699
13.05062,3.709853533353064,0.148865989691861
13.053007999999998,3.737786604288544,0.1483143343966412
13.055388,3.766138984104605,0.1477270644646723
13.057783999999998,3.7929085720548295,0.1471600375542675
13.060171999999998,3.814882562579302,0.1467458242117054
13.062556,3.839929589036831,0.1462226679346811
13.06496,3.862183118815024,0.1457861636546973
13.067348,3.888161310832331,0.145254202206981
13.069731999999998,3.910135301356804,0.144850497671172
13.072128,3.924380428149331,0.1446751254884429
13.081684,3.958546431175931,0.1446741415896278
13.084063999999998,3.968787356475623,0.1446294773877015
13.08646,3.9850345840145662,0.1444055465385682
13.093628,4.013243402488028,0.1443228893422537
13.096016,4.021901535921884,0.144300747892317
13.098395999999996,4.035774575662073,0.1441099668591394
13.100791999999998,4.045783183536288,0.1440258491562285
13.103179999999998,4.052858525104308,0.1440211599124942
13.10556,4.062355276299325,0.1439206356403621
13.107955999999998,4.072271336374923,0.14377980180603
13.110343999999998,4.082606705331101,0.1436024194494252
13.115123999999998,4.093826018018815,0.1434735034202812
13.117511999999998,4.097131371377348,0.1434261585331024
13.119892,4.103649530295796,0.1432724308567319
13.122291999999998,4.10644302697513,0.1432063321378813
13.124675999999996,4.115242825893716,0.1429694778218865
13.127071999999998,4.129117761491774,0.1425840592263469
13.129472,4.1389884955969976,0.1423149909040478
13.13186,4.144203401903329,0.1421547384772927
13.134239999999998,4.146485041903468,0.1420732211974711
13.136636,4.14583341559741,0.1420683159984491
13.139024,4.14746342929149,0.1419804825083195
13.141403999999998,4.148441816679511,0.1418882431491566
13.143808,4.147697642574837,0.1418258152241772
13.146196,4.145230906977464,0.1417928066991603
13.148575999999998,4.143043710633813,0.1417334519449039
13.15098,4.142486527984242,0.1415871626287598
13.153368,4.137133747908918,0.1415596502857928
13.155748,4.133271211900814,0.1414579605420417
13.158144,4.124892617720678,0.1414471409080879
13.160532,4.116002166861345,0.1414189092046807
13.162916,4.1153996582414,0.1411444206127673
13.165312,4.114797149621454,0.1408688955000549
13.167696,4.114474180255229,0.1405688455357684
13.170075999999998,4.118295182008698,0.140147584432108
13.17248,4.115598024843718,0.1398708542914267
13.174864,4.108384809506708,0.1396827561543053
13.177243999999998,4.105595104543111,0.1393507731541922
13.179636,4.107089140326069,0.1388887859645845
13.182019999999998,4.108722945735887,0.1384142584021315
13.184416,4.112358851892122,0.1378850522745141
13.248932,4.007209011617715,0.137524916359323
13.251335999999998,4.01205183087171,0.1373439394292912
13.253723999999998,4.014892549379288,0.1372147384196684
13.256104,4.019875138260143,0.1370206743304715
13.258499999999998,4.025788892700777,0.1368047290309191
13.260887999999998,4.027558676021715,0.1367071249341154
13.263268,4.036685236022266,0.1363919133196746
13.265663999999996,4.052749263821843,0.1359056737527548
13.268051999999996,4.062667219755311,0.1355916409228147
13.270432,4.075378672368113,0.1352211190807042
13.272828,4.095167362406804,0.1346623664997996
13.275216,4.117657001326213,0.1339806298778236
13.277596,4.137353143566287,0.1333508608473584
13.279999999999998,4.156257889873443,0.1327264737778523
13.282384,4.17437124024768,0.1321181873335722
13.284764,4.188480389129085,0.1316200282811547
13.287171999999998,4.201937911704432,0.1311264737713731
13.289559999999998,4.213533103160222,0.1306712057072234
13.29194,4.227130395362427,0.130167950917233
13.294335999999998,4.238213730139019,0.129695456926336
13.296723999999998,4.247574503422915,0.1292485160323593
13.299104,4.251860140027338,0.1289324763790691
13.3015,4.257915559952701,0.1285239874172606
13.303884,4.265181684691563,0.1280780139174776
13.306264,4.275800384617201,0.127533571424099
13.308667999999996,4.287769558983197,0.1269300696959231
13.311056,4.294943135923441,0.1264302668638141
13.313436,4.29424807950488,0.1261074643879407
13.315839999999998,4.2908992960338415,0.1258202656055405
13.318227999999998,4.287178425510468,0.1255027862359531
13.320604,4.278661957561341,0.1252834727426256
13.323007999999998,4.271356194425713,0.1250222181421984
13.325395999999998,4.271267438342834,0.1245842918936807
13.327776,4.271178682259956,0.1241447414061674
13.330171999999996,4.267365263937964,0.1237706063016129
13.332559999999996,4.263691615242832,0.1233830042146638
13.33494,4.252940729121812,0.1231605400925617
13.337343999999998,4.24218984300079,0.1229374752585441
13.339731999999998,4.23050779131999,0.1227302879366782
13.342112,4.221199927437947,0.1225087790870278
13.344516,4.213894164302318,0.1222409177966771
13.346904,4.2093818978460265,0.1219227272695149
13.349283999999995,4.2033793873225145,0.1216691259423162
13.351679999999998,4.196585480866084,0.1214198744026663
13.354067999999998,4.184576668103322,0.1212979858359771
13.356448,4.175501121646755,0.1211151751796832
13.358852,4.1701502374293,0.1208690849343122
13.36124,4.167220762838843,0.1205416373835712
13.363619999999996,4.171368525674276,0.1200529269863501
13.366015999999998,4.170301382203376,0.1196900813675537
13.368403999999998,4.1696535476130565,0.1192878320011063
13.370787999999996,4.16686384264946,0.118942433159414
13.373188,4.158999001006391,0.1187125670128303
13.375576,4.1532760297366,0.1184274606597778
13.377955999999998,4.151137951079061,0.11809198043849
13.38036,4.150210577235021,0.1177168204128246
13.382748,4.156639980070591,0.1171597030185595
13.385127999999998,4.164419857346519,0.1165513784267707
13.387524,4.168335302756475,0.1160116644506288
13.389912,4.171738891487232,0.1154529924327567
13.392291999999998,4.172069444284934,0.1149639211917529
13.394688,4.167744169283745,0.1145483309487894
13.397075999999998,4.163558663909415,0.1141189457187471
13.399459999999998,4.154298021855614,0.1138010117439177
13.401856,4.147039480548228,0.1134377100609632
13.404243999999998,4.135776737748011,0.1131607789110666
13.406627999999998,4.120789332708678,0.1129442475037676
13.409024,4.105382618788766,0.1127631986573437
13.411412,4.0850405378162415,0.1126807390656906
13.413791999999995,4.068842427963411,0.1124996568246896
13.416187999999998,4.053016405162918,0.112352288504328
13.418575999999998,4.038121547922204,0.1121880010175203
13.420956,4.020013885121574,0.1121097681311875
13.423351999999998,4.002045991947803,0.1120139917060374
13.425736,3.9843576380277534,0.1118901191022224
13.428116,3.96825207597354,0.1117578479912304
13.430519999999998,3.949725104292329,0.1117002515074257
13.432907999999998,3.9298476581707593,0.1116916057918664
13.435288,3.917838845407997,0.1115303244193408
13.437683999999996,3.905830032645234,0.1113672117979481
13.440072,3.8998275221217216,0.1110846892566866
13.442452,3.89955177458374,0.1107070707630242
13.444851999999996,3.9009985885384544,0.1103147638464626
13.447236,3.907101230292061,0.1098514585509642
13.449635999999998,3.915345742418944,0.1093380834501758
13.452032,3.9265235208520224,0.1087716372565211
13.45442,3.9384926952180175,0.1082002546352248
13.456799999999998,3.948459768837598,0.107662606869575
13.459196,3.96173219581571,0.1071034045306988
13.461583999999998,3.973654148353464,0.1065954718106734
13.463964,3.986507266450996,0.1060718817774992
13.466368,3.998149679735029,0.105586739002083
13.468756,4.01700910007181,0.1049409984681625
13.471135999999998,4.032376175594957,0.1044000848766207
13.473536,4.045601380744826,0.1039144599571822
13.475924,4.0536116795883625,0.1035464372733472
13.478303999999998,4.062692913618538,0.1031546244639286
13.4807,4.074707413954909,0.1027123672528715
13.483088,4.080575842425168,0.1024035984364086
13.485467999999996,4.084814257201348,0.1021687563567173
13.487863999999998,4.084768931230974,0.1020373197947423
13.490251999999998,4.083001043767903,0.1019198914430567
13.492635999999996,4.079370825185277,0.1018274793674194
13.49504,4.076671772162428,0.1017229338962024
13.497424,4.07369317988586,0.1016420584595194
13.499803999999996,4.069643652422651,0.1015847212122322
13.502199999999998,4.067456456079,0.1015035017860763
13.504587999999998,4.067131590854906,0.1013976718204969
13.506971999999998,4.068436739324891,0.1012223097414151
13.509376,4.073094462981652,0.1009662829589746
13.511764,4.078962891451911,0.1006766653155104
13.514143999999998,4.087904355855226,0.1003309511089382
13.516544,4.092562079511987,0.1000794274619174
13.518932,4.098570277609107,0.0997800942648537
13.521311999999998,4.104718245333087,0.0994683143178301
13.523708,4.114218788243842,0.099072669993779
13.526096,4.1225086263411,0.0987136536968547
13.528479999999998,4.126654493318663,0.0984352916921465
13.530876,4.133873396229281,0.0980992975270332
13.533264,4.142722312833979,0.0976930002789161
13.535643999999998,4.151850768692398,0.0972641980896094
13.538048,4.160559915670236,0.0968714567858658
13.540436,4.173133494514047,0.0964262727667888
13.542815999999998,4.179980310372327,0.0960572783267419
13.545212,4.187898061417247,0.0956699009277153
13.5476,4.197678143581724,0.0952638884065487
13.549979999999998,4.208668930559698,0.0948298424360072
13.55238,4.224595084590286,0.0943263562597739
13.554764,4.239030994553653,0.0938840462205848
13.557147999999998,4.249974559703385,0.0935295291275059
13.559552,4.261849290412895,0.0931699302943589
13.56194,4.272001459629709,0.092822568746177
13.564324,4.284435268846661,0.0924250856578116
13.56672,4.298451869929448,0.0920313612211359
13.569108,4.314982428437849,0.0916334233105891
13.571488,4.332304382879169,0.0912398304122925
13.573884,4.346832840641153,0.0908704408412178
13.576272,4.363503168776416,0.0904584327849862
13.578656,4.381244432098316,0.0900329755076931
13.581052,4.399777091353134,0.089613353464982
13.58344,4.418169980981093,0.0892061453383439
13.585819999999998,4.436702640235912,0.0887888585135937
13.588224,4.454443903557812,0.0883786692719619
13.590612,4.478191469118963,0.0878847173984259
13.592992,4.495932732440864,0.0874719015628275
13.595388,4.51088049908343,0.0870868857405818
13.597776,4.52261546016608,0.0867608959937994
13.60016,4.5307655286364765,0.086462353736034
13.602556,4.538124201173954,0.0861625732264474
13.604944,4.551628945577543,0.0857783537246761
13.607323999999998,4.563271358861576,0.0854132634707796
13.609728,4.5744944632650295,0.0850796181098753
13.612116,4.583156388414622,0.0848120381418166
13.6145,4.5940999535643545,0.0845031999332859
13.616903999999998,4.603460726848251,0.084191354396437
13.619287999999996,4.61095916901259,0.0838946145082805
13.621668,4.625534848602817,0.0835099865603723
13.624064,4.643323333752962,0.0830800732819105
13.626452,4.659901114089608,0.082681719450145
13.628832,4.675547728866474,0.0822929237723102
13.631235999999998,4.691194343643341,0.0819049966853148
13.633623999999998,4.706840958420207,0.0815179364070905
13.636004,4.721416638010435,0.0811519116488431
13.6384,4.735712778346943,0.0808099507317773
13.640788,4.757225925736201,0.0803773854614591
13.643168,4.779949777938955,0.0799207739859878
13.645567999999995,4.806817601261405,0.0794155325619989
13.647956,4.83540798607655,0.0789136038244524
13.650336,4.864277910145417,0.0783957824102547
13.652732,4.888492006415393,0.077917115007229
13.65512,4.910424462685231,0.0774756838759985
13.657504,4.93049458783551,0.0770434700058806
13.659907999999998,4.956198928172705,0.076523583370854
13.662292,4.977899067017065,0.0760489669161813
13.664676,4.999319666607705,0.0755936543792716
13.667071999999996,5.0238133021314,0.0751073116415831
13.669459999999996,5.042300635415844,0.0746845144035356
13.67184,5.056643997580594,0.0743129487463035
13.674239999999998,5.070056194185566,0.0739479186413384
13.676627999999996,5.08332862116368,0.0735928012029535
13.679004,5.097020357022372,0.073212743338681
13.681411999999998,5.111783028067704,0.0728209460000945
13.683795999999996,5.1205393968737845,0.0724816389059877
13.686176,5.126502269000531,0.0721577875371305
13.688572,5.130183501127139,0.0718729864294676
13.69096,5.134516359559806,0.0716022820175513
13.693344,5.1347052468727785,0.0713767627344506
13.69574,5.133962968625973,0.0711570210583099
13.698124,5.134803482245004,0.0709469948878223
13.700508,5.134433291050535,0.0707581225318953
13.702904,5.13941777578926,0.0705066902265051
13.705288,5.1485462316476776,0.0702140010222935
13.707672,5.151388846013125,0.0699895031964911
13.710068,5.157164726684768,0.0697457410222189
13.712456,5.163220146610131,0.0694854501129691
13.714852,5.168064861721995,0.0692477808239559
13.717247999999998,5.177565404632751,0.0689924330443124
13.719632,5.189999213849702,0.0687190545171525
13.722016,5.204295354186209,0.0684401809695149
13.724411999999996,5.219522660082497,0.0681589450906241
13.726803999999998,5.233911348217619,0.0679277627144436
13.729188,5.252164468218718,0.067679364847813
13.731583999999998,5.280148552698179,0.0673732497961232
13.733971999999998,5.309994968297198,0.0670614315569028
13.736352,5.341983254269493,0.0667319535453072
13.738751999999998,5.37290060505515,0.0664150719382406
13.741139999999998,5.403817955840808,0.0660967279561421
13.74352,5.432453666626328,0.0658095951062995
13.745915999999998,5.460158211852069,0.0655285989059963
13.748303999999996,5.488514383383869,0.0652598375601336
13.750684,5.513378210102033,0.0650434843064488
13.75308,5.538753893499393,0.064851532167708
13.755468,5.569064943949367,0.0646303784332351
13.757852,5.599236224772482,0.0644205844992063
13.760248,5.633411707088427,0.0641891130072627
13.762636,5.666516254217735,0.063969170672435
13.76502,5.693754268734653,0.0637810280969611
13.767416,5.718850412878293,0.0636152766888713
13.769804,5.741153060342599,0.0634585840349147
13.772188,5.762524542247125,0.0633055265544742
13.774583999999995,5.782453001912678,0.0631337691667699
13.776972,5.795443993779201,0.0630047108853841
13.779356,5.800706121913776,0.0629117223879803
13.781759999999998,5.807178954861851,0.0628022103534543
13.784143999999998,5.809507816690232,0.0627252888253685
13.786524,5.81425808814561,0.0626145536301312
13.788928,5.8214297692279855,0.0624700428093372
13.791315999999998,5.829160528817801,0.0622955783189983
13.793696,5.837031058034478,0.0621147705009391
13.796096,5.847462766505012,0.0618939709557677
13.798483999999998,5.858313783856127,0.0616513087264377
13.800864,5.865719678221848,0.0614036636437819
13.803259999999998,5.871123471841153,0.0611694711794233
13.805647999999998,5.872802603221344,0.0609435546487849
13.808032,5.866193792362147,0.060777048407449
13.810427999999998,5.862797787062868,0.0605837918431275
13.812815999999998,5.865547853629698,0.0603503807425497
13.815196,5.870439790569807,0.0600998331415755
13.817591999999998,5.875191957883053,0.0598557649673307
13.819983999999998,5.879804355569441,0.0596189878601148
13.822364,5.8901435162413565,0.0593652583144273
13.824768,5.899691280980356,0.0591041929290619
13.827156,5.914314182398828,0.0588125376530433
13.829535999999996,5.926934983070882,0.0585337771016252
13.831936,5.939555783742937,0.0582540628738486
13.834324,5.948824009228215,0.0580094444937116
13.836703999999996,5.956601990646274,0.0577960904671422
13.839104,5.968104634303447,0.0575780387529137
13.841492,5.974671910908008,0.0573812662441224
13.843871999999998,5.980028482699071,0.0572018014886483
13.846267999999998,5.98724738560969,0.0570205082115959
13.848655999999998,5.994326518893446,0.0568460383619637
13.851039999999998,5.999683090684508,0.0566676226014959
13.853436,6.009183633595264,0.0564634797378347
13.855823999999998,6.023899082812352,0.0562235117688195
13.858207999999998,6.03260822979019,0.0560130749537897
13.860604,6.03945504564847,0.0558073113079068
13.862991999999998,6.043508364827416,0.0556058299471539
13.865375999999998,6.047980992886944,0.0553831086236243
13.867772,6.051801994640413,0.0551474133698176
13.870164,6.050036003035212,0.0549191437857809
13.872543999999998,6.0530656088557615,0.0546785999542147
13.87494,6.053813574676176,0.0544617376149917
13.877328,6.05335083568309,0.054259425241928
13.879711999999998,6.052096700757087,0.0540502420528157
13.882112,6.051913501017722,0.0538328809408059
13.8845,6.053080775718716,0.053594323955193
13.886879999999998,6.0550394463526285,0.0533646536741827
13.889276,6.061002318479375,0.0531166370279136
13.891664,6.062960989113288,0.0528851301637935
13.894047999999998,6.062265932694725,0.0526497807906725
