Time,Force,Position
13.517668,3.241007622140371,0.1668741209429419
13.520056,3.2581860152390925,0.1664385171868156
13.522436,3.27573839124802,0.1657965761221403
13.524832,3.2856091253532447,0.1653842499711852
13.52722,3.2988796564734875,0.1647187410805938
13.5296,3.3122899572205906,0.1640398830342151
13.532,3.325328170915357,0.1633374798957074
13.534384,3.340880342035737,0.1625815234021541
13.536768,3.351310154648402,0.1621360719288896
13.539164,3.3638346158061005,0.1616831147915317
13.541548,3.373238819202501,0.1614420786482619
13.543944,3.38767093745013,0.1610766353868073
13.553508,3.427374816149288,0.1610543126400371
13.555896,3.43966316816577,0.1610318280009398
13.558276,3.457538513540923,0.1608305875645819
13.560679999999998,3.4789987515283287,0.1605180724996319
13.563067999999998,3.498596658396178,0.1602675740645511
13.565444,3.5239213282495583,0.1598264419563616
13.567847999999998,3.5463127317967427,0.1594969717577056
13.570235999999998,3.565631099410872,0.1592978246757844
13.572616,3.5889536685178345,0.1589490813921332
13.575015999999998,3.611996698371077,0.1586529535283197
13.577403999999998,3.633596705985343,0.1583660794151567
13.579784,3.655056943972749,0.1581027612865837
13.582188,3.671581814907543,0.1580051253576475
13.584575999999998,3.687455059536279,0.15790028130692
13.586956,3.70067457711254,0.1578625789736552
13.589351999999998,3.718457374689076,0.1576247987440023
13.591736,3.7354487763326936,0.157402494852231
13.59412,3.756723918722866,0.1570185788919574
13.596516,3.781211866672953,0.1565000436984155
13.598904,3.806630980182818,0.155961235188298
13.601284,3.8321898633195457,0.1554102157455015
13.60368,3.8550477975755535,0.1550054484969514
13.606064,3.876834796644923,0.1546576913486906
13.608444,3.901694831647348,0.1542168827268966
13.610848,3.9286967370230497,0.1537004779154053
13.613236,3.9511825842267214,0.1533063561749414
13.615616,3.973808201057252,0.1528954078331931
13.618019999999998,3.995502652328004,0.1525077708558145
13.620407999999998,4.013472441359644,0.1522194752588655
13.622792,4.02771756815217,0.152033494177842
13.625187999999998,4.043173399758195,0.1517972104648823
13.627575999999998,4.057837835431301,0.151574797835196
13.629956,4.075854846291183,0.15122304733014
13.632352,4.097736289017039,0.1507652098395618
13.756591999999998,3.6918920155332655,0.150645861664252
13.758988,3.682909016875316,0.1505681289917707
13.761392,3.679513011576035,0.1503451726431987
13.763776,3.681192142956226,0.149960619256029
13.766156,3.685664771015753,0.1495107154268844
13.768556,3.687343902395945,0.1491277788156611
13.77094,3.695960501575166,0.1485336120565102
13.773324,3.7057878055678857,0.1478929074566921
13.77572,3.721621411799856,0.1470734307169669
13.778104,3.7422506154575776,0.1461321585574844
13.780487999999998,3.764090523928798,0.1451574272848476
13.782884,3.792076504266129,0.144005739534126
13.785276,3.8199227149766006,0.1428519211612303
13.787655999999998,3.844835659380877,0.1417798726339599
13.790052,3.8737528052779866,0.1405950885107508
13.79244,3.902669951175096,0.1394041656500256
13.794823999999998,3.932658032258843,0.1381763727680649
13.79722,3.956639811103342,0.1371403215395871
13.799604,3.9847655610675328,0.1359694425731525
13.801987999999998,4.010097814352389,0.1348638828029562
13.804384,4.028632369465077,0.1339465591048102
13.806772,4.044093888644709,0.1331269828437045
13.861736,3.87056102877312,0.1327368119542956
13.864124,3.869025458735527,0.1326758096694568
13.866508,3.8689329109369095,0.1326157487701026
13.868904,3.872332707951928,0.1324319835698707
13.871288,3.877734605713364,0.1321961580949997
13.873672,3.8839278994077184,0.1319530366115951
13.876068,3.8910523586618506,0.131689466008285
13.878456,3.9012498538490377,0.1313365030075678
13.880836,3.906372212356753,0.1311225678999648
13.883232,3.908281765304553,0.1310090903431408
13.885616,3.913124584558549,0.130822506446558
13.887999999999998,3.914754598252627,0.130735982972662
13.890392,3.916105072692986,0.130676751641364
13.892784,3.923322079745735,0.1304687176687636
13.89518,3.9356142234779568,0.13012450993628
13.897576,3.94669566239668,0.1298246753079349
13.899964,3.958428727621461,0.1295366962076087
13.902344,3.968019922472965,0.1293153657456081
13.90474,3.9816153188173034,0.128990484063124
13.907124,3.991206513668806,0.1287699585091845
13.909508,4.000006312587392,0.1285594449236327
13.911904,4.006012614826641,0.1284084120425667
13.914292,4.009644729267138,0.1282736917691191
13.916676,4.009924268520859,0.1282476827804282
13.919076,4.010483347028299,0.1281960288932035
13.921464,4.012392899976099,0.1280876903122636
13.923844,4.0130917481104005,0.1280230780219385
13.92624,4.011648725871424,0.1280212641676547
13.928628,4.016072236244838,0.1278819252837066
13.931008,4.021566681804891,0.1277100955467343
13.933404,4.024919256991667,0.1276017930474444
13.935792,4.027620205872386,0.1274849205048262
13.938188,4.030321154753103,0.1273688501377944
13.940583999999998,4.037026305126655,0.127155213530243
13.942972,4.039587484380512,0.1270553886897139
13.945352,4.043778677328449,0.1268733261989401
13.947751999999998,4.045036603970191,0.1267584741606787
13.950136,4.050298732104766,0.1265479382602405
13.952516,4.0582145872918165,0.1263039381635383
13.954919999999998,4.069203478411922,0.1259824546809279
13.957304,4.079633291024587,0.125712866425036
13.959684,4.089923334010392,0.125456056959194
13.96208,4.1039380392353095,0.125132051067143
13.964468,4.120094614833505,0.1247492524419541
13.966848,4.135040485618201,0.1244107086039598
13.969248,4.148915421216259,0.1241041285699617
13.971636,4.167493406441452,0.1236503412772017
13.974016,4.193008859465674,0.1230519568080786
13.97642,4.215870585437419,0.1224992067014777
13.978808,4.239943016222664,0.1219103733392238
13.981188,4.266297087008048,0.1212548039432458
13.983584,4.295304884845906,0.1205618611162945
13.985968,4.322729890817926,0.1198788847338659
13.988347999999998,4.3473614001106125,0.1192583115860543
13.990756,4.373483153470518,0.1185794962208341
13.99314,4.399045828322983,0.1179493552977298
13.995524,4.427961078362223,0.1172311676614741
13.99792,4.453803292468408,0.1165902511564759
14.000304,4.467912441349812,0.1161690192468392
14.0027,4.480019489484799,0.1157895884302921
14.005095999999998,4.491894220194308,0.1153688714264034
14.007483999999998,4.503768950903819,0.1149481544225146
14.009864,4.514852285680411,0.1145356549870395
14.012259999999998,4.525795850830143,0.1141373845327025
14.014648,4.535948020046957,0.1137413042283525
14.0457,4.478227130487917,0.1134692197781319
14.048096,4.481859244928412,0.1133638757667871
14.05048,4.487633229742186,0.1132105798188917
14.052875999999998,4.492848136048519,0.1131013957130593
14.055272,4.49927374716835,0.1129581164304542
14.057659999999998,4.50635098459424,0.1128254637675637
14.060043999999998,4.513567991646989,0.1126831925330835
14.06244,4.523438725752213,0.112514577251496
14.064823999999998,4.534100855790355,0.1123431572565143
14.067204,4.546904856201774,0.112124153512847
14.069603999999998,4.567717259598861,0.1117611724393242
14.071988,4.593744569302279,0.1113023788893587
14.074372,4.61870094381906,0.1108688755322781
14.076767999999998,4.642865922402921,0.1104349343208025
14.079156,4.667822296919702,0.1100014309637219
14.081536,4.69533985069034,0.1094943792935025
14.083928,4.7219262389012,0.1090027287349615
14.086316,4.748792166365781,0.1084866083843217
14.088712,4.773795762710804,0.1080041920413497
14.091107999999998,4.797076797563132,0.1075328425776853
14.093491999999998,4.816772939803205,0.107096823015831
14.095876,4.828879987938193,0.1067685567097262
14.098271999999998,4.8447116983122935,0.1064011245595621
14.100656,4.859240156074278,0.1060142188346538
14.103051999999998,4.869764412343428,0.105693263397717
14.105448,4.87484144488077,0.1054305534059953
14.107836,4.876193815178999,0.1052137924208725
14.110215999999998,4.876103163238253,0.1049901950142345
14.112612,4.877642524991584,0.1047041264231662
14.114999999999998,4.879601195625495,0.1043887923078257
14.117376,4.874622398460379,0.1041832682952713
14.11978,4.860564263122956,0.1041281755712974
14.122168,4.844643796665977,0.1040957891751511
14.124548,4.828863099835858,0.104053405703359
14.126943999999998,4.812430776699681,0.1040006926805942
14.129331999999998,4.793065187257311,0.1039890861797942
14.131712,4.773699597814939,0.1039766617672701
14.134116,4.758338209865399,0.1038986417837176
14.136504,4.741114490796304,0.103840694470855
14.138887999999998,4.727894973220042,0.1037190776310768
14.141284,4.719331283442672,0.1035443815451089
14.143672,4.715423421464195,0.1033159390006045
14.146055999999998,4.700853429447573,0.1032344565153806
14.148452,4.689588790789486,0.1031402514304449
14.150835999999998,4.684470223997509,0.1029419904956328
14.15322,4.682936549817786,0.1027103212374677
14.155624,4.687269408250451,0.1023953023658807
14.158008,4.692114123362317,0.1021014871633753
14.160391999999998,4.6965395295936,0.1018401005870703
14.162788,4.699894000638245,0.1016002265508489
14.165176,4.706321507615946,0.1013084530931686
14.167555999999998,4.718895086459757,0.1009140952981343
14.16996,4.736543801983041,0.1004410584208814
14.172348,4.754332287133185,0.0999568648248421
14.174727999999998,4.772260541910188,0.0994651870664442
14.177124,4.792842523739666,0.0989565524468068
14.179512,4.814774980009503,0.0984124314163503
14.181891999999998,4.831911838853589,0.0979310908917768
14.184288,4.851981964003869,0.0974150558822932
14.186676,4.866837182847818,0.0969857432993763
14.189059999999998,4.8782472787063735,0.0965759496565963
14.191456,4.891007849005288,0.0961324550153619
14.193844,4.910985426356953,0.0955702328358815
14.196224,4.9264469455365845,0.0950438881605224
14.198619999999998,4.9366935584098846,0.0946058690350407
14.201007999999998,4.948430415350404,0.0941220765168839
14.203404,4.955231905238311,0.0937049507489219
14.205796,4.957657106581047,0.0933107893011161
14.208184,4.955426480124892,0.092959540818107
14.210563999999998,4.95119375292232,0.0926350274312131
14.21296,4.946169629786829,0.092309080759875
14.215348,4.935139204412088,0.0920651570360555
14.217728,4.917311080865177,0.0919021601917904
14.220123999999998,4.903766698064822,0.0916629661907489
14.222511999999998,4.893295351197522,0.0913784075004165
14.224908,4.877097241344692,0.0911530869094184
14.227304,4.857546556305086,0.0909904818603431
14.229692,4.8389270368252575,0.0908181933893176
14.232072,4.814301215106179,0.0907245055320933
14.234472,4.795030069320293,0.0905389680926008
14.23686,4.777481485027104,0.0903448999899996
14.23924,4.75699963442772,0.090182873093277
14.241644,4.735307079014835,0.0900459578266402
14.244028,4.714685458788591,0.0898904922174088
14.246408,4.6974164137491226,0.089670508044791
14.248804,4.678005498336376,0.089483986015173
14.251196,4.660736453296906,0.0892608255608596
14.253576,4.64840277531005,0.0889769422377899
14.255972,4.643006565122222,0.0886085156277136
14.25836,4.638821059747892,0.0882108142338085
14.260739999999998,4.635287180679621,0.0878244625595434
14.263144,4.635897272731044,0.0873748012578774
14.265528,4.642373897394857,0.0868577110936003
14.267912,4.644566781312116,0.0864144495722558
14.270308,4.639542658176625,0.086071974985295
14.272696,4.638802275787688,0.0856579105729002
14.275076,4.6392725982122505,0.0852142905610703
14.27748,4.640534316569731,0.0847726807562132
14.279868,4.648873272353101,0.0842392482215762
14.282248,4.655070357763193,0.0837443844947888
14.284644,4.660196507986647,0.0832663092768227
14.287032,4.666905450075936,0.0827947028384471
14.289412,4.675616492911643,0.0823029317903541
14.291808,4.687260802053545,0.0817813151690237
14.294196,4.698346032688007,0.081302437176353
14.296575999999998,4.712504299255524,0.0807878079058738
14.298972,4.723589529889985,0.0803104232888908
14.30136,4.733324286084087,0.0798712844484674
14.303743999999998,4.740917171904913,0.0794694631766161
14.30614,4.748370288098878,0.0790767365206098
14.308523999999998,4.756102943546563,0.0786660787170588
14.310924,4.763556059740528,0.0782754593816502
14.31332,4.769286614441796,0.0778905659248039
14.315708,4.775808565075983,0.0775091645752878
14.318088,4.78833681794942,0.077064023518081
14.320488,4.801656466755775,0.0766262767781393
14.322876,4.817769612241465,0.0761745146098621
14.325256,4.8340225273540165,0.0757147646935132
14.327652,4.845200305787095,0.0753127926065158
14.33004,4.853305048287118,0.0749434135503696
14.33242,4.8624807259737794,0.074559415348684
14.334824,4.867931741421327,0.0741954826554576
14.337212,4.867236685002765,0.073899557817999
14.339596,4.868264190076899,0.0736053175077965
14.341991999999998,4.870781939218252,0.0732715560581648
14.34438,4.869015947613051,0.0729945230847259
14.34676,4.870974618246963,0.0726970184412679
14.349156,4.874004224067514,0.0723865114695141
14.351548,4.8739607939550105,0.0721083566902853
14.353928,4.8767108605218406,0.0718169585802523
14.356324,4.882114654141145,0.0715233332626133
14.358715999999998,4.8905914836935045,0.0712010013427101
14.361096,4.899580169925063,0.0709029932370489
14.363499999999998,4.910431187276178,0.0705982016883522
14.365883999999998,4.921142435000433,0.0703062004823073
14.368264,4.933576244217383,0.070018752391304
14.370667999999998,4.945078887874557,0.0697381998254167
14.373055999999998,4.957652466718368,0.0694472489843522
14.375436,4.97502164298793,0.069130654936568
14.377831999999998,5.0005389918700205,0.0687457412576393
14.380219999999998,5.028989607058306,0.068346988602868
14.3826,5.063166985232122,0.0679204596784399
14.384999999999998,5.103490435272049,0.0674381405413988
14.387387999999998,5.141160158259501,0.0669650183444707
14.389768,5.17468591012726,0.0665340335114389
14.392164,5.211424467554933,0.0660690067531095
14.394552,5.249373729796106,0.0655901275647867
14.396936,5.286252056850639,0.0651259575428659
14.399331999999998,5.324341088718672,0.0646402379123579
14.40172,5.35963662390737,0.064167774898997
14.4041,5.391067727230094,0.0637196411018825
14.406496,5.417563463500206,0.0633057969484171
14.408884,5.439123832717706,0.0629203198021478
14.411264,5.458030474882731,0.0625372643052173
14.413667999999998,5.472932915554923,0.0621825525793691
14.416056,5.481968823614725,0.0618613229708211
14.418436,5.486069364621914,0.0615687620446389
14.420832,5.487888265628966,0.0613065503892853
14.42322,5.483840634023626,0.0610767307090407
14.4256,5.470434124992262,0.0609275480527261
14.427996,5.451021313721647,0.0608174725957559
14.430384,5.42695267465214,0.0607187275127287
14.432768,5.402744265955773,0.0606265826674707
14.435164,5.3763939868861295,0.0605536950228115
14.437552,5.351114643003123,0.0604692375007996
14.439948,5.324624594306618,0.0604017102638374
14.442344,5.299065711169892,0.0603298631431116
14.444727999999998,5.273646597660026,0.0602489918075981
14.447112,5.254373556016271,0.0601226123409566
14.449507999999998,5.235891910305433,0.0600013115855988
14.451895999999998,5.216618868661678,0.0598728363795699
14.454276,5.20027909332412,0.0597301218731198
14.456672,5.193158425785727,0.0595239050741454
14.45906,5.189902190113306,0.0593035821023967
14.46144,5.186645954440886,0.0590817758747745
14.463836,5.185531589141743,0.0588392822933898
14.466224,5.191494461268487,0.0585533419326529
14.468619999999998,5.1997389733953705,0.0582409719352969
14.471016,5.2109167518284485,0.0579142494208518
14.473404,5.229311537314277,0.057535945356104
14.475784,5.250779358733159,0.0571353014464422
14.478188,5.2733181153386814,0.0567248799563162
14.480576,5.290130108958672,0.0563316326031426
14.482955999999998,5.3058711673920245,0.0559446390013416
14.485352,5.322403621758297,0.0555645179932452
14.48774,5.340007011311207,0.0551766542955301
14.49012,5.351743868251725,0.0548148456551911
14.49252,5.364691430005743,0.054438054231358
14.494908,5.366278013587317,0.0541393819758228
14.497288,5.366002266049335,0.0538422600345767
14.499688,5.368659784817548,0.0535335635666602
14.502076,5.368523806906427,0.0532280605100598
14.504455999999998,5.361310591569415,0.0529632267299282
14.506856,5.346228742873598,0.052728649524758
14.509244,5.3314264334315,0.0524761645861827
14.511627999999998,5.317695059176041,0.0522136230490818
14.514024,5.297957382681332,0.0519788796500408
14.516407999999998,5.276077835813347,0.0517605040428912
