Time,Force,Position
19.271216,1.442080113904507,0.1517914628665946
19.27362,1.4482734075988606,0.1510956236326607
19.276008,1.4595418379726868,0.1499792075172711
19.278388,1.470810268346513,0.148839475181041
19.280784,1.479145432414144,0.1479198822785522
19.283172,1.4881322227878326,0.1470203776374652
19.285552,1.4987018050273575,0.1460688771938712
19.287952,1.506198351333827,0.1453910415012463
19.290336,1.5104820920803814,0.1450202925363383
19.29272,1.51169279689388,0.1448887948155731
19.295124,1.5197011998795475,0.1442641893805185
19.297512,1.5294321643579114,0.1435740034312869
19.299892,1.5420963951424709,0.142684715811637
19.302296,1.5553197044344704,0.1416612901095797
19.304684,1.5705451144728872,0.1405154628744524
19.307064,1.5845598196978052,0.1395287483420689
19.30946,1.5944305538030292,0.1388825898482888
19.311848,1.6097957334683055,0.137763334214807
19.314232,1.6280941794397776,0.1364009207533904
19.316632,1.6411777191049173,0.13548561739595
19.31902,1.651747301344442,0.134727521480085
19.3214,1.6624566532108278,0.1339550165722839
19.323796,1.670884365077076,0.1333819309421739
19.326184,1.682245343249519,0.1326518539831581
19.328564,1.6974707532879358,0.1317146307551397
19.33096,1.710973601833656,0.1308336175955607
19.333344,1.7230334281404005,0.129953647088167
19.335728,1.7341620888873663,0.1290956698899994
19.338124,1.7434284185147757,0.1283160549279181
19.340512,1.7588408200082957,0.1271335974518595
19.342896,1.7739736822480954,0.1260812892678553
19.345292,1.7873839829951987,0.1251064798592162
19.34768,1.7989319526227452,0.1242364046151367
19.35006,1.811783174862408,0.1234208746450972
19.352464,1.8235634619154315,0.1226952295987134
19.354852,1.8325502522891204,0.122075544733191
19.357232,1.844470308969004,0.1213193303222637
19.359628,1.8541087256487512,0.1207400907795805
19.362016,1.8637471423284984,0.1201608512368973
19.364396,1.87780906938166,0.1193107926558867
19.366792,1.884514219755211,0.1188677781862158
19.36918,1.8932214708751791,0.1183452132944164
19.371564,1.8982040597560343,0.1179495514307181
19.37396,1.8994619863977764,0.1177016136793309
19.376348,1.897786646733323,0.117590318148875
19.378744,1.8982531774421467,0.1173532125359491
19.38114,1.903235766323002,0.1169770954548993
19.383528,1.9100806863234137,0.116525778185439
19.385908,1.9206502685629383,0.1159345670980611
19.388304,1.9289382108023263,0.1155134453346312
19.390692,1.9317789293099044,0.1152645710338728
19.393076,1.9356905830041211,0.1149611001756539
19.39786,1.9316410555409131,0.1148695032756569
19.40024,1.928243154383764,0.1147958318991347
19.416976,1.885277352438578,0.1146356327424359
19.419364,1.878853637176616,0.1145623647285209
19.421748,1.8760148145269069,0.1143777671728723
19.42892,1.8593501739652527,0.1142287824465899
19.43608,1.8352834307536148,0.1141595839373567
19.438484,1.831792981797848,0.1139539844362471
19.440872,1.826160662468804,0.1138602038490881
19.443252,1.8256034798192329,0.1135324113102331
19.445648,1.827048397916078,0.1131112749018914
19.448036,1.826211676012786,0.1128341275798857
19.45042,1.8224416878032987,0.1126762909321915
19.452816,1.8257489370197009,0.1121978748845438
19.455204,1.827985251049464,0.1117795776803906
19.457588,1.829010860265729,0.1114471442516637
19.459984,1.8413974476544364,0.1105805167768592
19.462368,1.8513626254161464,0.1098914160210498
19.464752,1.8699878324695824,0.1088408060351691
19.467148,1.8824669676569077,0.108099762225881
19.469536,1.892432145418618,0.1074046007599466
19.471916,1.9043994239267448,0.1066273010210583
19.474316,1.9134334361286771,0.1059470778868763
19.4767,1.9254007146368048,0.1051466824933281
19.524488,1.835136252313765,0.1049740171716056
19.526876,1.8330416037687316,0.1049259938201237
19.529272,1.8370930270898085,0.1046208660012877
19.531668,1.8391423496644688,0.1043960597348661
19.534052,1.842774464104965,0.1041628364745797
19.536436,1.8488279881724587,0.1037682692072528
19.538832,1.8568836129863693,0.1033044765453744
19.541216,1.8580017700012508,0.1030998591916956
19.5436,1.8600510925759104,0.1028637211467503
19.545996,1.8615885584713727,0.1025819466574896
19.548384,1.8711344273525028,0.1019852319696969
19.550764,1.883334023286107,0.1013545959192714
19.55316,1.8918089569805985,0.1008187557761765
19.555548,1.8982817899286728,0.1003526076133459
19.557932,1.909829759556219,0.0996727854235348
19.560328,1.922029355489824,0.0990271811620778
19.562716,1.9277107925049803,0.0985643330952178
19.565112,1.9343233950799144,0.0980720748690304
19.567508,1.9389338969084324,0.0976536977133757
19.569896,1.9370262398185016,0.0974233764681957
19.57228,1.9396346409006031,0.0970913796092721
19.574676,1.942522581236424,0.0967140919871513
19.577064,1.9386128234000768,0.0965571552879514
19.579444,1.9349826048174497,0.0963497523072921
19.581844,1.934984500675319,0.0959259004342118
19.584232,1.93978199395894,0.0953834126228064
19.586612,1.9419257601900863,0.0948865553083292
19.589016,1.9503553679142036,0.0941445557502766
19.591404,1.9613461548921785,0.0932479178239959
19.593784,1.9704746107505968,0.0923989468891476
19.596184,1.9700118717575117,0.0917888550285715
19.598572,1.963682600152036,0.0913433072012529
19.600952,1.962148925972312,0.0907741146525329
19.603352,1.9636882877256436,0.0900950814948171
19.605736,1.9640169446654765,0.08949322663228
19.60812,1.9644853712321693,0.0888743487262887
19.61052,1.968538690411116,0.0881906459431853
19.612908,1.9736629447767,0.0874690067345492
19.615288,1.983862335821757,0.0865914010168205
19.617684,1.9955047491057896,0.0857378921503398
19.620072,2.006635305710625,0.0848542253404309
19.622456,2.0156239919421832,0.0840561047135948
19.624852,2.0292685059726328,0.0831672120212285
19.62724,2.042773250376223,0.0823078765901303
19.629624,2.052785649966176,0.081624817865727
19.63202,2.054789646570462,0.0811717039375217
19.634408,2.056094795040447,0.0808273501868878
19.636792,2.0559096994432133,0.0805930709611061
19.639188,2.0550257557116782,0.080470113940877
19.641572,2.0546536686593404,0.0803974634508693
19.643956,2.062801841271868,0.0801660851331442
19.646356,2.0721607186978948,0.0798647758832643
19.648744,2.078726099444585,0.07961457262316
19.651124,2.082497983511942,0.0794105595477099
19.65352,2.083895679780544,0.0791844726398233
19.655908,2.08371058418331,0.0789439143505788
19.658292,2.0858071285862128,0.0786114043542144
19.660688,2.085110176309781,0.0783199328599711
19.663076,2.0793380873538774,0.0781633504731447
19.66546,2.0750562424651924,0.0779055916207813
19.667856,2.06821321832265,0.0777826429594831
19.670244,2.063512064553384,0.077589330102492
19.672624,2.0528046085448683,0.0775400785358302
19.67502,2.0400950517899354,0.0775395218300343
19.677408,2.0296671350351394,0.0774445014998285
19.679788,2.0244541245866765,0.0771934661282327
19.682184,2.020591588578572,0.0768616918004171
19.684572,2.0128646207044945,0.076604550524772
19.686956,2.001692529845024,0.0763556552854707
19.689352,1.990939747866134,0.0760370448439481
19.69174,1.978464404394548,0.0757219035192682
19.694136,1.9690620968560169,0.0753193738020613
19.696532,1.962593055623681,0.0748576648568572
19.69892,1.9619905470037355,0.0742857326835574
19.701304,1.9639019958094044,0.0737222513226054
19.7037,1.9652543661076327,0.0732420097563484
19.706092,1.962462765286167,0.0728719549953789
19.708472,1.9635355963306744,0.0724379167667895
19.710872,1.9675416936813777,0.0719486663185181
19.71326,1.9674038199123869,0.0715642877173672
19.715644,1.9678250246508369,0.0710879531484887
19.71804,1.967035524575788,0.0706687476020876
19.720424,1.9725318659937097,0.0700726129900321
19.722808,1.980961473717827,0.0694204075478886
19.725204,1.9872492110686677,0.0688361444552149
19.727592,1.98552854543384,0.0684147555364863
19.729972,1.9839476494258728,0.0679712594428014
19.732368,1.9854397893509608,0.0674452789844316
