Time,Force,Position
18.276088,1.4644904243068055,0.1516967127886626
18.27848,1.466866507963429,0.1510960648716618
18.28086,1.4675200301273563,0.1505779853528678
18.28326,1.4673821563583656,0.1500673806405097
18.285648,1.4671045129625144,0.1495888874918466
18.292816,1.4504870942291033,0.1495813973106371
18.295196,1.4457859404598377,0.1495402309071222
18.2976,1.4430868874369889,0.149333705922364
18.299988,1.4397362081080824,0.1491145193540683
18.302368,1.4433229965782046,0.1483153351322693
18.304768,1.4489118857947436,0.1473093889670165
18.307156,1.4534298398246444,0.1463858650351876
18.309536,1.4573887153471043,0.1456581255183555
18.311932,1.4590659508694266,0.1451981174682476
18.31432,1.4679601934444986,0.1440787761686894
18.321488,1.465263036279519,0.1432545077439592
18.323868,1.4632156095627282,0.1430553699871962
18.326268,1.462099348405716,0.1428031427782682
18.328652,1.4616347135547614,0.1425651712084277
18.331036,1.4679677768759751,0.1418914583680723
18.333432,1.4770943368765244,0.1410718452530346
18.33582,1.492087429489464,0.1398429699227725
18.338196,1.5044267950499288,0.138756863317127
18.3406,1.5170456998641135,0.1375792724576811
18.342988,1.532597870984494,0.1362562720805935
18.345368,1.5450770061718189,0.1351470191773512
18.347764,1.5600700987847584,0.1339689246123753
18.350152,1.5761341265843365,0.1327789920789293
18.352548,1.5939207158766109,0.1315294886143114
18.354944,1.617853377034996,0.1298986962090344
18.357332,1.6392720807677668,0.1283622307093396
18.359712,1.6584091445004,0.1269845743569045
18.362108,1.676195733792674,0.1258231354098339
18.364496,1.6914211438310909,0.1248637636225394
18.366876,1.7110700642429222,0.1235272771441756
18.36928,1.7287168839083362,0.1223241109449103
18.371668,1.7442218332004733,0.1213358006264413
18.374048,1.754651645813138,0.1206369686147096
18.481556,1.5967521297133305,0.1205470185668657
18.483956,1.59703356482492,0.1200147350703018
18.486344,1.6038331588549577,0.1192281012161503
18.488728,1.6070006384444997,0.1187237229433184
18.491124,1.6112390532206795,0.1181487812783107
18.493512,1.6198537565420312,0.1174697710007838
18.495904,1.6272577550498837,0.116869731137554
18.498308,1.6305177824380428,0.1164987173798637
18.500696,1.63484874501284,0.1160655563876959
18.503076,1.6407624994534735,0.1156113883659656
18.50548,1.64453438352083,0.1152912347131181
18.507868,1.6453730012819912,0.1151109848200539
18.510248,1.6487255764687674,0.1148730920741967
18.512652,1.6570135187081552,0.1143517949485787
18.51504,1.671587302440514,0.1134475951069709
18.51742,1.6810859494934005,0.1128364508386293
18.519816,1.6953801939720383,0.1119605417358006
18.522204,1.7016660354650095,0.1115620940355063
18.524584,1.7085109554654212,0.1110535318028451
18.541312,1.6913344582245695,0.1107052770038885
18.5437,1.6867730740821645,0.1105290327029884
18.54608,1.6912910281120652,0.1099429122120213
18.548484,1.695157355835908,0.1093396883254835
18.550868,1.6994429924403311,0.1086555578635369
18.553248,1.706289808298612,0.1077816113407306
18.555652,1.71513872490331,0.1068118479144651
18.55804,1.72333601520195,0.1058096140593397
18.56042,1.733814945500727,0.1046874597079149
18.562816,1.7372166383736152,0.103882744345807
18.565204,1.7418290360600022,0.1029697677924518
18.567588,1.745650037813471,0.1020646225921182
18.569988,1.752544075499995,0.1009989821689705
18.572376,1.7558059987460233,0.100186733845564
18.574756,1.7522702238198824,0.0996351764990283
18.57716,1.7518074848267973,0.0989160874996731
18.579548,1.7542780121399073,0.0980472835336628
18.617756,1.614015836416168,0.0973772439823372
18.620152,1.6100588567515772,0.097363035479436
18.62254,1.6108974745127382,0.0971973832861285
18.624924,1.614809128206955,0.0969017125859593
18.627328,1.6196519474609503,0.0965787973251127
18.629716,1.6224926659685284,0.0963309259738929
18.632096,1.6218882614907129,0.0961259824033035
18.634496,1.6199333825725395,0.0960321093239014
18.636884,1.622913870706978,0.0957471333351986
18.639264,1.62417179734872,0.0954836751947345
18.641664,1.6254297239904618,0.0952121858636776
18.644052,1.6296209169383988,0.0948219945968004
18.6751,1.526180367151604,0.0946163944472228
18.677496,1.514169658530972,0.0945798173143599
18.679884,1.5058836121494534,0.0944405922967672
18.682268,1.5021608457682092,0.094020393117172
18.684664,1.492711316401435,0.0937774683427828
18.687048,1.486986449273774,0.09343437833811
18.689432,1.4841948484523084,0.0929868456882329
18.691828,1.4812634780039824,0.0925729586875043
18.69422,1.478843964234854,0.0922182098297322
18.6966,1.4767039897194465,0.0918034139065481
18.699004,1.4824326485628456,0.0910733190525351
18.701392,1.4908150344587197,0.0902890789782288
18.703772,1.4947739099811796,0.0897625689922229
18.706168,1.5018058214366947,0.089095949151489
18.708556,1.5134935606911013,0.0883050929287863
18.71094,1.5231791991990913,0.0875895410243281
18.713336,1.5307229673338043,0.0870010513399462
18.715724,1.5364969521475778,0.0866241526661383
18.718104,1.5419913977076307,0.0863121062090618
18.7205,1.5468342169616256,0.0859749751951324
18.722888,1.556193094387652,0.085557208038068
18.725272,1.5642014973733194,0.0852475761671662
18.727668,1.5703475692394302,0.0849884303199806
18.730056,1.5768657281578782,0.0848403160322348
18.73244,1.5912525204351335,0.0844511621637105
18.734844,1.6076414134588055,0.0840281314628055
18.737228,1.6232389105495602,0.0836036276977977
18.739612,1.6399073428269528,0.0831493152659409
18.742016,1.66099928547776,0.0825042900795763
18.7444,1.6831621633152056,0.0818324336256944
18.746784,1.7063959763392895,0.0811577718643681
18.74918,1.7277674582438172,0.0805148959475974
18.825632,1.8018376024297635,0.0797526345022286
18.832796,1.7960182916456169,0.0797343901626972
18.83758,1.7884764193687728,0.0797229139073961
18.83996,1.7853108356371006,0.0796847934660441
18.842356,1.780562460039592,0.0796275909370394
18.844744,1.77795595481536,0.0794899191306828
18.847124,1.7816352910840991,0.0791390315264093
18.849524,1.785454396979699,0.0787581386738647
18.851912,1.7935572436218528,0.0782036447381228
18.854308,1.79993752877131,0.0776484447854014
18.8782,1.7505895458187974,0.077594074869421
18.880588,1.7543614298861538,0.0773756093615624
18.882968,1.75785377469979,0.0772083207345785
18.885364,1.76562986025998,0.0768910132762109
18.887756,1.7687501180212788,0.0766412582269513
18.890136,1.7725220020886352,0.0764255570935404
18.892544,1.7782959869024082,0.0761669328012745
18.894932,1.7783432087306517,0.0760128721666877
18.897312,1.7813236968650898,0.0757995994780026
18.899712,1.7840246457458075,0.0756355550156146
18.902096,1.791381422425417,0.0754132338419199
18.904476,1.800600530224583,0.0751706063712453
18.906872,1.813172213210525,0.0747850074530753
18.90926,1.827885766569744,0.0743265176492635
18.91164,1.8473949173547148,0.073780634089943
18.914044,1.867835233699464,0.0732174381320549
18.916432,1.8914883556041289,0.0725229880260043
18.918816,1.9163521823222924,0.0717672913674492
18.921212,1.9400053042269567,0.0710801004999226
18.978556,1.857229804778912,0.0707211098175413
18.980944,1.852341659554543,0.0706732417943309
18.983324,1.8465223487703957,0.0706375576217943
18.985728,1.844427700225362,0.0705536294485217
18.988116,1.8432642172401064,0.0704585030231792
18.990496,1.8383760720157376,0.070409323343337
18.992892,1.836281423470704,0.0703255726598543
18.99528,1.833767466045089,0.0703118067469973
18.99766,1.8339072356719492,0.0702883253664291
19.000056,1.8380512067916432,0.070175067281972
19.002444,1.839261911605142,0.0701184269649408
19.004828,1.8466186882847515,0.069912044913318
19.007232,1.8533238386583029,0.069670189169755
19.00962,1.8609601545916328,0.0694223389495168
19.012,1.869667405711601,0.0691486888456051
19.0144,1.881727232018345,0.0687601241605226
19.016784,1.8896430872053955,0.0684702757298968
19.019168,1.9014233742584192,0.068122013921087
19.021564,1.9169283235505563,0.0677455565007514
19.023952,1.933504208029332,0.0673477774447664
19.026332,1.9506391710155484,0.0668557049057934
19.028728,1.971918105121459,0.0662834149632204
19.031116,1.9961303055335649,0.0656704121483025
19.0335,2.01447597333328,0.0651507334010391
19.035896,2.02974860519994,0.0646919048486211
19.038288,2.0450212370665994,0.0642217731615427
19.040668,2.057081063373344,0.0638444528287441
19.043068,2.069280659306948,0.0634434698954285
19.045456,2.077476053747719,0.0631147976705149
19.047836,2.0846005130018512,0.0628254115902131
19.050236,2.092376598562041,0.0625698657382983
19.081296,2.043259037177137,0.0625674371784409
19.083676,2.0343666904599345,0.0625634869782917
19.086076,2.030269941168484,0.0625097539690646
19.08846,2.0245904000111965,0.062426467770703
19.09084,2.018259232547852,0.062305831881565
19.093244,2.018074136950617,0.0620660594543493
19.095632,2.017609502099663,0.0618699816593281
19.098016,2.0194265072488458,0.0616028858839074
19.100412,2.022826304263865,0.061365649082805
19.1028,2.0243637701593267,0.0611396498898038
19.10518,2.027763567174346,0.0609024130887014
19.10758,2.0335847738163624,0.0605682950343838
19.109968,2.040337146018157,0.0602266443588797
19.112348,2.0490916189663686,0.0598595940566287
19.114748,2.0542611993023274,0.0594945924284942
19.117132,2.0583598444516475,0.0591544757061078
19.119516,2.064041281466804,0.0588450356693185
19.121912,2.06972271848196,0.0585431416405227
19.1243,2.078197652176452,0.0582215518883495
19.12668,2.082668384378109,0.0579585790531141
19.129076,2.0888616780724627,0.0577133932603325
19.131464,2.0997107995657083,0.0574457024743376
19.133844,2.109908294752896,0.0571542588395692
19.136244,2.12797442329889,0.0567801140589748
19.138632,2.147623343710722,0.0564413829291335
19.141028,2.165409933002996,0.0561237703259275
19.143424,2.182684665616072,0.0557556541680131
19.145812,2.194884261549677,0.0554595048166737
19.148192,2.2084343319236406,0.0551097919833625
19.150592,2.2241262726708806,0.0547199768977825
19.15298,2.2411686878584804,0.054282351293
19.15536,2.261004599725415,0.0538504924010516
19.157756,2.2821909860327083,0.0533699443912247
19.160144,2.3010957323398644,0.0529526711652891
19.162528,2.3229337449532155,0.0525158900018811
19.16492,2.344631987939706,0.0520913621821606
19.167308,2.3628851079408046,0.0516338590649198
19.169692,2.374340529769734,0.0512190608729302
