Time,Force,Position
23.733636,3.518491797646673,0.1428899968394841
23.736024,3.529012262200086,0.1428318213504764
23.738408,3.541255288246195,0.1427438331596686
23.740804,3.555919723919302,0.1425425501836046
23.743196,3.571515325152188,0.1423224182010916
23.74558,3.592046293437684,0.1419571305163288
23.747976,3.609643995416986,0.1416771596949604
23.750364,3.630314733329343,0.1412988523489751
23.752744,3.659133643854228,0.1406668219053377
23.755144,3.682086021766722,0.1402003328900694
23.757532,3.7059695652389952,0.1397034500052325
23.759912,3.738932446883574,0.1389202443369218
23.762312,3.769893227781736,0.1382126602744456
23.7647,3.7982002816274223,0.1375715274298758
23.76708,3.8222235947265553,0.1370763689625694
23.76948,3.8453157422659103,0.1366043927533044
23.771868,3.865195084245349,0.136240294154292
23.774248,3.8890786277176224,0.1357696593758595
23.776648,3.9097493656299793,0.1354134216992811
23.779036,3.929349168355698,0.1350978984820244
23.78142,3.946295244028942,0.1348387404430992
23.783816,3.964452024515684,0.1345441217260032
23.786204,3.9838195098159255,0.1342110229615192
23.788588,4.007982592541919,0.1337700894607125
23.790988,4.030934970454413,0.1333796419768037
23.793376,4.05323572206085,0.1329941504688293
23.79576,4.080192301466178,0.132517911858756
23.798156,4.107940276804425,0.1320460969980793
23.800544,4.127400309903282,0.1317997829226926
23.802924,4.15365804117431,0.1313995443164785
23.80532,4.182988808378393,0.130923664308044
23.807708,4.2101777052091975,0.130525676824171
23.810092,4.235504270920446,0.1301613199546395
23.812488,4.26320502443045,0.129785415125148
23.814876,4.295980914619925,0.1292843511446141
23.817256,4.330619135928957,0.1287508037748981
23.819652,4.368982019477102,0.1281416919038224
23.82204,4.404551406345913,0.1276039726628941
23.824424,4.441331498028222,0.1270254645905136
23.82682,4.477971820083671,0.1264606198497866
23.829208,4.518197034751372,0.1258515292760131
23.831592,4.55413850867252,0.1253663244124294
23.833988,4.586727407406891,0.124981114636973
23.836376,4.617593744648567,0.1246288088757946
23.83876,4.647528916330464,0.1242907089059378
23.841156,4.67797594469156,0.1239799687778674
23.843544,4.70590901562704,0.123700898031021
23.845924,4.733190460256463,0.1234221033151254
23.848324,4.765826580819078,0.1230094195465888
23.850708,4.796600370262136,0.1226372220218766
23.853088,4.82472043265272,0.1223036727442755
23.855492,4.850186767990828,0.1220062965625866
23.85788,4.876724038515576,0.1216818032409204
23.86026,4.901958056428208,0.1213490243160776
23.862664,4.924538347288366,0.1210525402330219
23.865052,4.944464911096049,0.1207881344902725
23.867432,4.964950553411171,0.1204864443931283
23.869836,4.980500828673681,0.1202726107803196
23.872224,4.99684249986911,0.1200575467172496
23.874604,5.014674415131759,0.1197903829621936
23.877,5.028641898528434,0.1195903445964879
23.879384,5.039955654872634,0.1194174604724137
23.881768,5.050757554537636,0.1192258551221715
23.884164,5.058346648642723,0.1191064493638618
23.886548,5.069288317934586,0.1189069542486957
23.915216,5.0537418343878135,0.1187791753060565
23.9176,5.054859991402696,0.1186993893968673
23.919996,5.056676996551879,0.1185710715802604
23.922384,5.055560735394866,0.1184904249188018
23.924764,5.053792847931795,0.1184024449520511
23.927168,5.057239866775057,0.11821236987835
23.929556,5.064830856738014,0.1179446573744939
23.93194,5.074843256327967,0.1176129636013383
23.934336,5.080339597745889,0.1173348152622633
23.936724,5.08704664397731,0.1170227640381079
23.939104,5.096966495768646,0.1166435406592015
23.9415,5.108376591627201,0.116212156783964
23.943888,5.119926457112617,0.1157719427189103
23.946268,5.132407488157811,0.115318996367444
23.948668,5.140092921777253,0.1149391695324968
23.951056,5.145217176142838,0.1146302392316756
23.953436,5.15262307050856,0.1142693304368695
23.955836,5.161379439314643,0.1138684839079103
23.95822,5.171346512934221,0.1134355272931759
23.960616,5.182244752113579,0.1129949358033617
23.963012,5.1932827609197965,0.1125449497120814
23.965396,5.201247733792959,0.1121519562683689
23.96778,5.205068735546429,0.1118357173096665
23.970176,5.211823003606092,0.1114763992351771
23.972564,5.220858911665894,0.1110665527522733
23.974944,5.224819683046222,0.1107424418545157
23.97734,5.222774152187301,0.1105155442964752
23.979728,5.218726520581964,0.1103208112279068
23.982108,5.217053076775379,0.1101206759103765
23.984504,5.219383834461629,0.1098578993490433
23.986892,5.217710390655045,0.1096579024520014
23.989276,5.216688573154518,0.1094662827446192
23.991672,5.217529086773548,0.1092537180566028
23.99406,5.219580305206077,0.1090123125599298
23.996456,5.222422919571525,0.108768195309223
23.998852,5.231691145056803,0.1084028311179594
24.00124,5.236955169049248,0.1081003036041213
24.00362,5.238866617854916,0.1078673459074673
24.006016,5.240498527406866,0.1076534058591523
24.008404,5.238917631398899,0.1074999876490674
24.010788,5.236545339458013,0.1073475725703373
24.013184,5.2371063138233245,0.1071545096770852
24.015572,5.240460784867969,0.1069297008498774
24.017952,5.237948723300224,0.1067862213287306
24.020348,5.2330152521054805,0.106701132505409
24.022736,5.233017147963349,0.1065448065154248
24.025116,5.234089979007857,0.1063670128246855
24.027516,5.238235845985421,0.1061394090269112
24.029904,5.242801021843565,0.1058850327448832
24.032284,5.242291061022237,0.1057111208766014
24.03468,5.245785301693742,0.105476653970112
24.037068,5.246625815312772,0.1052635856440847
24.039464,5.245603997812245,0.105071881747
24.04186,5.243231705871362,0.1049185138657499
24.044248,5.2430012843037535,0.1047265631950619
24.046628,5.238626891616452,0.1046025455316565
24.049024,5.235043894862068,0.1044774110631777
24.051416,5.231740437361404,0.1043329656026973
24.053792,5.230718619860878,0.104141081336604
24.056188,5.230255880867794,0.1039113336554663
24.058576,5.231003846688207,0.1036529846455789
24.060956,5.226956215082868,0.1034530902535815
24.063352,5.221977417917751,0.1032632354989901
24.06574,5.221142591872328,0.1030047155652507
24.068136,5.222449636200183,0.10270793506704
24.070532,5.2236169109011765,0.1024229140300907
24.072916,5.227717451908366,0.1020995052098337
24.0753,5.229815892169138,0.1018063108426559
24.077696,5.224557555750302,0.1016334330162389
24.080084,5.221441089704741,0.1014220934241453
24.082464,5.220186954778738,0.1011931345546665
24.084864,5.22051561171857,0.1009630076387907
24.087248,5.218702398285125,0.10076974507264
24.089632,5.216097788918763,0.1005764276679403
24.092028,5.213493179552401,0.1003837270292047
24.094416,5.212890670932455,0.1001631830331843
24.0968,5.216432133432203,0.0998792346149669
24.099196,5.222767092611288,0.099567365947054
24.101584,5.226308555111037,0.0992845123382859
24.103968,5.2323639750364,0.098994056375038
24.106364,5.2387914820141,0.0987322749995449
24.108752,5.248152255297995,0.0984335294783617
24.111132,5.255790467089196,0.0981428389194036
24.113532,5.260867499626537,0.0979146860780748
24.115916,5.2610091651112665,0.0977487175636059
24.1183,5.257565937983743,0.0976094608144912
24.120696,5.255333415669718,0.0974437284246567
24.123084,5.252029958169054,0.0972955524061764
24.12548,5.260087478840833,0.096978539949437
24.127876,5.268424538766334,0.0966447166031932
24.130264,5.273968102012499,0.0963393162516993
24.132644,5.278999808579466,0.0960152164410415
24.135044,5.291108752572322,0.0956001294625198
24.137428,5.302286531005401,0.0951912403180609
24.139812,5.311601978318923,0.094800047292842
24.142208,5.31784438969939,0.0944511899635263
24.144596,5.320222369213883,0.0941459548591572
24.146976,5.323950823168735,0.0938086244597283
24.149376,5.329122299362562,0.093482478465258
24.151764,5.330569113317277,0.0931879459408398
24.154144,5.328570804286598,0.0929062069722514
24.15654,5.325361790442421,0.092649581892404
24.158928,5.3229441725311615,0.092392819223087
24.161308,5.328023100926372,0.0920216403239749
24.163708,5.342972763426808,0.0915412796186182
24.166096,5.358993361113881,0.0910431769239521
24.168476,5.368588347681123,0.0906425052389469
24.170872,5.378043564621505,0.090249266415749
24.17326,5.37949037857622,0.0899543534857962
24.175644,5.379446948463714,0.0897018704956528
24.17804,5.377541187231655,0.0894636167477549
24.180428,5.375355886745872,0.0892423266930422
24.182824,5.363299852154867,0.0891296320568302
24.18522,5.3560394149896124,0.0889714203598937
24.187608,5.351712244130553,0.088782842308936
24.189988,5.351529044391188,0.0885396903307341
24.192384,5.356281211704434,0.0882462424672257
24.194772,5.355958242338209,0.0880132134106147
24.197152,5.352981545919508,0.08779181557094
24.199548,5.352938115807004,0.0875409285783314
24.201936,5.358202139799451,0.0872665287090141
24.20432,5.366818738978671,0.0869386787945124
24.206716,5.377297669277449,0.0865978492373494
24.209104,5.381770297336975,0.0863261159211434
24.211484,5.378234522410835,0.0861413018334879
24.213888,5.379075036029866,0.085942944452746
24.216276,5.387272326328506,0.0856508220257437
24.218656,5.397611487000423,0.0853300320195873
24.221052,5.4118150795383135,0.0849755185806267
24.22344,5.42802077282262,0.0846005780108808
24.22582,5.445669488345904,0.0842371111400718
24.228216,5.465180534988743,0.0838619963139181
24.230604,5.490418344617113,0.0834377271943893
24.232988,5.514073362379647,0.0830159014379155
24.235384,5.534515574582265,0.0826395400923456
24.237772,5.55188475085183,0.0823000315294705
24.240168,5.562036920068643,0.0820445393270457
24.242564,5.57591375152457,0.0817650328300527
24.244952,5.591792683726914,0.0814651291439761
24.247336,5.608882320742756,0.0811469321076251
24.249732,5.623737539586704,0.0808162086918754
24.25212,5.635519722497597,0.0805206462813633
24.2545,5.646650279102432,0.0802158446158614
24.2569,5.656709900520629,0.0799234343217289
24.259288,5.667049061192546,0.0796127410181565
24.261668,5.669799127759376,0.0793537284605041
24.264064,5.666542892086956,0.0791516371458538
24.266452,5.664497361228034,0.0789291350213296
24.268832,5.66352276555575,0.0786947362243032
24.271232,5.662967478764048,0.0784373932967631
24.27362,5.66217987454687,0.0781448417082928
24.276004,5.659669708836994,0.0778542650217011
24.2784,5.654505816074643,0.077569915600229
24.280788,5.644266786632819,0.0773323368368804
24.283172,5.635378231631355,0.0770654252756606
24.285568,5.625698280696973,0.0767939972898465
24.287952,5.618299969762728,0.0764870952213521
24.290336,5.610250032522425,0.0761691954445549
24.292736,5.601268929722344,0.0758554108010877
24.295124,5.586421294309874,0.0755845067041103
24.297504,5.568221083710625,0.0753582994826089
24.299904,5.550812269044295,0.0751347018716714
24.302288,5.534334619937745,0.07490563684628
24.304672,5.52093000676425,0.0746460804743577
24.307072,5.512320991016506,0.0743562495718143
24.30946,5.506924780828679,0.0740266881939804
24.31184,5.50739510325324,0.0736548009690452
24.314236,5.502930058625191,0.0733204780698247
24.316628,5.494600582131167,0.0730111568196306
24.319008,5.483989465637007,0.0727339137655911
24.321404,5.474169745075765,0.072459631497718
24.323792,5.469425161193995,0.0721426664997391
24.326172,5.4676138436184205,0.0718057523493063
24.328572,5.4718088282820965,0.0714212811435557
24.33096,5.475864043318912,0.0710454905047642
24.333344,5.4837836902217,0.0706477669949932
24.33574,5.493984977124627,0.0702207236635036
24.338128,5.502975559214054,0.0698131861269947
24.340512,5.516249882050036,0.0693639691937028
24.342908,5.534180032684909,0.0688962774641158
24.345296,5.556254154439476,0.0683906213065092
24.347676,5.5786078154477625,0.0678710326411478
24.350076,5.598959375709634,0.0673681091264816
24.352464,5.617308835225087,0.0668815044674752
24.354844,5.631793862874567,0.0664188836343859
24.35724,5.647070286456964,0.0659616529144438
24.359628,5.656759716680693,0.0655242646786143
24.362024,5.670313578770395,0.0650670809367283
24.364424,5.685729771979655,0.0646036239113911
24.366808,5.701285734815772,0.0641317009310585
24.369192,5.71763309358481,0.0636672051846225
24.371588,5.7267634453010965,0.0632627442860923
24.373976,5.732029365151411,0.0628763054962935
24.376356,5.732220148322252,0.0625260208834621
24.378756,5.729757204440619,0.0621743597165896
24.381144,5.722498663133235,0.0618424535055915
24.383524,5.710816611452436,0.0615575676476854
24.38592,5.700485034211996,0.0612463767611503
24.388308,5.683727845851725,0.0609944504369078
24.390688,5.666039491931675,0.0607444195898795
24.393084,5.647559742078707,0.0604879940358654
24.395472,5.627077891479323,0.0602416398403298
24.397856,5.60566487532016,0.0599954251136185
24.400256,5.586253959907415,0.0597365292957567
24.402644,5.5640495478153325,0.0594807905859462
24.405024,5.542124674976972,0.0592083065605547
24.40742,5.524855629937504,0.0589251454355514
24.409812,5.508657520084674,0.0586328513978947
24.412192,5.48845520873901,0.058360392463407
24.414592,5.468392667020207,0.0580784722089539
24.41698,5.445396858995206,0.0578078669019671
24.419364,5.426824561343621,0.0574910125504799
24.42176,5.410905990744512,0.0571753402644994
24.424152,5.3968497512649565,0.0568544215438389
24.426532,5.385307469211018,0.0565425804722895
