Time,Force,Position
22.873208,4.913798454394248,0.1503454479802648
22.875592,4.94313301331407,0.1494557113188524
22.877996,4.960828950665598,0.1487599759229795
22.880384,4.970331389434222,0.1481775158639579
22.882768,4.972384503724618,0.1477461306157782
22.885164,4.97327413502976,0.1472971594076613
22.887552,4.976165867081316,0.1467988857390266
22.889932,4.9794296861852105,0.1463249735129135
22.892328,4.98436884495356,0.1458833621161491
22.894716,4.988329616333889,0.1455167925744922
22.897096,4.993965727378672,0.1451879809680746
22.899496,5.00798232846146,0.1446997156248783
22.901884,5.021579620663665,0.14424445711063
22.904264,5.039041344731847,0.1437099186773506
22.906664,5.06241682324066,0.1430048846990406
22.909052,5.083837422831301,0.1422925483918725
22.911432,5.108518049810099,0.1414554844853651
22.913832,5.132454502684223,0.1405791833175227
22.91622,5.154715615893893,0.1396672061222602
22.9186,5.173671375745031,0.1387975371850818
22.921,5.187319681491219,0.1380112174555195
22.923384,5.203109857610682,0.137185580254542
22.925768,5.216618393730008,0.1364173698936856
22.928168,5.229707620968756,0.1356757997192141
22.930556,5.25038594231259,0.13480311629901
22.932936,5.274741704067294,0.1339320718650322
22.935332,5.300912575113312,0.1330927787413121
22.937724,5.3298769428386645,0.1322150657047556
22.940104,5.358981080190879,0.1313312744780296
22.942504,5.387014282356453,0.1304614894440039
22.944892,5.409600260790216,0.1296740763188485
22.947272,5.426319706611591,0.1290017074438152
22.949668,5.445600331686823,0.1282555236226654
22.95206,5.460644437843745,0.1275556566017537
22.95444,5.466888745082081,0.1270201593319371
22.956836,5.476345857880332,0.1264192998148463
22.959224,5.478306424372113,0.1259840554007006
22.961608,5.479707912356454,0.1255893002348128
22.964012,5.485765228139686,0.1251300301487422
22.9664,5.495267666908311,0.124640483868649
22.96878,5.504350796796355,0.1241764641372136
22.971176,5.505006214818151,0.1238828903943012
22.973564,5.51031746063884,0.1235237718098087
22.975948,5.520703843139,0.1230739108056887
22.978344,5.525223693026769,0.1227227174159484
22.980732,5.527229585488924,0.1223932243730763
22.983116,5.52406779347299,0.1221101149805108
22.985512,5.514108303284887,0.1219323855613063
22.9879,5.505079978656563,0.1217415935583262
22.99028,5.50219772589435,0.121439434357557
22.99268,5.500106869065054,0.1211319671536754
22.995064,5.503091148915231,0.1207355698255176
22.997448,5.507006594325186,0.1203320101093293
22.999852,5.513715536414477,0.119892864475974
23.00224,5.520284708876906,0.1194583006661548
23.00462,5.521638975033004,0.1191225862326901
23.007024,5.5294188523089325,0.1186608153370068
23.009412,5.534824541786106,0.1182073563328934
23.011792,5.536226029770448,0.1178217088011157
23.014192,5.535113560329173,0.117454998239879
23.01658,5.54000739312715,0.1169953384319778
23.018964,5.552118232977876,0.1164091588591866
23.02136,5.561575345776127,0.115850612607855
23.023752,5.565677782641186,0.115394737620365
23.026136,5.570851154692881,0.1149171775340549
23.028532,5.577095461931218,0.1144220561273139
23.03092,5.59092886327464,0.1138328629550539
23.033304,5.6147727683501465,0.1130941492957424
23.0357,5.639687608612292,0.1123449031043054
23.038088,5.663531513687799,0.11162692572441
23.040468,5.690588224323222,0.1108532247854419
23.042864,5.716853539025726,0.1100947970060333
23.045256,5.738183486675618,0.1094074905847898
23.047636,5.75965320395237,0.1087179529690474
23.050032,5.785127122721956,0.10797196821897
23.05242,5.813674077424597,0.1071807541051017
23.054804,5.833141693954933,0.1065163432805336
23.0572,5.853121167164466,0.1058659616853305
23.059588,5.87324041000086,0.1052065480496299
23.061968,5.892288717650614,0.1045669457516405
23.064368,5.903608161568422,0.1040218719538441
23.066756,5.909852468806758,0.1035490955777658
23.06914,5.916096776045093,0.1030758298473002
23.071536,5.924762492910425,0.1025491844358667
23.073924,5.935290540895315,0.1020057586444581
23.076304,5.944607884066706,0.1014909892564236
23.078704,5.946056593879289,0.1010742510957454
23.081092,5.939357131079345,0.1007714920335099
23.083472,5.929584632346346,0.100511469885972
23.085872,5.916227241001094,0.1002766985915082
23.08826,5.901659144842343,0.1000661993700933
23.090644,5.880805207190621,0.0999462438437226
23.09304,5.861161974352397,0.099800072917894
23.095432,5.8364436048347015,0.0997196544001016
23.097812,5.808791969010811,0.0996711204323769
23.100208,5.779417771694224,0.0996280946784103
23.1026,5.759262682176803,0.0994599105322911
23.10498,5.738735505607044,0.0992651925437704
23.107376,5.716206228290868,0.0990939291496777
23.109764,5.691674850228277,0.098946312056817
23.112148,5.668214407352324,0.0987810056792677
23.114544,5.649177474849785,0.0985379862905144
23.116932,5.6330738086534415,0.0982606066698682
23.119316,5.618041077643737,0.0979655441048384
23.121712,5.600214849954694,0.0976930622965429
23.124104,5.57987466484004,0.0974256846241518
23.126488,5.563398911591357,0.0971166917782829
23.128884,5.550275733529452,0.0967481103689142
23.131272,5.535290224347989,0.0963933417785664
23.133656,5.523098211845861,0.0960134536221648
23.136052,5.50732130673148,0.0956542932587502
23.13844,5.495967911990513,0.0952181927393088
23.140824,5.484195208368966,0.094806424173225
23.143224,5.476706245493975,0.0943258678621544
23.145612,5.4713591529922585,0.093810894297875
23.147992,5.462939024557488,0.0933332769916319
23.150388,5.448233054629747,0.0929455763631856
23.152776,5.436972207687398,0.0925435514085702
23.155156,5.43185743261116,0.0920614543696322
23.157552,5.429536154214257,0.0915546824010584
23.159944,5.430799768429606,0.0910253334422659
23.162324,5.42857103783132,0.0905615780441227
23.16472,5.421406940180421,0.090151454571761
23.167108,5.411821432902524,0.0897901235527858
23.169488,5.404098256744184,0.0894131094198514
23.171888,5.397026706891903,0.0890433258110508
23.174276,5.392236797039758,0.0886346440762797
23.176656,5.385956643120395,0.0882668093857563
23.179052,5.381678589947449,0.0878741530671431
23.18144,5.374187731214588,0.0875276593697558
23.18382,5.373215031400174,0.0871325970571085
23.186216,5.369681152331904,0.0867933818851597
23.188604,5.36721820845027,0.0864383061105104
23.190988,5.3632650205014185,0.086124148505528
23.193384,5.360103228485484,0.0858126224418248
23.195776,5.363459595387998,0.0854550206730964
23.198156,5.3688180630369295,0.0850734205472845
23.200552,5.371103494752805,0.0847299405116138
23.20294,5.367475172028046,0.0844965378028601
23.205324,5.364917784489927,0.0842486897911257
23.20772,5.3612894617651685,0.0840160308913872
23.210112,5.359383700533107,0.0837786641287879
23.212492,5.362133767099938,0.083509950788461
23.214888,5.362741963293492,0.0832690212204178
23.21728,5.362930850606464,0.0830540250453009
23.21966,5.367635796091468,0.0828171938735662
23.22206,5.367777461576199,0.0826565370752505
23.224448,5.36684819187429,0.0825098131372683
23.226832,5.367501714038216,0.0823680891845967
23.229228,5.369086401761923,0.0822195649933724
23.231616,5.365456183179295,0.0821360815356426
23.234,5.3638280653430845,0.0820315594850655
23.236396,5.361129012320236,0.0819415449980134
23.238784,5.361083686349862,0.0818421141874896
23.241164,5.359687885939129,0.0817745357935511
23.243564,5.355498588849062,0.0817247521894496
23.245952,5.354894184371247,0.0816603364461779
23.248332,5.354010240639711,0.0816126444372577
23.250732,5.357037950602394,0.0814797503295788
23.253116,5.357644250938078,0.0813923737547375
23.2555,5.355037745713847,0.0813475037120395
23.260288,5.344097972279853,0.0813011150720307
23.262668,5.339768905562924,0.0812590864354469
23.265064,5.334508673286217,0.0812229039123458
23.267456,5.325384009143537,0.081218470792408
23.26984,5.317330280187496,0.0811999628168474
23.272236,5.314072148657206,0.0811434106405036
23.274624,5.308532377126781,0.0811244048552392
23.277008,5.3027130663426325,0.0811226995101778
23.279404,5.296893755558487,0.0811214383596886
23.281792,5.292936775893897,0.0811079452535274
23.284176,5.290842127348862,0.0810824849008824
23.286576,5.286885147684271,0.081068828686739
23.288964,5.283999103206319,0.0810406578321969
23.291348,5.280833519474647,0.0810295720280324
23.293744,5.275945374250279,0.0810211425989321
23.298516,5.2686830412271535,0.0810038598442713
23.300912,5.269242119734595,0.0809701967559622
23.303304,5.2771579749216455,0.0808479607756681
23.305684,5.286936161228253,0.0807157897574445
23.308084,5.305653916080306,0.0805026227734144
23.310472,5.3262340020519146,0.0802824824928611
23.312852,5.34988712395658,0.0800315268915112
23.315252,5.375682116234521,0.0797545520536693
23.31764,5.40333943963202,0.0794671806366637
23.320024,5.430065597469739,0.0791895531184103
23.32242,5.459213164934457,0.078869110728369
23.324808,5.492504703518868,0.0785061602531832
23.327188,5.531011148409613,0.0780876152728449
23.329588,5.56737572292708,0.0776973656624221
23.331976,5.604531693377464,0.0773137464473504
23.33436,5.639965102335153,0.0769306651531091
23.336756,5.672465244986647,0.0765701516341776
23.339148,5.703754682824642,0.0762287933595576
23.391692,5.718047031445411,0.0761442486607478
23.394096,5.718326570699132,0.0761289580660575
23.396484,5.722610311445686,0.0760811140193888
23.398864,5.727545678498297,0.076044081000737
23.401256,5.733971289618128,0.0759719840871685
23.403644,5.738953878498982,0.0758855132514515
23.406024,5.740631114021305,0.0757924819570757
23.408428,5.741796492864431,0.0756799500276779
23.410816,5.746034907640611,0.07553879248068
23.413196,5.750552861670512,0.0753816856428698
23.415592,5.753488023834575,0.075217388748149
23.41798,5.758565056371916,0.0750295230386833
23.42036,5.768065599282672,0.0747854104826637
23.422756,5.774772645514094,0.0745559373180422
23.425144,5.780548526185736,0.07433060767939
23.427524,5.792190939469769,0.0740645642801956
23.42992,5.804252661634383,0.0737771001764265
23.432308,5.819247650105192,0.0734714235326886
23.434704,5.82823633633675,0.0732150332092681
23.437104,5.837085252941447,0.0729676974276107
23.439492,5.845654630292425,0.0727378789135688
23.441872,5.853153072456763,0.0725203038709251
23.444268,5.857997787568628,0.0723067306091749
23.446652,5.864612286001432,0.0720451304366369
23.449032,5.870947245180516,0.0717990294221583
23.451432,5.877002665105879,0.0715673043870262
23.453816,5.888784848016772,0.0713053734184917
23.456196,5.906293793913196,0.0710155852242156
23.458592,5.920869473503422,0.0707450315715322
23.46098,5.940100980892543,0.0704591753574325
23.463376,5.961986215334137,0.0701704447211354
23.465772,5.97786514753648,0.0699244487197728
23.46816,5.988529173432492,0.0697257843245258
23.47054,5.996120163395447,0.0695515459443874
23.472944,6.005713254104821,0.0693632538829599
23.475332,6.010370977761583,0.0692078521535914
23.477712,6.014749162164622,0.0690681397330495
23.480108,6.0135403532089935,0.0689488193619123
23.482492,6.012471313880225,0.0688213645650301
23.484876,6.010610878618538,0.0686901030285824
23.487276,6.004094615557959,0.0685753293510404
23.489664,5.998509518057157,0.0684572934300343
23.492044,5.99557814760883,0.0683365513876463
23.49444,5.995440273839839,0.0682072323110382
23.496828,5.997304500817264,0.0680649891611484
23.499208,6.0022417637277465,0.0678994702041358
23.501604,6.009460666638366,0.0677090146926446
23.503992,6.014957008056286,0.0675196498837771
23.506372,6.020732888727929,0.0673157016939972
23.50878,6.020921776040902,0.0671292296567915
23.511164,6.020179497794096,0.0669458210075169
23.513544,6.025583291413401,0.0667176062997002
23.515948,6.039275027272094,0.0664273788610525
23.518336,6.059392374250617,0.0660803289178917
23.520716,6.076576454922947,0.0657483688583362
23.523112,6.094971240408775,0.0653985630385202
23.525496,6.112295090707964,0.0650592454891182
23.527876,6.131341502499849,0.0647197372704833
23.530272,6.151179310224654,0.064383224193374
23.53266,6.169806413135959,0.0640635231893976
23.535056,6.192158178286377,0.063732935222722
23.53746,6.21171644675746,0.0634101287924599
23.539844,6.2283414489223485,0.0631018559765195
23.542228,6.236818278474709,0.0628500622437593
23.544628,6.242361841720874,0.0626136312911154
23.547016,6.245111908287705,0.0623852670855865
23.549396,6.239294493361427,0.062232536435888
23.551792,6.229472876942315,0.0621030700649964
23.554184,6.222444757202538,0.0619666110887158
23.556564,6.218861760448154,0.061835074107546
23.558968,6.215278763693771,0.0617035151205275
23.561352,6.209693666192969,0.0615835695044659
23.563736,6.197962496826057,0.0615041102290424
23.56614,6.181947586712592,0.0614595970660232
23.568524,6.171659439584658,0.0613960769089907
23.570904,6.1641647891360565,0.061326521241666
23.573304,6.157089447568037,0.06123634948378
23.575692,6.151364580440376,0.0611236285398161
23.578068,6.147921353312853,0.0609867777081227
23.580472,6.145549061371967,0.0608411128813228
23.58286,6.141174668684666,0.0607058517743451
23.58524,6.139873311930419,0.0605514485257347
23.58764,6.1436470918556445,0.0603683520424357
23.590028,6.153427174020121,0.0601539725784374
23.592408,6.164138421744376,0.0599378344669409
23.594804,6.173499195028271,0.0597430337143944
23.597192,6.186352313125802,0.0595067266084747
23.599572,6.197994726409835,0.0592841248582912
23.601968,6.207635038947451,0.0590732196984376
23.604356,6.213830228499674,0.0588556983427462
23.606736,6.219094252492119,0.0586397712300314
23.60914,6.224358276484564,0.0584242770016208
23.611524,6.229622300477009,0.05820831671448
23.613904,6.2347465548425935,0.0579987122433788
23.616308,6.233212880662869,0.0578079025804283
23.618696,6.227814774617172,0.0576303425449099
23.62108,6.219203863011559,0.0574773649618445
23.623476,6.211104808085143,0.0573436174522365
23.625864,6.2028659835318685,0.057216802349337
23.628244,6.191973431926119,0.0570866655032024
23.63064,6.183362520320506,0.0569328183701527
23.633028,6.173680673528255,0.0567870698909059
23.635408,6.161996725989587,0.0566510786706785
23.637804,6.148310677704501,0.056524379684396
23.640192,6.134624629419417,0.0563974396895686
23.642572,6.127224422627302,0.0562297988371836
23.644976,6.123688647701161,0.0560512726505912
23.647364,6.127509649454629,0.0558254582774327
23.649744,6.129468320088541,0.0556012669776617
23.65214,6.136222588148205,0.0553660487972023
23.654528,6.143116625834729,0.0551238073381006
23.656908,6.150941829081031,0.0548814976135923
23.659308,6.158627262700474,0.0546452520913604
23.661692,6.167523401133414,0.0543946359231465
23.664072,6.179352805872552,0.0541338939615495
23.666476,6.19504664247766,0.0538634931391661
23.668864,6.21674678132202,0.0535685678239115
23.671244,6.2390059986738216,0.0532491359371086
23.673652,6.261265216025622,0.0529319312997424
23.676036,6.288180261176317,0.0526117351403781
23.678416,6.311091104834175,0.0523080484436025
23.68082,6.335584740357871,0.0520177840018764
23.683208,6.35728487920223,0.0517302714405359
23.685588,6.376331290994117,0.0514375039594796
23.687992,6.392584206106667,0.051145687608326
23.69038,6.399618013420052,0.0508988577722776
23.69276,6.398643417747769,0.0506824524294905
23.695156,6.391382980582516,0.0505028358719866
23.697544,6.3853332482307605,0.0503085671594334
23.699928,6.373277213639755,0.0501365603269983
