Time,Force,Position
21.587656,5.996655953070605,0.1473833346802649
21.590036,6.019748100609961,0.1470670965119135
21.59244,6.039674664417642,0.146776088214494
21.594824,6.056947501172848,0.1465196795300083
21.597208,6.0775256912865885,0.1462346611109815
21.599604,6.098475968452663,0.1459697526811453
21.601992,6.121381124536914,0.1457133017289842
21.604372,6.145589533233281,0.1454606056472741
21.606768,6.172172129728405,0.1451890780722398
21.609156,6.196053777342809,0.1449960508683875
21.611536,6.222496604211073,0.1447257052545507
21.61394,6.246705012907441,0.1444650307663789
21.616328,6.269889708245414,0.1441828211885311
21.618708,6.285532531306546,0.1439832189291622
21.621104,6.292562546904192,0.1438901982495435
21.623492,6.296054891717827,0.1438013598813056
21.625876,6.295730026493733,0.1437338543554485
21.628272,6.291960038284246,0.143707064648684
21.63066,6.289820063768838,0.1436223263456713
21.63304,6.285957527760735,0.1435573391073056
21.635436,6.288660372499319,0.1433507854807161
21.637824,6.288709490185433,0.1431767420823065
21.64022,6.289177916752125,0.142976943155371
21.642616,6.293278457759316,0.1426855180649469
21.645004,6.293142479848193,0.1424373816530644
21.647384,6.292354875631014,0.1421849519357281
21.64978,6.291055414734637,0.1419204003147988
21.652168,6.289244097159061,0.1416429500523225
21.654548,6.28571021809079,0.1413835481712664
21.656948,6.287950323836292,0.140986297281991
21.659336,6.290609738462374,0.1405653732706473
21.66172,6.290335886782262,0.140190914005415
21.664116,6.287268538422811,0.1398572425436677
21.6665,6.286343060436641,0.1394768955795385
21.668884,6.291284115062861,0.1389964024431418
21.67128,6.293152133756024,0.138572925405093
21.673668,6.291807346889273,0.1382159313013238
21.676052,6.293675365582437,0.1377920710752498
21.678456,6.288605916476572,0.1374910241627556
21.680844,6.280742970691371,0.1372310453660271
21.683224,6.264592082666784,0.1371311868860116
21.68562,6.252165856881308,0.136976429044457
21.688012,6.242253588521449,0.1367980103801193
21.690392,6.22978014090773,0.1366877817890939
21.692788,6.216328305905991,0.1366373734904968
21.695176,6.205530197956728,0.1365550876047652
21.69756,6.1964546515001615,0.1364543303467173
21.699956,6.190824228028985,0.1363177408740674
21.702344,6.187987301237145,0.13614161526199
21.704724,6.182309655937728,0.1360510714074597
21.707124,6.176352471384591,0.1359771147707613
21.709512,6.181057416869594,0.1357378986599053
21.711892,6.190697729407209,0.1354197276856051
21.714292,6.202200373064382,0.1350771941394226
21.71668,6.208116023362885,0.1348106372452404
21.71906,6.219106810340861,0.1344564581113299
21.72146,6.232379237318973,0.1340495797305524
21.723848,6.241507693177391,0.1337192966985719
21.726232,6.255571516088422,0.1333080252240157
21.728628,6.271637439745869,0.1328627490758912
21.731016,6.288634528963095,0.1324024475505976
21.733396,6.301487647060626,0.1320190206641836
21.735792,6.31233866441174,0.1316714271730244
21.738184,6.322258516203076,0.1313346540878151
21.740564,6.336462108740967,0.1309137880365552
21.742964,6.347592665345802,0.1305472577130746
21.745352,6.355650186017582,0.1302350976660108
21.747732,6.359051878890471,0.1299856128486441
21.750136,6.361382636576719,0.1297578018296429
21.75252,6.367345508703466,0.1294428066329104
21.766852,6.303435117165805,0.1293111741118362
21.769232,6.295847918918586,0.1292855333597046
21.771628,6.291193986977564,0.1292159568157487
21.774016,6.287191681342598,0.1291508836908969
21.776396,6.284911937200328,0.1290706923511551
21.778792,6.281701027498281,0.1290018698224159
21.78118,6.278629887423094,0.1289246497221103
21.783576,6.275698516974765,0.128839168716203
21.785976,6.278493909511967,0.128676103214284
21.788364,6.277424870183196,0.128567568212082
21.790744,6.281430967533897,0.1283775131308913
21.79314,6.290372431937211,0.1281147339453324
21.795524,6.303038558579637,0.1278053721091638
21.797904,6.316496081154981,0.1274936033240424
21.8003,6.330605230036386,0.1271915340403157
21.802688,6.351279759664484,0.1267646367651584
21.805072,6.379822922651386,0.1262213420365433
21.807476,6.410368186384705,0.1256487964238906
21.80986,6.439330658252189,0.1250836862925163
21.812244,6.468432899746531,0.1245146395946295
21.81464,6.492739543815125,0.124011767574719
21.817028,6.513181756017743,0.123563460601738
21.819408,6.53441536415328,0.1231162092152457
21.821804,6.556068281169398,0.1226511251368215
21.824192,6.572785831132902,0.1222546569883388
21.826588,6.59336781296238,0.1218087988010422
21.828984,6.617814226657831,0.1213138223451791
21.831372,6.638256438860449,0.1208736643131917
21.833752,6.652040722517759,0.1205173897856513
21.836148,6.667827106921485,0.1201313345657667
21.83854,6.682682325765436,0.1197612505515677
21.84092,6.692881716810493,0.1194443095557561
21.843316,6.70336064710927,0.1191139134823681
21.845704,6.712256785542213,0.1187887746174556
21.848088,6.717288492109179,0.1185131175484152
21.850484,6.720178328302867,0.1182740866903676
21.852872,6.718412336697664,0.1180848236672988
21.855252,6.715715179532684,0.117905608457647
21.857652,6.717161993487398,0.1176659463352762
21.86004,6.717398102628613,0.1174513021999843
21.86242,6.717494442142967,0.1172430420704733
21.864824,6.71987242165746,0.1169931164432821
21.867212,6.719596674119479,0.1167649026104577
21.869592,6.714757646581222,0.1166198390576253
21.871988,6.714714216468717,0.1164194927183921
21.874376,6.712528915982935,0.1162536390556504
21.87676,6.70647918363118,0.1161329213446163
21.879156,6.7075066887053145,0.1159163596898558
21.881544,6.713469560832061,0.1156379231168167
21.883928,6.722505468891862,0.1153191052453528
21.886324,6.727397405831968,0.1150597621914706
21.888712,6.735222609078271,0.1147656729510239
21.891092,6.743839208257491,0.1144721683614393
21.8935,6.7543181385562665,0.1141613295140551
21.895888,6.766799169601461,0.1138257981517273
21.898268,6.783144632512628,0.1134512861786059
21.900664,6.801212656916492,0.1130657543206726
21.903052,6.818209746133717,0.1126963804409996
21.905432,6.828920993857972,0.1124170926153211
21.907828,6.839260154529888,0.1121175646835622
21.910216,6.851880955201943,0.1117781548142653
21.912596,6.864501755873997,0.1114412029439542
21.914992,6.8799160532253865,0.1110800558767723
21.91738,6.9008247961368285,0.1106342387415923
21.91976,6.922013078301992,0.1101787408578113
21.922156,6.94776464046743,0.1096529921500208
21.924544,6.9775204041257,0.1090817011137334
21.92694,7.00206126147764,0.1085821493666449
21.929336,7.02432047882944,0.1081227276497901
21.931724,7.037360588382077,0.1077762936444519
21.934104,7.053333964240907,0.1073981789158839
21.9365,7.0671654697264605,0.1070511697642201
21.938892,7.079274413719317,0.1067152639670594
21.941272,7.091523127339035,0.1063744713554656
21.943668,7.100978344279415,0.1060572503881267
21.946056,7.105498194167184,0.1057945337455039
21.948436,7.114301784801508,0.1054762699356256
21.95084,7.125107476182248,0.1051365391725294
21.953228,7.138846433869185,0.1047656769630514
21.955608,7.154168183421958,0.1043947913664061
21.958004,7.171352264094287,0.1040116828547182
21.960392,7.18546330883356,0.1036647309605348
21.962772,7.19584969133372,0.1033479684121966
21.965172,7.197576044542155,0.1031102701183668
21.96756,7.195577735511476,0.1029019903432598
21.96994,7.183289383494993,0.1028136083696618
21.972336,7.17006986591873,0.1027317279421603
21.974724,7.160063153902385,0.1026078234914415
21.977104,7.149824124460562,0.1024566322333004
21.979504,7.149875138004544,0.1021865728483391
21.981892,7.147691733376631,0.1019104319503233
21.984272,7.145787868002439,0.1016201333299801
21.986668,7.138808865948775,0.1013841804073954
21.989056,7.127965432029138,0.1011828273226272
21.991436,7.118053163669277,0.1009736424277807
21.993836,7.107629038630222,0.1007500601385851
21.99622,7.089056740978636,0.1006169867334368
21.998616,7.0656888459013,0.1005257661059187
22.001012,7.0467444611973775,0.1003706742902329
22.0034,7.026729141306817,0.1002288481633657
22.005784,7.002849389550283,0.1001203167555609
22.00818,6.981251277793885,0.099976818775028
22.010568,6.958722000477709,0.0998395492651886
22.012948,6.942571112453122,0.0996603821835322
22.015348,6.928142785921231,0.0994735491990701
22.017736,6.92000030088231,0.0992090373978452
22.020116,6.9059912832310015,0.0989993723363015
22.022516,6.891051100019911,0.0987961780047937
22.024904,6.8766227734880205,0.0986061145684725
22.027284,6.856327914343742,0.0984697633529487
22.029684,6.835473976692019,0.0983602119575314
22.032072,6.8156909742269365,0.0982357564957479
22.034456,6.801914274001103,0.0980495064528596
22.036852,6.794004106387659,0.0978086861854432
22.03924,6.787304643587715,0.0975469051481314
22.041624,6.78125680709383,0.0972914698416948
22.04402,6.777630380226942,0.0969928134595951
22.046412,6.780289794853023,0.0966185840312149
22.048792,6.775732202426356,0.0963264413918477
22.051188,6.767869256641157,0.0960381484437508
22.053576,6.762148181229235,0.0957219695439922
22.055956,6.7573582713770906,0.0953997875397196
22.05836,6.754570462271364,0.0950561841805685
22.060748,6.752201962046216,0.0946927402210555
22.063128,6.747039965141735,0.0943471645835373
22.065524,6.742809133797032,0.093995898778044
22.067912,6.745515770251357,0.0935786392100965
22.070292,6.746499845212986,0.093166442396672
22.072688,6.745481819428198,0.0927728247562009
22.075076,6.743532628083632,0.0923831897465743
22.077456,6.745727407858759,0.0919480283611804
22.079852,6.748573813939945,0.0915220520114422
22.082236,6.7456934570356015,0.0911379341267112
22.084636,6.737086337145727,0.0907973718488986
22.087032,6.727268512442355,0.0904762763481423
22.089416,6.714517421432788,0.0901784060430809
22.0918,6.706422158222111,0.0898506325278303
22.094196,6.69390338463802,0.0895810907635249
22.09658,6.682595315867427,0.0892899601038012
22.09896,6.6758033052688655,0.0889752353962722
22.101356,6.665658719483529,0.0887052022806637
22.103744,6.652161558511416,0.0884804499973882
22.106128,6.640526728658861,0.0882435778859924
22.108524,6.629171438060025,0.0879924451853762
22.110908,6.620749413767384,0.0877163315083321
22.113288,6.610045749474607,0.0874721949155432
22.115688,6.600273250741608,0.0872234337376825
22.118076,6.59408564462086,0.0869599183476461
22.120456,6.591110844060031,0.0866594715618374
22.122852,6.594793972044508,0.0863163128244153
22.12524,6.595264294469071,0.0860101621721094
22.12762,6.592941120214299,0.0857191937973308
22.130016,6.598207040064613,0.0853800629539205
22.132404,6.6038450469672645,0.0850610593955767
22.134784,6.610553989056555,0.0847301903616326
22.13718,6.622198298198458,0.0843589312753373
22.139568,6.627976074727968,0.0840329539472142
22.141952,6.635755952003898,0.083689368451924
22.144348,6.645258390772522,0.0833423484750705
22.146736,6.653550124727649,0.0830153269533478
22.149112,6.667987930548885,0.0826318344021651
22.151512,6.684707376370259,0.08221717798816
22.1539,6.699564491072077,0.0818138193605555
22.15628,6.70985832577362,0.0814711500536957
22.158692,6.719081225288525,0.0811404758098
22.16108,6.731516930363345,0.0807764534313443
22.16346,6.737946333198915,0.0804619088293289
22.165856,6.740371534541651,0.0801799651642854
22.168244,6.738792534391554,0.0799296114746306
22.170624,6.730927692748485,0.0797410484152186
22.17302,6.724273555918916,0.0795340441439991
22.175408,6.721483850955319,0.0793024553364959
22.177788,6.718833915618582,0.0790661144837499
22.180184,6.721818195468759,0.0787623501164767
22.182572,6.722800374572518,0.0784732436369962
22.184952,6.7217804529298615,0.078199435896289
22.187348,6.725835667966677,0.0778851809851242
22.18974,6.73217252300363,0.0775447011600132
22.19212,6.738369608413723,0.0772112345453583
22.194516,6.745917168264174,0.076855211711025
22.196904,6.749460526621792,0.0765295415348268
22.199284,6.750070618673213,0.0762209666108538
22.201684,6.750261401844056,0.075931498837465
22.204072,6.753525220947954,0.0756163201343154
22.206452,6.760653471917824,0.0752809800760232
22.208852,6.761915190275304,0.074980841294143
22.211236,6.762105973446147,0.074688222378991
22.21362,6.763367691803627,0.0743841419817113
22.216016,6.768493842027081,0.0740579696148619
22.218404,6.778183272250809,0.0736774860090562
22.220784,6.787872702474537,0.0732980559676303
22.22318,6.79462886639207,0.0729374509990608
22.225568,6.795378728070353,0.0726185345922089
22.227952,6.794638345681417,0.072331950496253
22.230348,6.798833330345092,0.0720163937811265
22.232736,6.808103451688239,0.0716673029100408
22.235116,6.812018897098194,0.071366819045036
22.237516,6.813792472134873,0.0710870238281875
22.2399,6.815845586425271,0.0707947030436053
22.242284,6.814825664782616,0.0705243125231826
22.24468,6.814736908699737,0.0702507529099604
22.247068,6.819583519669471,0.0699496360573932
22.249452,6.830064345826115,0.0695917526491012
22.251864,6.842687042356039,0.0692176810534028
22.254252,6.8526560118334885,0.0688484555479155
22.256632,6.868211974669607,0.0684626360144802
22.259028,6.892987045304892,0.0680172353878366
22.261416,6.920695382246372,0.0675599818610955
22.263796,6.948263949560992,0.0671120548223304
22.266192,6.972479941688835,0.0666990815262207
22.26858,6.996695933816679,0.066287876721202
22.270964,7.019980760384744,0.0658783872258323
22.27336,7.047409558072503,0.0654409013472114
22.275748,7.068180427214955,0.0650253022276816
22.278128,7.085878260424351,0.0646324236929832
22.280528,7.096359086580998,0.0642877520973672
22.282916,7.107910847924283,0.0639323280816274
22.285296,7.116249803707654,0.0636012624461965
22.287692,7.123657593931245,0.0632727731011474
22.29008,7.136931916767227,0.062920806067816
22.29246,7.151416944416708,0.0625560835252871
22.294856,7.162828936133132,0.0622114219905118
22.297248,7.16460251116981,0.0619400215437099
22.299628,7.164234215833211,0.0616857615427135
22.302024,7.162655215683114,0.0614454736237754
22.304416,7.159213884413459,0.0612095948928247
22.306796,7.148555546091055,0.0610170309074339
22.309192,7.133893006275818,0.060843116570915
22.31158,7.116576739408105,0.0606675929639854
22.313964,7.098469076607474,0.0604868117609259
22.316376,7.082363514553261,0.0602964227787044
22.318764,7.0710535499248,0.0600920251329757
22.321144,7.059324276415757,0.0599056422325933
22.323544,7.051459434772689,0.0597057513515817
22.325928,7.042663427569842,0.0595069884866611
22.328312,7.038011391486688,0.0592838284469902
22.330708,7.038294722456147,0.0590418814866686
22.333096,7.041511319731802,0.0587887259424705
22.335476,7.04752141368679,0.0585322044261582
22.337876,7.04645427021589,0.0583096803106882
22.340264,7.042453860438795,0.0580969304027677
22.342644,7.040176012154397,0.0578875997701082
22.34504,7.0431130701763305,0.0576465773455535
22.347428,7.044048027451847,0.0574136531166624
22.349812,7.044843215100504,0.0571862634573752
22.352208,7.042705136442965,0.0569678422356504
22.354596,7.040706827412287,0.056742313440408
22.356976,7.039779453568248,0.0565087122835823
22.359372,7.042576741963321,0.0562706946756101
22.361756,7.047236361477951,0.0560300435501407
22.36414,7.046681074686249,0.0558191211654067
22.366536,7.041469960095655,0.0556139507638354
22.368924,7.036817924012501,0.0553853325607616
22.371308,7.035378693489264,0.0551363561426249
22.373704,7.0348706285258045,0.0548862941573927
22.376092,7.033571167629427,0.05463178967739
22.378476,7.029478210053715,0.0543808979118964
22.380872,7.026735726918362,0.0541120175283581
22.383264,7.020268581543895,0.0538461228641006
22.385644,7.019016342475761,0.0535530596153948
22.38804,7.022280161579658,0.0532632804959464
22.390432,7.025032124004358,0.0529574161042054
22.392812,7.031788287921892,0.0526398801303406
22.395208,7.040546552585843,0.0523150004748109
22.397596,7.049304817249792,0.0519895299407886
22.39998,7.061136117846797,0.0516501787816291
22.402376,7.077763015869553,0.0513039823302898
22.404768,7.097323180198505,0.0509521909918568
22.407148,7.112739373407765,0.0506200284675234
22.409544,7.128295336243884,0.0502830458785118
