Time,Force,Position
24.11508,4.235836213067889,0.1587746506370701
24.117476,4.270096659750976,0.1585301253022409
24.119864,4.300866657478297,0.1582447598903229
24.122244,4.330008537369406,0.1578712866005067
24.12464,4.354589033118111,0.157489855184917
24.127028,4.374049066216969,0.1571578641185201
24.129412,4.392205846703711,0.1568255003856077
24.131816,4.413156123869789,0.1564346983765036
24.134204,4.436899897715202,0.1559831608676669
24.136584,4.461015758612952,0.1555583236533889
24.138988,4.487086498428875,0.1551393676143675
24.141376,4.518324922722887,0.1546309545632485
24.143756,4.55445149224127,0.1540500220231422
24.14616,4.59095014881199,0.153497105652884
24.148548,4.630382071688904,0.1528637592590882
24.150928,4.678753563111263,0.152009198503088
24.153324,4.730477629720402,0.1510616587514944
24.155712,4.780898443717422,0.1501236951702772
24.158092,4.8290848395425465,0.1492293529355892
24.160488,4.872475637941921,0.1484723448093714
24.162876,4.919917859662371,0.1475687299769704
24.16526,4.966056828770707,0.1466698663688063
24.167656,5.007679739707012,0.1458602495296831
24.17004,5.044646822844425,0.1451521859207769
24.17242,5.081474136354976,0.1444613342226993
24.174816,5.113877939492115,0.1438987318377253
24.177204,5.145210807442614,0.1433680952703966
24.179588,5.174401805019835,0.1429027961005926
24.181984,5.201590701850641,0.1424878311533907
24.184368,5.233063339428,0.1419693804962732
24.186752,5.272684149617888,0.1412822826791709
24.189148,5.30951146312844,0.1406527024678888
24.191536,5.349970891079487,0.1399308584053963
24.193916,5.393131267911254,0.1391262544389838
24.196316,5.434988392130904,0.1383187746240994
24.1987,5.467254321499052,0.1377024378386661
24.201084,5.4964944367623865,0.1371117963346118
24.20348,5.523220594600107,0.1365486984444326
24.205864,5.54342859351938,0.1360893806233027
24.20826,5.563683814266894,0.1355828276782276
24.21066,5.580214372775297,0.135142676595633
24.213048,5.593951434604363,0.1347456380870024
24.215428,5.611180841247066,0.1342599652990883
24.217824,5.630831657516765,0.1337093527463562
24.220212,5.650901782667045,0.1331346831275535
24.222596,5.672741691138267,0.1324853618393403
24.224992,5.695280447743789,0.1317913937574928
24.22738,5.716935260617774,0.1310624001466546
24.22976,5.74008031755898,0.1302857093007442
24.23216,5.755496510768238,0.1296414709845448
24.234544,5.758388242819798,0.1292086253190324
24.236928,5.761839053378799,0.1287393673601614
24.239324,5.758631935392492,0.1283758404474499
24.241708,5.753702255913487,0.128031486464669
24.244088,5.747050014941787,0.1277030813699415
24.246488,5.741096622104387,0.1273273737827975
24.248876,5.731139027774154,0.1270211257358169
24.251272,5.722671677511141,0.1266645737040715
24.253668,5.719419233554458,0.1262048269808803
24.256056,5.712953984037861,0.1258111305090608
24.258436,5.703695237841928,0.1254547522359581
24.260832,5.696857901272992,0.1250345930103504
24.26322,5.688298003211361,0.1246316850004531
24.2656,5.679738105149731,0.1242294155002557
24.268,5.667593314475846,0.1238665193640991
24.270388,5.654237818988463,0.1235325895737311
24.272768,5.639671618687581,0.1232278015747766
24.275164,5.622544239132842,0.1229914197143707
24.277552,5.601412658085269,0.1228212957249489
24.279932,5.587498084090446,0.1225179765569689
24.282332,5.57465444528226,0.1221906012173597
24.284716,5.559668936100797,0.1219055079409172
24.2871,5.543472722105836,0.1216503474829172
24.289496,5.522201371431402,0.1214856523336227
24.291884,5.504794452622941,0.121259041718039
24.294268,5.489249864934038,0.1210055300397405
24.296664,5.475567608364692,0.1207257074974743
24.299048,5.460534877354987,0.1204852322046629
24.301444,5.44550214634528,0.1202433341855253
24.303844,5.431121041641633,0.1200071721626879
24.306228,5.4192538943636,0.1197515763393982
24.308612,5.407898603764764,0.1195109580222744
24.311008,5.394261673165792,0.1193215017246228
24.313396,5.378482872193542,0.1191737256408003
24.315776,5.364147093460268,0.1190289843391981
24.318172,5.348600609913496,0.1189154336003643
24.32056,5.33384552229964,0.1187980043419577
24.32294,5.32295486655176,0.1186215044708932
24.32534,5.316068412296713,0.1183760161634574
24.327728,5.304758447668251,0.1182258568428687
24.330108,5.299035476398459,0.1180027863354268
24.332504,5.295174836248225,0.1177549276899683
24.334892,5.294107692777324,0.1174696077852833
24.337276,5.296904981172398,0.1171239611193058
24.394628,5.027237334649641,0.1170370392269623
24.397024,5.023559894238771,0.1170295168253444
24.399412,5.024398511999932,0.1169713178655564
24.401792,5.029892957559985,0.1168533419485374
24.404196,5.041765792411626,0.1166602186276333
24.406584,5.057642828756101,0.1163969434510077
24.408964,5.082319664019161,0.1159960772606145
24.411364,5.098568787415973,0.1157644099681543
24.413752,5.11775117711898,0.1154957386990209
24.416132,5.141589394620879,0.1151702513093635
24.418532,5.169803900667949,0.1148071598626213
24.42092,5.198949572274798,0.114429979377487
24.4233,5.233170380561118,0.1139668347249975
24.4257,5.268182584780358,0.1134991937112716
24.428084,5.3050571201191525,0.113011450127505
24.430468,5.339650015457811,0.1125747444514904
24.432864,5.373963371542748,0.1121599953034978
24.435256,5.404272526134854,0.1118064871548808
24.437636,5.436024702965933,0.1114601223644877
24.440036,5.466985483864094,0.1111252923039802
24.44242,5.492731358455924,0.1108830756696033
24.444804,5.519548168234392,0.1106227505411377
24.4472,5.542360776520026,0.1104273108945877
24.449588,5.562379888126325,0.1102671815236012
24.451972,5.581887143053427,0.1100943136029238
24.454368,5.602605102794026,0.1098955401750248
24.456756,5.620250026601571,0.1097513274232203
24.459136,5.640176590409253,0.1095573348300449
24.461536,5.653817312723964,0.1094724687632147
24.463924,5.663593603172702,0.1094378723683426
24.466304,5.671926871382464,0.1093983046860436
24.4687,5.683333175525281,0.1093120673649473
24.471092,5.690735278175265,0.1092834610517164
24.473472,5.699999711944805,0.1092352100142446
24.475868,5.708193210527707,0.1092059004047893
24.478256,5.718528579483886,0.1091394837784894
24.48064,5.729003718066925,0.1090648997761035
24.483036,5.745485158889214,0.1089055641136481
24.485424,5.757590311166331,0.1087773182942066
24.487808,5.76382893083106,0.1087254658608999
24.490212,5.77514268717526,0.1085978975426497
24.4926,5.784873651653623,0.1084740298241684
24.49498,5.7947443857588485,0.1083406409717279
24.497376,5.804615119864072,0.1082072521192874
24.499764,5.809270947662963,0.1081576244605087
24.502148,5.815649336954552,0.1080983271780276
24.504544,5.818303064007027,0.1080777808046066
24.506932,5.823098661432779,0.108021343588938
24.509312,5.831107064418447,0.1079108620722658
24.511712,5.843538977777529,0.1077213943381774
24.5141,5.85583112150975,0.1075419763755175
24.51648,5.867052330055332,0.1073826648126915
24.51888,5.88162611378769,0.1071635883656143
24.521268,5.897829911214127,0.1068981431386439
24.523648,5.913661621588228,0.106610166665048
24.526044,5.930704036775827,0.1062997332416574
24.528432,5.946955056030509,0.1059910052899444
24.530816,5.96320607528519,0.1056870714924847
24.533212,5.9871859582718185,0.1053009728855652
24.5356,6.018382848311197,0.1048177909353065
24.537984,6.045063680178543,0.1043694107140029
24.54038,6.069602641672612,0.103952759579925
24.542768,6.096143703913097,0.1035116052413807
24.545148,6.121893370220665,0.1030703515847396
24.547548,6.152066546901646,0.1025532290439255
24.549936,6.174510859850682,0.1021203708065726
24.600124,5.790035997795079,0.1019356328503101
24.602508,5.762384361971189,0.1018872471451974
24.607292,5.703588745509771,0.1018599081649
24.609676,5.676448966365079,0.1018311519873056
24.612076,5.652242453526581,0.1017678459571728
24.614464,5.62924664550158,0.1016793791622397
24.616848,5.6078336293424185,0.1015908048355675
24.619244,5.58348734687706,0.1015374281042297
24.621632,5.563796892210594,0.101440467288421
24.624012,5.545968768663683,0.1013252296273044
24.626408,5.53638136552792,0.1011388848803434
24.628796,5.534475604295858,0.10091446345233
24.63118,5.540158937168883,0.1006070506495088
24.66464,5.473031948355574,0.1004697137942364
24.667024,5.483367317311753,0.1004170808698891
24.66942,5.4967757222009865,0.1003236217570027
24.671808,5.50962504858278,0.1002645195757757
24.674192,5.523265770897491,0.1002072102200543
24.676592,5.538536506906282,0.1001007524072295
24.67898,5.552316998847854,0.1000367362778395
24.681364,5.570473779334597,0.0999474980594394
24.683764,5.590492890940896,0.0998426439383639
24.686152,5.614516204040028,0.0996904776654265
24.688532,5.6442662801246914,0.0994781824427109
24.690928,5.678020557702186,0.0992167884385652
24.693316,5.71978323826535,0.0988566981584076
24.6957,5.758472882895459,0.0985413001110146
24.698096,5.801166729018403,0.0981775065224643
24.700484,5.843581035887625,0.0978348797518889
24.702868,5.888928609063042,0.0974665518913344
24.705264,5.931063376678544,0.0971447579906892
24.707652,5.975340014667323,0.0967938918784681
24.710032,6.016683386349905,0.0964773238588957
24.712432,6.054022556539658,0.0962088312320392
24.71482,6.0921531226623244,0.0959474841164363
24.7172,6.125720408784717,0.0957669252254622
24.7196,6.165293997146362,0.0955223517282535
24.721988,6.202865484761588,0.0953029528035066
24.724368,6.2393660371901785,0.0951037604702292
24.726764,6.277496603312846,0.094860888285743
24.729156,6.316046478316094,0.0945978579338796
24.731536,6.353385648505844,0.0943583677236713
24.733932,6.386580847575901,0.0941716193694678
24.736324,6.422057686646095,0.0939532113914093
24.738704,6.45674312978337,0.0937379880465627
24.741104,6.489845781054808,0.0935281712283764
24.743492,6.520946331579831,0.0933361999723407
24.745872,6.549393155052378,0.0931584941713521
24.748268,6.573184150726033,0.0930120028930821
24.750656,6.592319318600797,0.0928994497314125
24.753036,6.615598457595255,0.0927393339561657
24.755432,6.633290603231043,0.0926177111633627
24.75782,6.650191352933913,0.0924947262529977
24.760204,6.672446778569976,0.0923050918081531
24.7626,6.692979642713341,0.0921240208653506
24.764988,6.714071585364148,0.0919139009864141
24.767368,6.72678303797695,0.0917616598944333
24.769768,6.7379116987239165,0.0916076445929743
24.772156,6.743313596485352,0.0914975563726526
24.77454,6.745782227940593,0.0914134895272914
24.776936,6.744526197156721,0.0913540694168528
24.779324,6.742106683387593,0.0912715378943366
24.781708,6.736381816259933,0.0911921065283219
24.784104,6.72572158207966,0.0911575918040076
24.786492,6.714269951966468,0.09112162128621
24.788876,6.700676451480001,0.091110842824676
24.791272,6.690435526180308,0.0910543185063904
24.79366,6.681265536067254,0.0909846174356004
24.796044,6.678660926700893,0.0908306940800194
24.79844,6.675264921401611,0.0906750940808886
24.800828,6.67349892979641,0.0904801441839203
24.803208,6.676016678937762,0.0902342921925224
24.805608,6.6808160680792525,0.0899565900150225
24.807996,6.678817759048574,0.0897327956943421
24.81038,6.671232456659226,0.0895421637751222
24.812776,6.663786923896736,0.0893445215807846
24.815164,6.659134887813583,0.0891293496405273
24.817548,6.657555887663488,0.0888839699491844
24.819944,6.662914355312418,0.0885788808599733
24.822332,6.670274923707766,0.0882562224351713
24.824716,6.683641794342365,0.0878820632715848
24.827112,6.69873122646966,0.087505030691858
24.829504,6.717824860089789,0.0870909190534738
24.831884,6.738408737777136,0.086644265282186
24.834284,6.755128183598512,0.086225428859001
24.836672,6.766120866434354,0.0858434991517797
24.839052,6.777253318897059,0.0854568743688608
24.841452,6.789596476173262,0.0850543436448743
24.84384,6.795374252702774,0.0847317359015513
24.846224,6.804876691471399,0.0843891020516148
24.84862,6.809815850239749,0.0841093937800077
24.851008,6.8135443041946,0.083849210078961
24.853388,6.817412527776313,0.083583705834492
24.855788,6.821420520984885,0.0833093597619255
24.858176,6.83050365087293,0.0829894074892461
24.860556,6.8349309529620825,0.0826921904049335
24.862956,6.839637794304955,0.0823817738909919
24.865344,6.840340434154996,0.0821047713647211
24.867724,6.8382495773257,0.0818435179648044
24.870124,6.832434058257292,0.0816005728702972
24.872512,6.821683172136271,0.0813949604255729
24.874892,6.807347393402997,0.0812002321767914
24.877288,6.795013715416141,0.0809894742646834
24.879676,6.780538167056006,0.0808001146429814
24.88206,6.76820448906915,0.0805873196511229
24.884456,6.757872911828709,0.0803568402298567
24.886844,6.7407436364161,0.0801705607894565
24.889228,6.717608058764241,0.0800311282829682
24.891624,6.697964825926017,0.079842943712389
24.894012,6.674457161221821,0.0796792089044637
24.896396,6.650437639838426,0.079498502034339
24.898792,6.624555787335475,0.0793257775192833
24.90118,6.595740668526329,0.0791715737700723
24.903564,6.56878788083674,0.0790072830700106
24.90596,6.538762057214095,0.0788684832397308
24.908348,6.516465097323397,0.078679226496917
24.910732,6.490303705566726,0.0785128742448625
24.913128,6.465492788250411,0.0783198851893418
24.915516,6.441613036493878,0.0781214067828589
24.9179,6.423739586976594,0.0778756195948328
24.9203,6.403724267086033,0.0776509176728531
24.922688,6.389295940554142,0.0774003417468044
24.925068,6.3717945780891965,0.07717544361803
24.927468,6.356155546743807,0.0769414659666919
24.929856,6.343449781704613,0.0766881483098651
24.93224,6.334748218158252,0.0764043843607645
24.934636,6.336708784650034,0.0760564379916287
24.937028,6.344675653381065,0.0756639224443814
24.939408,6.352362982858376,0.0752861608724796
24.941804,6.365265218642021,0.0748637519328199
24.944188,6.378958850358584,0.0744435473611445
24.946572,6.397448079500896,0.0739998786327085
24.948972,6.4155179997626295,0.0735747351338063
24.95136,6.434379315957281,0.073152916286413
24.95374,6.4551029632714885,0.072723494297838
24.956136,6.473544970585559,0.0723261879362525
24.958524,6.496642805698522,0.0719101630792956
24.960904,6.5211836630504605,0.0715092875219483
24.963304,6.540789153349786,0.0711388819914526
24.965692,6.556250672529419,0.0708057604456167
24.968076,6.578137802828882,0.0704132641076961
24.970472,6.595089566075734,0.0700526650875516
24.97286,6.613112264509224,0.06968272750393
24.975244,6.633276833315991,0.069295823392171
24.97764,6.64636416469687,0.0689571260608935
24.980028,6.6603826616375255,0.0686182486270498
24.982412,6.66946579152557,0.0683113170846412
24.984808,6.673334015107283,0.068045541464278
24.987196,6.678273173875633,0.0677711895889075
24.98958,6.679859757457208,0.0675331739281931
24.991976,6.684239837718118,0.0672876312041749
24.994364,6.685686651672832,0.067058038388153
24.996748,6.690346271187464,0.0668009778278512
24.999144,6.699429401075506,0.0665037983595201
25.001536,6.709583466150191,0.0661989066492453
25.003916,6.720156840105453,0.0658765648793126
25.006316,6.730869983687577,0.0655496497006843
25.008704,6.738929400217226,0.0652234140429219
25.011084,6.752855349359265,0.0648701697918345
25.01348,6.7666415288744455,0.0645228456662644
25.015868,6.774933262829571,0.0642265337939597
25.018252,6.784295931971337,0.0639207417092261
25.020648,6.793099522605661,0.0636406955014691
25.023036,6.799621473239847,0.0633854544212929
25.025416,6.816014157979258,0.0630842074880772
25.027816,6.830684281225971,0.062783181268901
25.0302,6.847356505219103,0.0624737901307771
25.032584,6.868964096264847,0.0621418985115093
25.03498,6.888429816937312,0.0618274794836026
25.037368,6.910037407983056,0.0614987130040606
25.039752,6.928060106416546,0.0611724968553584
25.042148,6.944220473730479,0.0608498862621641
25.04454,6.960241071417553,0.0605354683039781
25.04692,6.97304886354471,0.0602485779690139
25.04932,6.982504080485091,0.0599910751981946
25.051708,6.990608822985114,0.0597545183543614
25.054088,6.998713565485138,0.059519332486811
25.056484,7.010822509477995,0.0592667407038756
25.058876,7.019998187164655,0.0590256792367265
25.061256,7.030105030411095,0.058783092258
25.063656,7.043424679217451,0.0585181827364473
25.06604,7.059957133583722,0.0582326725656189
25.06842,7.078399140897792,0.0579052463432455
25.07082,7.098051853025362,0.0575659134700431
25.073208,7.110906866980764,0.0572499076444921
25.075592,7.122551176122666,0.0569475297367621
25.077988,7.1315417582120935,0.0566441058520185
25.080376,7.138949548435685,0.0563326708642314
25.08276,7.148778748286273,0.0559964748935072
25.085156,7.153812350711109,0.0556713147205006
25.087544,7.163781320188559,0.0553311765615317
25.089924,7.177754491158841,0.05497677848818
25.092324,7.188934165449789,0.0546251734828968
25.094712,7.197180573434541,0.0542821305997595
25.097096,7.207196764740233,0.053902494132224
25.099492,7.216840868993587,0.0535007269904524
25.101876,7.223551706940747,0.0531071330743858
25.104256,7.229191609701267,0.0527224204367369
25.106656,7.23390034690201,0.0523372870549685
25.109044,7.238236997050416,0.0519297408898899
25.111424,7.238709215332846,0.0515296032588617
25.113824,7.231824656935668,0.0511665054071911
25.116212,7.219305883351578,0.0508450360307981
