Time,Force,Position
30.40416,3.968109485848093,0.1444550673931945
30.406544,3.9679243902508574,0.1443390144343349
30.40894,3.9666683594669863,0.1442573593326691
30.411328,3.963270458309837,0.1442452483633338
30.413708,3.964668154578439,0.1441115038047782
30.416112,3.9734226275266495,0.1437422782058567
30.418496,3.981525474168804,0.143357843686589
30.423276,3.9800843477876966,0.1431529101605302
30.425664,3.983623914429576,0.1429451457659293
30.428048,3.98423021476526,0.142817365450464
30.430443999999994,3.990842817340195,0.1425180797956145
30.432832,3.9994575206615455,0.1421616994412537
30.435212,4.009282928796396,0.1417467775792249
30.437611999999994,4.019387876184967,0.141304299350704
30.487792,4.0186437020802925,0.1412292792924838
30.49256,4.032050211111658,0.1411694659130036
30.49496,4.041546962306675,0.1410764366145888
30.497347999999995,4.054768375740806,0.1409010004310704
30.499728,4.07106282510799,0.140637177344369
30.502123999999995,4.0852154041019,0.1404410693170644
30.504512,4.104443119775281,0.1401041554329849
30.506892,4.119387094702108,0.1399044647900429
30.509291999999995,4.139126667054687,0.1395950469892032
30.51168,4.16328974978068,0.1391438015218299
30.514064,4.184240026946758,0.1387958552821737
30.516464,4.203467742620139,0.1384819469328776
30.518848,4.228981299786491,0.137991815792921
30.521232,4.258638828072537,0.1373776764617724
30.523627999999995,4.283920067813412,0.1368439850176834
30.526016,4.309201307554287,0.1363084661645939
30.5284,4.335553482481801,0.1357472088297518
30.530795999999995,4.35790145591648,0.1352973095620861
30.533184,4.379458033418241,0.134856615258154
30.535568,4.402365085360361,0.1343633541809693
30.537963999999995,4.425272137302481,0.1338796719146442
30.540352,4.448598498125183,0.133354885963754
30.542736,4.4691313622685485,0.1328872644152828
30.545131999999995,4.484356772306966,0.1325053840647283
30.54752,4.497999390479547,0.132139609930289
30.549904,4.514715044585183,0.131697273944309
30.552299999999995,4.529288828317541,0.1313213684630652
30.554688,4.542279820184064,0.1309510121361159
30.557072,4.550754753878556,0.1306623265405692
30.559467999999995,4.551361054214239,0.13054953012499
30.561856,4.554668303430641,0.130331581849952
30.564236,4.557044387087265,0.1301319116277776
30.566632,4.5546248733181365,0.13003113889859
30.569019999999995,4.550482798056311,0.129952797316029
30.571404,4.547271888354265,0.1298572284781743
30.5738,4.546342618652356,0.1296932562413406
30.576187999999995,4.542899391524832,0.129556852270769
30.578568,4.540806638837667,0.1293694128084736
30.580963999999994,4.538574116523643,0.1291934539574798
30.585747999999995,4.520234136297535,0.129143795057453
30.588144,4.510132980624704,0.129135034936589
30.590532,4.501242529765371,0.1290862440299521
30.592912,4.498218611518428,0.1289139125710913
30.595308,4.495194693271484,0.1287414858481341
30.597696,4.485373076852372,0.1287083676029276
30.600075999999994,4.475970769313841,0.1286393652022037
30.602476,4.472434994387702,0.1284484628754955
30.604864,4.469550845767618,0.1282638579637314
30.607243999999994,4.475466496066121,0.1278961313445359
30.60964,4.478169340804708,0.1276139322146513
30.612027999999995,4.482082890356795,0.1272941036942662
30.614411999999994,4.4881383102821575,0.1269203219532977
30.616812,4.496195830953938,0.1265041618715501
30.6192,4.505324286812356,0.1260630230501656
30.621579999999994,4.508725979685244,0.1257266507055996
30.623976,4.513198607744771,0.1253633550546854
30.626363999999995,4.517671235804298,0.1250031745991121
30.628747999999995,4.51949013681135,0.124675917460518
30.631144,4.525173469684375,0.1242732641258092
30.633531999999995,4.535931939236872,0.1237540528956678
30.635912,4.547761343976009,0.1232144057164315
30.638312,4.556377943155229,0.1227520637651814
30.640699999999995,4.559128009722059,0.1224073358634953
30.64308,4.560946910729111,0.1220780049119244
30.645484,4.567980718042495,0.1216202597250466
30.647872,4.572732885355742,0.1212293832124849
30.650251999999995,4.573900160056736,0.1208919011085603
30.652648,4.573484642891894,0.1205612578961178
30.655036,4.56841329792816,0.1203087856489062
30.657419999999995,4.563202183337566,0.1200669418662087
30.659816,4.55398686725414,0.1199081123847367
30.666979999999995,4.506319911539688,0.1198470533741409
30.669368,4.494171329150065,0.1197422738840082
30.671752,4.4828141426933605,0.119632345025287
30.674147999999995,4.468244150676739,0.119600815184782
30.676536,4.458749295339591,0.119459438528702
30.678932,4.446600712949969,0.1193505876582139
30.681328,4.43272956906765,0.1192583868869404
30.683716,4.414993993319357,0.1192341485336228
30.686096,4.400610992757842,0.1191209525688287
30.688496,4.390092424062297,0.118936961068622
30.690884,4.380505020926532,0.1187374265600874
30.693268,4.372779948910324,0.1185082909802237
30.695664,4.364543020214918,0.1182583808938859
30.698052,4.359099588198846,0.1179652681520135
30.700436,4.35644965286211,0.1176290088311154
30.702832,4.353008321592455,0.1172939248458367
30.70522,4.349846529576521,0.1169348727881633
30.707604,4.3504093997997,0.1165171927129472
30.71,4.355907637075491,0.1160041372823843
30.712388,4.364339140657477,0.1154361564557159
30.714772,4.373422270545522,0.1148769403208754
30.717168,4.377570033380954,0.1144121236182104
30.719556,4.376502889910054,0.1140621779195311
30.721936,4.376646451252653,0.1136724618002636
30.724336,4.374368602968255,0.1133596691795916
30.72672,4.373813316176554,0.1130287521284914
30.729104,4.3760515260641855,0.1126568179603823
30.7315,4.3780101966980975,0.1123049600040611
30.733888,4.382902133638204,0.1119035489281869
30.736272,4.38872523613809,0.1114925589386354
30.738668,4.392546237891559,0.1111189778223424
30.741056,4.396367239645029,0.1107503040105469
30.743436,4.400560328450835,0.110411236739562
30.745836,4.401540611696725,0.1101470280851929
30.748224,4.401589729382836,0.1098968686183914
30.750604,4.405223739681202,0.1096066849683045
30.753004,4.411791016285764,0.109268869596531
30.755392,4.416635731397627,0.1089460602439646
30.757776,4.42269115132299,0.1085945315097885
30.760172,4.428886340875213,0.1082352173728853
30.76256,4.434010595240798,0.1078981126348913
30.764944,4.441788576658857,0.1075332205503158
30.76734,4.45506100363697,0.1070387788107072
30.769728,4.467774352107641,0.1065857139755049
30.772108,4.482629570951588,0.1060897140842985
30.774508,4.498555724982177,0.1055736422860431
30.776896,4.510989534199127,0.1051502017638134
30.779276,4.527427544908912,0.1046579418923308
30.781676,4.539302275618423,0.1042818760289929
30.784064,4.547033035208238,0.1039856796064967
30.786448,4.55741752185053,0.103664423914643
30.788847999999994,4.563378498119406,0.1034445814203937
30.791236,4.570829718455503,0.1031695178364361
30.79362,4.581353974724654,0.1028392084942024
30.796015999999995,4.591738461366945,0.1025207267103481
30.798407999999995,4.598118746516402,0.1022705195419835
30.800788,4.602217391665722,0.1020770441834301
30.803188,4.610971864613933,0.1018301561188165
30.805575999999995,4.60943629457634,0.1017678709453989
30.807956,4.606550250098389,0.1017486177173793
30.810356,4.607016780807212,0.1016538683516699
30.812743999999995,4.609764951516173,0.1015064957134613
30.815124,4.612233582971413,0.1013813187044801
30.817524,4.61954503368065,0.1011327018677376
30.819911999999995,4.623131822150772,0.1009263102921731
30.822292,4.623785344314699,0.1007610197247072
30.824692,4.6259291105458455,0.1005436664056708
30.827079999999995,4.622206344164601,0.1004084563608235
30.82946,4.619182425917658,0.1002206967080885
30.83186,4.619511082857492,0.0999596404453596
30.834247999999995,4.618117178304628,0.0997090029885224
30.836631999999994,4.619144683378761,0.0993945591623384
30.839028,4.619892649199175,0.0991015009084253
30.841415999999995,4.617707348713393,0.0988505404036759
30.843796,4.614311343414112,0.0986302811722959
30.846191999999995,4.61170673404775,0.0984089893253836
30.84858,4.610312829494886,0.0981567975267615
30.850964,4.601050291583215,0.0980186631334637
30.853359999999995,4.602869192590267,0.0977020515640636
30.855751999999995,4.604967632851039,0.0973646522095333
30.858132,4.603573728298176,0.0971117667448562
30.860527999999995,4.597756313371899,0.0969523863019473
30.862919999999995,4.590728193632121,0.0968240943628029
30.8653,4.581138894638487,0.0967666196404349
30.867695999999995,4.575134488257105,0.096679743919377
30.870088,4.57206334818192,0.0965529791879576
30.872468,4.569923373666512,0.0964166754297733
30.874868,4.573370392509774,0.0962217619472696
30.877256,4.577329268032235,0.0960480140450801
30.879639999999995,4.582079539487613,0.0958770099504369
30.88204,4.59255657392852,0.0956427622406721
30.884428,4.607037809862262,0.0953571055496201
30.886807999999995,4.623521146542419,0.0950466656766249
30.889204,4.642937749528773,0.0947022829497096
30.891592,4.666777862888542,0.0942777052873965
30.893972,4.695972652181503,0.0937672367804725
30.896372,4.725167441474462,0.0932626705167971
30.898756,4.759437367446896,0.0926825612934861
30.90114,4.791565423046053,0.0921517082280193
30.903535999999995,4.823553709018348,0.0916328077758852
30.905924,4.858615030923699,0.0910718113888543
30.908304,4.898099863202465,0.0904309932848969
30.9107,4.93865563066787,0.0897752607968115
30.913087999999995,4.97506742701358,0.0891764356000278
30.915472,5.010687827426371,0.0885839218977353
30.917868,5.049101724518498,0.0879797197352181
30.920255999999995,5.089657491983902,0.0873538159780228
30.92264,5.1307723379567465,0.0867016628584187
30.925036,5.174168823929728,0.0860136419124188
30.927423999999995,5.212629942850097,0.0853806077227781
30.929808,5.243641737292241,0.0848114201578404
30.932204,5.267576294308496,0.0843314544127858
30.934596,5.288577585018555,0.0838838872076474
30.936975999999994,5.304783278302863,0.0834797035018014
30.939372,5.315774065280838,0.0831472151697933
30.941759999999995,5.320758550019563,0.0828833717843951
30.944143999999994,5.323740934011871,0.0826417769699062
30.94654,5.32686308763104,0.0823928959685245
30.948927999999995,5.325469183078175,0.0821665390608009
30.951311999999994,5.327288084085227,0.0818969339460898
30.953708,5.326872566920384,0.0816117466428437
30.956095999999995,5.324454949009125,0.0813482905780303
30.958479999999994,5.3204545392320295,0.0810793670154643
30.96088,5.320877639828349,0.0807430482436246
30.963268,5.320509344491749,0.0804049476285945
30.965647999999995,5.31455405579648,0.080102113690001
30.968044,5.3024526952351,0.0798666425910589
30.970431999999995,5.287278298740667,0.0796639447494466
30.972815999999995,5.2699620318729545,0.0794884423875337
30.975216,5.256789736124936,0.0792653341375468
30.977604,5.246550706683114,0.0790163261317764
30.979983999999995,5.240595417987844,0.0787111995212391
30.982384,5.235059438173156,0.0783795304765487
30.984772,5.230454623918246,0.0780399074829621
30.987151999999995,5.225198183357279,0.0776855583841293
30.989548,5.222083613169588,0.0773021037028629
30.991935999999995,5.217246481489201,0.0769181350153497
30.994319999999995,5.211478184249034,0.0765401622819839
30.996716,5.212647354807897,0.0761013294048022
30.999104,5.208741388687288,0.075714696881413
31.001487999999995,5.204276344059238,0.075361360809666
31.003884,5.19901990349827,0.0750038079503969
31.006272,5.195625794056859,0.0746368019879104
31.008655999999995,5.189298418309252,0.0742920001731662
31.011052,5.178966841068813,0.0739808308070076
31.01344,5.170637364574789,0.0736504137491615
31.01582,5.164449758454044,0.073291128327773
31.01822,5.159333087519937,0.0729179500133156
31.020608,5.151702459160216,0.0725392854248269
31.022988,5.14034716856138,0.0721772338694098
31.025388,5.131133748335821,0.0717896308739158
31.027776,5.119918227363845,0.0714187135701621
31.030156,5.107352231951511,0.0710756549040268
31.032556,5.1000011428455085,0.0706777830780086
31.034944,5.099727291165397,0.0702188529725763
31.037324,5.100524374671922,0.0697492940205593
31.039724,5.105325659671282,0.0692468971811804
31.042112,5.107193678364447,0.0687623927277035
31.044492,5.101053294071942,0.0683415475837928
31.046888,5.094121513846521,0.0679121743140762
31.04928,5.087329503247959,0.0674727678397766
31.05166,5.07974609671648,0.0670260420270358
