Time,Force,Position
27.718136,1.8957613680922536,0.168752046368055
27.720532,1.9041399622723896,0.1686957602088005
27.72292,1.915079735706383,0.1683979205659286
27.7253,1.925367882834318,0.1680961817840829
27.727696,1.9372860436563328,0.1676065695540693
27.730084,1.9505546789187067,0.1669815804776356
27.732468,1.9679672853007744,0.1660399143189566
27.734872,1.9825863950035072,0.1652598688894281
27.737260000000003,1.99748504395996,0.164423297724595
27.739644,2.0180179081033267,0.1630985156355729
27.74204,2.0374798370600544,0.1618645883388026
27.744428000000003,2.055591291576423,0.1607771040309888
27.746812,2.0754253075854883,0.1595777952452094
27.749208,2.0975409635946907,0.1582091115742376
27.7516,2.116583583670838,0.1570643519100981
27.75398,2.13297247669451,0.1560585709005152
27.756376,2.149361369718182,0.1550874175578626
27.758764,2.16323630531624,0.15420751997074
27.761144,2.175109140167881,0.1534848711174824
27.763540000000003,2.181906838340049,0.1531060543271928
27.765928,2.1893561628182763,0.1527380501799079
27.768308,2.1978764224831413,0.1523030277708439
27.770704,2.2054655165882284,0.1519254335873952
27.773092,2.21598787699951,0.1514043058974978
27.775476,2.2262306981570714,0.1509433931548624
27.777872,2.23847562006105,0.1503934608585353
27.78026,2.250720541965028,0.1498522373208722
27.782644,2.266038499802062,0.1491485287301145
27.78504,2.2861520550648478,0.1482630096306286
27.787428,2.3069172366336907,0.1474232720751933
27.789812,2.33089522376245,0.1464304248458048
27.792216,2.3550129805180697,0.1454069827965818
27.794604,2.3823435428336044,0.1442291904808127
27.796984,2.407252695522142,0.1432261818380978
27.79938,2.4323016178375387,0.1421779158270029
27.801768,2.458141936085855,0.1411049441763494
27.863888,2.4984029974345847,0.1410766227271423
27.871052,2.489372776948391,0.1410392130683808
27.873444000000003,2.4917016387767714,0.1407930607928674
27.875824,2.4951014357917902,0.1404948506138364
27.87822,2.499572167993448,0.1401531514645421
27.880612,2.5081868713148,0.1396216092011969
27.882992,2.522528337621681,0.1388573093013072
27.885388000000003,2.536869803928562,0.1380673021966759
27.887776,2.5498607957950847,0.1373823517620222
27.89016,2.558987355795633,0.1368498301503608
27.892556000000003,2.5701160165426,0.1362255047360936
27.894944,2.581896303595624,0.1356239923449927
27.89734,2.58552841803612,0.1353971576197193
27.899736,2.589672389155814,0.1352021915058425
27.902124,2.5948872954621462,0.1349595396234066
27.904504,2.603035468074674,0.1346031995145536
27.9069,2.60624827363459,0.1344455775321633
27.909288,2.6093213095676453,0.1343089417993528
27.911672,2.611323410314061,0.1342250825417716
27.914068,2.6149083029263145,0.1341229354562256
27.916456,2.6175620299787887,0.1340508075616125
27.91884,2.626222059270514,0.1337319781895128
27.921236,2.6348820885622395,0.1334190854387866
27.923624,2.645124909719801,0.1330966979033388
27.930796,2.6540625824073776,0.1330618000860174
27.933176,2.662722611699103,0.1327734433712364
27.935572,2.671522410617689,0.1324651781408029
27.93796,2.684838267708306,0.1320321306081861
27.940344,2.695500397746448,0.1316632403573659
27.94274,2.704300196665033,0.1313549751269324
27.945128,2.7172439667033124,0.1308639700733636
27.947512,2.7304672759953124,0.1303403213232909
27.949908,2.7406175493542566,0.1299451433618301
27.952296,2.7498366571534225,0.129586189981674
27.95468,2.76506206719184,0.1290070862797068
27.957076,2.779216542043618,0.1284699163071355
27.959464,2.795792426522393,0.1278116911567628
27.961848,2.807572713575418,0.1273099671509464
27.964244,2.821075562121138,0.1267718456927587
27.966632,2.8337870147339403,0.1262599820602335
27.969016,2.8443565969734657,0.125836754353646
27.971412,2.8489198769737394,0.1256224519037075
27.9738,2.854042235481455,0.1253278104120859
27.97618,2.85916459398917,0.1250301806783048
27.97858,2.863076247683387,0.1247987165312097
27.980968,2.8645664917506064,0.1247002402809041
27.983348,2.8681986061911027,0.1245167057655361
27.985744,2.870247928765762,0.1243486361020769
27.988136,2.8769530791393145,0.124059389024409
27.990516,2.8827270639530878,0.123793276309527
27.992916,2.8920859413791136,0.1234547057058802
27.995304,2.900373883618502,0.12315999032536
27.997684,2.908382286604169,0.1228961271630733
28.014412,2.9185778859334874,0.1227368708921815
28.016804,2.9195090514932662,0.1227134726222456
28.019184,2.9256551233593773,0.1225012725530557
28.02158,2.9344549222779626,0.1222344825197471
28.05264,2.945627013137433,0.1222252537819937
28.055024,2.954985890563459,0.121898873354165
28.05742,2.96113196242957,0.1216944141256044
28.059808,2.9692801350420983,0.1214291811973466
28.117172,2.93623039317251,0.1212400191185475
28.119552,2.938604580971264,0.1212244596256315
28.121948,2.9449829702628523,0.1210892592165991
28.12434,2.959229992913247,0.1207346474403637
28.12672,2.9725458500038644,0.1204073386346944
28.12912,2.9849305415347027,0.1200993506832936
28.131508,2.9963840675057627,0.119818962505047
28.133892,3.0099794638501,0.1194644615907873
28.136292,3.026368356873772,0.1190383102715812
28.13868,3.043548645830363,0.1186159094650637
28.141064,3.0619396396004523,0.1181317194534483
28.14346,3.0815413381840404,0.1175960416782889
28.145848,3.100863497513908,0.117099046884748
28.148232,3.1183233257242184,0.1166364635786245
28.150628,3.1305682476281964,0.1163426235390041
28.15302,3.141742234345537,0.1160844550503833
28.1554,3.156268796249652,0.115697044318999
28.1578,3.1720060629672666,0.1152641980344626
28.160188,3.188022868938601,0.1147964065182652
28.162572,3.2026892004695777,0.114402217892322
28.164968,3.2145620353212183,0.1140776158117248
28.167356,3.22671440942658,0.1137259641185959
28.16974,3.2356539779720257,0.1134867310261044
28.17214,3.2368646827855243,0.1134362312292126
28.186476000000003,3.225692591926053,0.1134110362005979
28.188864,3.227602144873853,0.1132864727939062
28.191248,3.2255074963288197,0.1132648301453241
28.193648,3.223692387037506,0.1132126593145807
28.196036,3.224950313679248,0.1130753173754401
28.19842,3.227978023641929,0.1128237483359375
28.20082,3.2352894743511644,0.1124391018816869
28.203204,3.2395278891273445,0.1121423660708559
28.205584,3.2416244335302475,0.1119146289851833
28.207992,3.2429295820002326,0.1116890535511641
28.210376,3.2443745000970776,0.1114480865453643
28.21276,3.2427463822608678,0.1112904981594332
28.215156,3.2385570851708,0.1112466445474315
28.21754,3.2346473273344523,0.1111719847807287
28.21992,3.235393397296997,0.1110050059393666
28.22232,3.238793194312016,0.1107995984456323
28.224708,3.2361866890877846,0.1107496326029202
28.258144,3.189216685649765,0.110672894798455
28.260532,3.1897757641572047,0.1106115198595697
28.262912,3.191825086731866,0.1104701903202091
28.265308,3.192943243746747,0.1103466015115894
28.267696,3.1932700048287104,0.1102266745042694
28.270076,3.1926656003508955,0.1101251386522966
28.272476,3.201280303672247,0.1097806705523094
28.274864,3.2056112662470446,0.1095672383585122
28.277248,3.213015264754897,0.1092762689001228
28.279644,3.224842773636164,0.1088445676378719
28.282036,3.24388728957018,0.1082259399929138
28.284416,3.2577168991978644,0.1077412868358951
28.286812,3.2691250991985505,0.1073547884063942
28.2892,3.28411819181149,0.1069178916530544
28.291584,3.2920340469985403,0.1066519516350012
28.29398,3.30116060699909,0.106340765604657
28.296368,3.3184353396121664,0.1058226428405152
28.298752,3.334499367411744,0.1053531946428602
28.301148,3.351122473718763,0.1048261639209337
28.303536,3.369096054466141,0.1042536166514349
28.30592,3.393867333385687,0.1035518799328298
28.308316,3.412492540439122,0.1030105573576286
28.310704,3.433119848238974,0.1024327204452561
28.313088,3.4577513575316607,0.1017772690731723
28.315488,3.483453802010985,0.1011056033689502
28.317876,3.511298116863587,0.100394921109879
28.320256,3.53192542466344,0.0998593765212654
28.322656,3.555625768396348,0.0992610821475302
28.325044,3.5782551769426174,0.0986996632712399
28.327424,3.5987427151156104,0.0981967496164101
28.329828000000003,3.615086282168909,0.0977928603102326
28.332216,3.63692429478226,0.0972427631762963
28.334596,3.661043947395749,0.096633862237064
28.336992,3.685443139262957,0.0960106381274015
28.339384,3.720923770048889,0.0951810400026953
28.341764,3.754542069715265,0.0943788892164177
28.344164000000003,3.784156167888805,0.0936669617978788
28.346552,3.814329344569788,0.0929069208228149
28.348932,3.841289715690855,0.0922154840401601
28.351332,3.863174950132448,0.0916250395845712
28.35372,3.877471090468956,0.0911428912540943
28.356104,3.894420957857938,0.0906375585035192
28.358504,3.909508494127365,0.0901604765432904
28.360892,3.9193811240904575,0.0897894858003058
28.363272,3.926320487747356,0.089464982001567
28.365668,3.9279051754710617,0.0892551960775403
28.368056,3.935775704687738,0.0889246968303551
28.370436,3.941644133157997,0.088629467530234
28.372832,3.9457900001355606,0.0883429794451119
28.37522,3.9495637800607857,0.0880183946379486
28.377604,3.953617099239732,0.087670263616831
28.38,3.9567392528589,0.0873341223887758
28.382388,3.957067909798732,0.0870278600713591
28.384772,3.9524611996859536,0.0867915811963171
28.387168,3.9379837554679504,0.0866943969469203
28.389556,3.925368642369504,0.086578268195817
28.39194,3.910891198151501,0.086479690358564
28.394336,3.90013841617261,0.086343408544302
28.396724000000003,3.8935296053134154,0.0861362413479261
28.399108,3.890273369640995,0.0858556578709398
28.401504,3.8899504002747696,0.0855355192339261
28.403892000000003,3.88725324310979,0.0852055635495812
28.406272,3.8825539851983937,0.0849034034583713
28.408676,3.879065432100496,0.0845668164769511
28.411064,3.871432907882905,0.0842983896274659
28.413444,3.8643594621727546,0.0839791823490919
28.41584,3.850069009409855,0.0837848908737485
28.418228000000003,3.836849491833594,0.0835684969888896
28.420608,3.822139730190112,0.0834094006393099
28.423004,3.8116664874649433,0.0832404734004779
28.425392,3.800262079179996,0.0830790278868314
28.427772,3.787507196454688,0.0829614189454103
28.430176,3.775403940035439,0.0828585912552475
28.432564,3.769446755482301,0.0826550523930168
28.434944,3.770427038728192,0.0823553452541868
28.437348,3.771686861227803,0.0820338170844668
28.439732,3.774809014846971,0.0816943807190784
28.442112,3.769131369547553,0.0814647519759083
28.444508000000003,3.763174184994415,0.0812594202574829
28.446896,3.7577288571204743,0.0810822082624528
28.449276,3.752935155552592,0.0809208924489258
28.451672,3.7489328499176273,0.080762545627738
28.45406,3.745861709842441,0.0805954399073487
28.456444,3.747865706446727,0.0803567917091856
28.458844000000003,3.758157645290401,0.0799866771711166
28.461232,3.767238879320576,0.0796433811727587
28.463612,3.780743623724166,0.0792089664393373
28.466016,3.790244166634922,0.0788276096174363
28.468404,3.804307989545951,0.078344864301932
28.470784,3.810922487978755,0.0779234267238291
28.47318,3.8201907134640334,0.0774940930585575
28.475568,3.831600809322589,0.0770272501477051
28.477948,3.842079739621367,0.0765663865915807
28.480344,3.848135159546729,0.0761974746175627
28.482732,3.849906838725538,0.0759061959992089
28.485112,3.8523301442104056,0.0756342228851275
28.487508,3.856755550441689,0.0753393886564245
28.489896,3.8669077196585024,0.0749895813390949
