Time,Force,Position
4.950668,1.6404096792342566,0.1594757033738304
4.958716,1.6625878501384777,0.1594558912934498
4.970808,1.6952232841941015,0.1592680616840052
4.974836,1.7114074409709128,0.1588355771665996
4.978864,1.731069740347837,0.1582177578030631
4.9829,1.7533129654498614,0.1574905052542757
4.986928,1.7687220479271286,0.1572903441799228
4.990952,1.792538256979307,0.156539512336634
4.99498,1.8200540584314675,0.1555557925542229
4.999012,1.849364293633652,0.1545080876014306
5.003036,1.885619396360528,0.1529679635660702
5.007056,1.9180641817874864,0.1517388938172817
5.011088,1.9470308246143333,0.1506987696182955
5.015112,1.9780133509910736,0.1495231650474548
5.019144,2.0045097929927542,0.1486085128669699
5.023168,2.0321249016693166,0.1475969759254682
5.027196,2.0593964179705417,0.1465062730117206
5.031232,2.089581034696672,0.1452517746762511
5.035264,2.119987101222672,0.1440257344125522
5.039292,2.151511834423553,0.1427001849169534
5.043324,2.1763131498996127,0.1417769287133303
5.047364,2.201335915175542,0.1407899875994282
5.051392,2.2274773471263525,0.1397199523749996
5.135936,2.199350832796853,0.1394031221534933
5.13996,2.194399013470989,0.1393785556727978
5.143992,2.195273394994935,0.1390559430083887
5.148012,2.201973977368691,0.1384489527650461
5.15204,2.2101368187926678,0.1378338659123614
5.156067999999999,2.217070268641826,0.1373270047920103
5.1601,2.223892993591051,0.1368446765625884
5.164132,2.236320469590216,0.1361186539053166
5.168164,2.244494728689724,0.1356592461369805
5.172196,2.2499773371641973,0.1353009735914301
5.176224,2.258373046063576,0.1347979446508287
5.180252,2.273159997987971,0.1340337906020552
5.184276,2.2897413836623906,0.1332020313927562
5.188296,2.30956804446152,0.1321807259370342
5.192324,2.3342129643355136,0.1309489763318362
5.196348,2.3580713922344296,0.129723213115914
5.200372,2.383834978783304,0.1284183166647835
5.2044,2.405898972932196,0.1272886818495823
5.208424,2.42583635863126,0.1262933971974397
5.212464,2.443082093705289,0.1253973602333578
5.216492,2.460549278579187,0.1244744078501299
5.220524,2.478016463453085,0.1235664700115473
5.224552,2.4943649816521023,0.1227480129262939
5.22858,2.5049980239012437,0.122178335467172
5.232608,2.5148445741753083,0.1216119030467738
5.236636,2.527272050174474,0.1209946789961248
5.240664,2.537683642623745,0.1204648009317488
5.244688,2.5426012089230103,0.1201186965265813
5.248712,2.550431875647181,0.1196473370360736
5.252748,2.5591597592463637,0.1191456599673174
5.256772,2.5658717592956526,0.118739527211069
5.260796,2.571121500294724,0.118338518478891
5.264824,2.5773791830687403,0.1178985887721971
5.268848,2.582518199167876,0.1175346414663969
5.272884,2.582396056592408,0.1174272627019264
5.276912,2.582949681092083,0.117332711036639
5.28498,2.5822739140169406,0.1173199520638092
5.289008,2.5840683477669644,0.1172708375945647
5.301092,2.5883329823421533,0.1171857669733796
5.305116,2.5891194743172306,0.1171806734911301
5.30914,2.5946135004672364,0.117023902695193
5.313168,2.601901960367266,0.1168209248275419
5.317188,2.605712277667183,0.1166938099723795
5.321212,2.612435695392005,0.1164608074838653
5.32524,2.6228587055168098,0.1161145556990851
5.329264,2.635408324091442,0.1156799327939639
5.3333,2.6452662920410392,0.1153062719358456
5.337328,2.660053243965435,0.114756662109241
5.34136,2.672602862540068,0.1143261342944821
5.345388,2.687168364664594,0.1138366383637869
5.34942,2.699717983239226,0.1134290040102454
5.353444,2.7182045275636044,0.1128142966144704
5.357472,2.736801796787917,0.1121807757302365
5.3615,2.757414949562124,0.1114857922105563
5.365524,2.7846407951612173,0.1106118599966297
5.369548,2.8109694238853,0.1097716197788239
5.37358,2.8361793859344995,0.1089806357952624
5.377604,2.863294506633658,0.108143876115731
5.381624,2.892093336182905,0.1072826236026859
5.385651999999999,2.918089790207183,0.1065032294441131
5.389676,2.9337739590065905,0.1059940987429035
5.393716,2.951695461155761,0.1053962400237597
5.397743999999999,2.9704034552800085,0.1047943348883033
5.401776,2.9891114494042563,0.1042011121954326
5.405812,3.0068115017535573,0.1036468368880417
5.40984,3.0196932950279947,0.1032373977814509
5.413868,3.03918778112732,0.1026602406867179
5.417896,3.054871949926727,0.1021997246409392
5.421927999999999,3.072572002276028,0.1016733175950707
5.425956,3.081643478250548,0.1013783292268656
5.42998,3.0891419702749143,0.1010828604208578
5.434008,3.091146436149275,0.1009079162189883
5.438032,3.0926965847483645,0.1006863240148398
5.442056,3.090657865847405,0.100531789242877
5.44608,3.083235845696375,0.100472748707057
5.450108,3.078161883795042,0.1003050196416204
5.45414,3.080819281393479,0.0999482988230236
5.458168,3.0805635785670105,0.0996654717032704
5.4622,3.0797428335653354,0.0993534879478567
5.466232,3.0818351889885647,0.0989709042714907
5.470276,3.095137046511676,0.098355036530541
5.474304,3.105304353810012,0.0978498338745902
5.478304,3.114685169133271,0.0973426733355901
5.482268,3.123058042681584,0.0968663579073702
5.486292,3.137257117079707,0.0962657577275422
5.490324,3.1534720750277234,0.0956068688985929
5.494344,3.1637501072259946,0.0951039300921282
5.498308,3.175036081199212,0.0945775900883852
5.502336,3.18610060537256,0.0940832414266674
5.506304,3.201872663720837,0.0934837665502272
5.510332,3.220336372694149,0.0928440332085249
5.514384,3.2414917322924963,0.092163968003015
5.518352,3.263887901141193,0.091533267924857
5.522384,3.287181286864902,0.090889151483635
5.526412,3.3121583814386995,0.0902371410086633
5.53044,3.3338902008877875,0.0897092415364318
5.53446,3.344523243136929,0.0893789720919761
5.538484,3.359298777385792,0.0889360489120515
5.542511999999999,3.3730663698597083,0.0885194427798086
5.546536,3.384031586808654,0.0881551427988798
5.550556,3.3874868940577008,0.0879260979409081
5.55458,3.391163651106617,0.0876699958736428
5.558604,3.3968562917054266,0.0873652845798169
5.562632,3.4026596572041723,0.0870472026101065
5.566664,3.4001666210279406,0.086856680543772
5.570692,3.394539034626934,0.0867516925427327
5.57472,3.393164665125584,0.0865218710682451
5.578752,3.389774412074341,0.0863404864755204
5.58278,3.387048508422707,0.0860785953122176
5.58682,3.3855519963458893,0.0857668255205062
5.590844,3.3850634260440184,0.0854343598751346
5.594868,3.382669697092189,0.0851349265004375
5.598896,3.381394634815241,0.0848016362347648
5.602892,3.379222355663282,0.0844772796598259
5.606884,3.3751449178613635,0.0841853396864805
5.610848,3.363668295259481,0.0839960181967199
5.61482,3.354551148582829,0.0838158277438633
5.618804,3.340615742831314,0.0837267860113481
5.622804,3.3332930299046857,0.0835251194775621
5.6268,3.325073100103046,0.0833318894225744
5.630792,3.32189287917614,0.0830206297916436
5.634755999999999,3.3146808911494463,0.0828014106247705
5.63872,3.305120844873056,0.0826706023647426
5.642664,3.2964580154716767,0.0825292967604916
5.646608,3.288138778445634,0.0824469622433013
5.65058,3.286764408944285,0.0822107273183141
5.654548,3.28505786474313,0.082017839456243
5.658572,3.2825648285668985,0.0818195304043238
5.662596,3.2787316759159157,0.0816854259818445
5.66662,3.2755742903400757,0.0815694508617965
5.670584,3.2686065874643173,0.0815164437182989
5.674548,3.2636547681384527,0.0814180692167839
5.678572,3.255114081312541,0.0813549641035303
5.682536,3.2493757700116,0.0812512728973893
5.686508,3.2457640671604877,0.0810897785157458
5.690475999999999,3.2543698081842027,0.0807463339160979
5.694491999999999,3.2699204167326097,0.0802670480210286
5.698468,3.286257517256094,0.0797881483246758
5.702428,3.294076766304732,0.0794464058313422
5.7064,3.304587665978405,0.0790793641418809
5.71036,3.312750507402381,0.0787986258745487
5.714332,3.330549866976084,0.0783617829791097
5.718356,3.350586559899549,0.0778561959049899
5.722392,3.3669236604230326,0.0773936486805112
5.726424,3.38549809429628,0.0768564587046144
5.730452,3.402953861494645,0.0763712463322886
5.734488,3.418836644742857,0.0758819090088342
5.738464,3.4353951950662105,0.0754059660520089
5.742444,3.449937861839671,0.0749682965160581
5.746468,3.4606702113132144,0.0745874303398486
5.750492,3.474426386111598,0.0741449599262327
5.754524,3.4882932858099163,0.0736958096207086
5.758548,3.50485183613327,0.0732244747068325
5.762572,3.520623894481547,0.0727559692463928
5.766568,3.534269344379996,0.0723419038081366
5.770568,3.545112418753474,0.0719721345820904
5.774536,3.5502400171770763,0.0716832346853942
5.778568,3.5573834991505726,0.0713581235553526
5.782608,3.5693452401989325,0.0709659859153827
5.786595999999999,3.5823149230222384,0.0705609088772058
5.790624,3.594719563670337,0.0701244002228839
5.794652,3.6016301781684312,0.0697441009909054
5.798676,3.609548734441472,0.0693515337747677
5.8027,3.624190708439333,0.0688786699540829
5.806732,3.6389434073371314,0.0683958631201026
5.810756,3.647304863209911,0.0679599635482673
5.81478,3.651745276882839,0.0675757840992513
5.818808,3.6632412829803935,0.0670834550839895
5.82286,3.678547606377865,0.0665489004012419
5.826856,3.6970992049000464,0.0659421642073309
5.830912,3.715540078522293,0.0653542595348492
5.83496,3.734656719219682,0.064792894892731
5.83896,3.756907910141845,0.0641860675382337
5.84296,3.7779297094891926,0.0636212753942022
5.84688,3.799959450611486,0.0630404388554214
5.8509,3.818178874433863,0.062499430538093
5.854944,3.835501081381228,0.0619592938723653
5.858976,3.851028854578569,0.0614293648546241
5.863,3.8644300193260825,0.0609450260115424
5.867024,3.87513953344856,0.0604744787631478
5.871048,3.8887621479959424,0.05997570929861
5.87502,3.8975665034684615,0.0595221719606247
5.879055999999999,3.902671266540999,0.0590942216937946
5.883084,3.90228200346353,0.0586985427720125
5.88714,3.9067109994609246,0.0582623430099878
5.891108,3.917641963383272,0.0577863737320288
5.895163999999999,3.934066953455625,0.0572819441820674
5.899164,3.942760584028209,0.0568597645838366
5.903188,3.947189580025604,0.0564275221154405
5.907179999999999,3.952626517797946,0.0559878477508381
5.911228,3.9552610800453176,0.0555643231268157
5.915216,3.953298833017695,0.0551599999017772
5.91908,3.9427080096152913,0.0548239602017755
5.923112000000001,3.928639043612775,0.0544808010448142
5.927143999999999,3.917704627835034,0.0540908042662441
5.931171999999999,3.9099047622820686,0.0536521794541874
5.935204,3.9030021136041135,0.0532090108754459
5.939236,3.89609946492616,0.0527635781113065
5.943264,3.888521049173064,0.0522967250964787
