Time,Force,Position
6.693103999999998,3.920018286385518,0.1475739012134267
6.697199999999995,3.9461825536873945,0.1471373679139748
6.701295999999999,3.973686937464022,0.1466272109431449
6.705391999999996,3.993005644465609,0.1463531730986423
6.709483999999996,4.0100756004418985,0.146101423849787
6.71358,4.023556688918142,0.1459394590376276
6.717611999999996,4.038267168969201,0.1457214650293491
6.721699999999999,4.050728897994964,0.1455197433365192
6.725788000000001,4.062736309745455,0.145288641820243
6.729880000000001,4.077423954445449,0.1449161157221819
6.733967999999997,4.096364816045099,0.1443808961008644
6.738059999999997,4.115194952744815,0.1438547101728767
6.742151999999997,4.131665613519299,0.1433596202164748
6.746248000000001,4.149144216068731,0.1428362801612342
6.750343999999998,4.164717659968204,0.142373622620425
6.754439999999995,4.1823069874175705,0.1418438783475986
6.758531999999995,4.2047145739418,0.141175508419613
6.762619999999998,4.227797927541172,0.140512148710239
6.766703999999997,4.247070963840626,0.1399655872061002
6.770795999999997,4.263541624615111,0.1394962403383903
6.774879999999996,4.276767010264886,0.139148758419136
6.778976,4.29145465496488,0.1388014139584117
6.783068,4.305245082789861,0.1384774830217018
6.787155999999996,4.320719219464933,0.1381264228308287
6.791243999999999,4.332948081015294,0.1378913770551384
6.795335999999999,4.347757868290755,0.1376108946704943
6.799423999999995,4.360441047116389,0.1374072628263391
6.803511999999998,4.3764916436422,0.1371566791497602
6.807603999999998,4.395233890793046,0.1368551242556672
6.811687999999997,4.415438396994111,0.1365619269592723
6.815779999999997,4.432508352970402,0.1363686404229789
6.819876000000001,4.451029150321378,0.1361009106137421
6.823963999999997,4.4693284978724845,0.1358560318352391
6.828055999999997,4.487849295223461,0.1355944256377342
6.832152000000001,4.505694325499296,0.1353290169589135
6.836244000000001,4.523650080675066,0.1350553224172128
6.840339999999998,4.536222534600763,0.1348862982411932
6.844435999999995,4.55114304677616,0.1346314508109309
6.848527999999995,4.565952834051621,0.1343872755255295
6.852623999999999,4.583897171551857,0.1340526403128577
6.856711999999995,4.602960175726976,0.1336766510509639
6.860803999999995,4.624149788351922,0.133243962673075
6.864899999999999,4.647576734326631,0.1327444085446667
6.868991999999999,4.669430696351187,0.132255656727757
6.873092,4.695427150375464,0.1316473434284608
6.877187999999997,4.717945461799628,0.1310925574285592
6.881284000000001,4.742701106573557,0.1304675669373543
6.885376000000001,4.763867883847437,0.1299140294827207
6.889427999999995,4.779540634971312,0.1294663594951905
6.893515999999998,4.788035651095092,0.1291444693227808
6.897599999999997,4.798092233493493,0.1287421106746718
6.901688,4.808259540791829,0.1283329620804586
6.90578,4.823688006764768,0.1277820873339887
6.909811999999995,4.832614504812756,0.1273554631226127
6.913896000000001,4.841651727760677,0.1269192554091121
6.917988000000001,4.848108024983498,0.1265178598360888
6.922075999999997,4.86297144878123,0.1259552211264093
6.926164,4.8742460050789145,0.1254569510888597
6.930195999999995,4.88405830232638,0.1249549182300565
6.934287999999995,4.885352748099,0.1246249376295787
6.938316,4.8879873103463725,0.124239920187909
6.942304,4.882436195818702,0.1239967608641003
6.946339999999999,4.874869197741139,0.1238034507881711
6.950384,4.867523649463445,0.1235888537483395
6.954467999999999,4.857597175460651,0.1234061142804894
6.958492,4.8487893681327385,0.1231880572447609
6.962483999999996,4.836171243504908,0.1230466749763724
6.966527999999997,4.822090859826859,0.1229023129005464
6.970571999999997,4.81103430147365,0.1226836108920778
6.974607999999996,4.804009510220228,0.1223644465266928
6.978643999999996,4.797095443866742,0.1220343368851189
6.982679999999995,4.789284160638244,0.1217182694775733
6.986719999999998,4.771725634360082,0.121613568472939
6.990772,4.762906409356636,0.1213202647072551
6.994816,4.754087184353191,0.121026472727536
6.998903999999996,4.750872710399685,0.1206308409908319
7.0029559999999975,4.740148326746281,0.1203741132058972
7.006943999999997,4.7320048688179766,0.1200875708197154
7.011027999999996,4.7256558446396975,0.1197738102688208
7.015031999999998,4.730062005286027,0.1192354010256962
7.019115999999997,4.733570949057344,0.1187126313876548
7.023195999999999,4.745708469203442,0.1180253863282781
7.0272839999999945,4.753359904974481,0.1173990514997344
7.031376000000002,4.765718874920449,0.1166967259844167
7.035404,4.779085786641364,0.1159732950794278
7.0394799999999975,4.797492407237012,0.1151487794925781
7.043563999999996,4.8179149113825535,0.1142784301806211
7.047640000000001,4.841250515953,0.1133548528856194
7.051724,4.865372612498524,0.1124348223555731
7.055755999999995,4.891067692994201,0.1115194875669324
7.059832,4.915533381915061,0.1106464941609566
7.063915999999999,4.939888345935986,0.1097866599274028
7.067951999999998,4.96805362725683,0.1088466486455974
7.072043999999998,4.989274041052981,0.1080543970947366
7.076127999999997,5.012621063298961,0.107218134096115
7.080216,5.028568900744976,0.1064952952088197
7.084308,5.045746129765808,0.1057292724010136
7.088395999999996,5.058547999311515,0.1050101872044148
7.092483999999999,5.072468535532105,0.1042647760086136
7.096571999999995,5.080562870902884,0.1036324189702177
7.100663999999995,5.0905623649236205,0.1029750914224256
7.104755999999995,5.093838441219535,0.1024307107436407
7.108851999999999,5.099806168140486,0.1018510474104191
7.112947999999996,5.09725604358659,0.1014011991202587
7.117044,5.097397569657729,0.1009243478729944
7.121136,5.0923886619542005,0.1005550315182819
7.125231999999997,5.0883876960256185,0.1001674527839351
7.129328000000001,5.084165280297167,0.0997996055460911
7.133364,5.078480605518497,0.0994224877538504
7.137447999999999,5.069317788139713,0.0990722203558576
7.141475999999997,5.063510970785575,0.0986404764892233
7.145567999999997,5.057139111256229,0.0981894592437252
7.149656,5.054012526851593,0.0976679137541414
7.153743999999996,5.05312327579672,0.0970893665295778
7.157831999999999,5.047415765666984,0.0965807128689676
7.161871999999995,5.045518572837164,0.0960162936064008
7.165963999999995,5.043399930207475,0.0954687979081019
7.170059999999999,5.042067779552864,0.0949176402668623
7.174155999999996,5.039949136923176,0.0943675335804336
7.1782520000000005,5.0397356529434445,0.0937922981529672
7.1823440000000005,5.034482460088981,0.0933034498929039
7.1864360000000005,5.034158251209316,0.0927369018418671
7.1905319999999975,5.034055492129519,0.0921507623565125
7.194628000000002,5.038660267224652,0.0915007501967006
7.198723999999999,5.03777101616978,0.0909095705169442
7.202819999999996,5.037324664714647,0.0902801597442491
7.206916,5.0378862550344605,0.0896384589181534
7.211008,5.03385103607928,0.0890416047309973
7.215108000000001,5.0304915841992415,0.0884549179449924
7.219200000000001,5.031053174519056,0.0878119327158304
7.223299999999995,5.02836948971416,0.0872383473410206
7.227395999999999,5.025464355109393,0.0866815095893422
7.231491999999996,5.019646120079722,0.08616505493429
7.235583999999996,5.016408810775151,0.0856381387758467
7.239683999999997,5.016981818770497,0.0850649705667532
7.243775999999997,5.019349260515868,0.0844818202469515
7.247875999999998,5.0247405275860775,0.0838550930130708
7.251967999999998,5.034052836856139,0.0831782149848116
7.256067999999999,5.041349262576308,0.0825313194096066
7.260159999999999,5.044724646096625,0.0819345328682593
7.26426,5.051456029641586,0.0812639511921388
7.268355999999997,5.054942138061838,0.0806586055399609
7.272452000000001,5.0621278388820725,0.0800252054589658
7.276547999999998,5.070321481477253,0.0793804126133634
7.280583999999997,5.08400915022244,0.0786953656832206
7.284627999999998,5.102182903342684,0.0779911209733952
7.28866,5.114641180513055,0.0773449700820499
7.292752,5.132704208733365,0.0766496278474606
7.296783999999995,5.149759295178729,0.0759689888801
7.300812,5.162782614524307,0.075346422654025
7.304835999999994,5.176138108569688,0.0746980863551344
7.30892,5.190280094590146,0.0740539981521577
7.312956,5.206327239260562,0.0733951665086776
7.316983999999998,5.220690675080891,0.0727424979478762
7.321016,5.2323624602761845,0.0721050986040134
7.325099999999999,5.240334653071495,0.0714959813060494
7.329183999999998,5.244496528566889,0.0709227650007216
7.333267999999997,5.247650462287335,0.0703666940976629
7.337351999999996,5.2525988297578055,0.0698017018674019
7.341435999999994,5.263373398078087,0.0691810582439936
7.345515999999996,5.274602283673641,0.0685934031761945
7.349603999999999,5.282353026669081,0.0680069589149756
7.353691999999995,5.287301394139552,0.0674451176960962
7.357783999999995,5.290455327859998,0.0668918510582866
7.361875999999995,5.288901727405517,0.0663739472425861
7.365963999999998,5.2788302754761895,0.0659181804808799
7.369996,5.274474299496737,0.0654166284994878
7.374040000000001,5.269442556442144,0.064904656202752
7.378079999999997,5.264742988087354,0.0643667271498222
7.38212,5.26295652015747,0.0638032132150985
7.386159999999997,5.261735094402793,0.0632610267360065
7.390208000000001,5.262640277097944,0.0626917010406201
7.394247999999997,5.26041090956832,0.0621623409074394
7.398288000000001,5.257284325163683,0.0616351932919889
7.402324,5.260548983784065,0.0610868234312995
7.406355999999995,5.265497351254536,0.0605407974126329
7.410387999999997,5.270445718725006,0.0599921141455287
7.414415999999996,5.272480985770572,0.0594662195373175
7.418455999999999,5.27631068656616,0.0589388250591482
7.422435999999998,5.274424911411874,0.0584483088728517
7.426463999999996,5.269847485632552,0.05796297573022
7.430499999999995,5.272669244653194,0.0574455492548802
7.434528,5.272467178348997,0.0569556111356366
7.438572000000001,5.271932937344994,0.0564885496239923
7.442608,5.27240663811594,0.0560098260160493
7.446643999999999,5.278595814836759,0.0554942380630607
7.450679999999998,5.280642499557858,0.0550263018987223
7.454723999999999,5.281238342904269,0.0546016771942481
7.4587080000000014,5.2832964453009,0.0541990260851152
7.462696000000001,5.284235881022649,0.0538149743505988
7.466723999999999,5.285175316744399,0.0534313028369428
7.4707560000000015,5.282193710266298,0.0530765514551727
7.474787999999997,5.279212103788195,0.0527194524844263
7.478819999999999,5.276009047510223,0.0523772919633513
7.482852000000001,5.264288139757405,0.0520760160675134
7.486879999999999,5.249875581379552,0.0517754015300818
7.490963999999998,5.237036006951852,0.0514875189344107
