Time,Force,Position
7.0952119999999965,5.763310189943556,0.1454132604825953
7.0993039999999965,5.818574660323278,0.1448677054585616
7.103339999999996,5.861033809301901,0.1444631562225134
7.107379999999999,5.903458705253923,0.143894707618788
7.111467999999995,5.938007263779647,0.1433405258820403
7.115551999999994,5.963671543104118,0.1428220975000712
7.119639999999997,5.9800086436276025,0.1423769759139117
7.123728,5.994085575450256,0.1418899791400572
7.127815999999996,6.007253872722368,0.1413690780919891
7.131895999999998,6.017619794469508,0.1409040541720526
7.135979999999996,6.028440033491919,0.1404608988055497
7.140007999999995,6.040833256464486,0.1400109649846512
7.144039999999997,6.058056156187448,0.1395214324109691
7.148123999999996,6.074503981610866,0.1390889530531974
7.152211999999999,6.0920818913847,0.138682450890851
7.156247999999998,6.1095490762586,0.1382865799034598
7.160275999999996,6.126451218957291,0.1378808007922048
7.164303999999994,6.146598636780691,0.1373952677549282
7.168343999999998,6.16651318712869,0.1368732834779709
7.172439999999995,6.181376610926423,0.1364100906797731
7.176468,6.194999225473806,0.1359333076221969
7.180507999999996,6.207835348046111,0.135464386721503
7.184539999999998,6.224703237718204,0.1349139390694152
7.188575999999998,6.2355234767406165,0.134491861214481
7.1926639999999935,6.251837741913034,0.1339919870456129
7.1967519999999965,6.272748816360446,0.1334256435129561
7.200787999999996,6.290414615683149,0.132932123448497
7.204827999999999,6.30718319813084,0.1324538616916403
7.208867999999995,6.323951780578531,0.1319819846081208
7.212955999999998,6.3422819293008414,0.1314553164130881
7.216991999999998,6.360833527823022,0.1309156445085656
7.221024,6.378487909470192,0.1303928074294355
7.225055999999995,6.395466524042219,0.1298702004103582
7.229084,6.416476905714035,0.129271910229182
7.233115999999995,6.436025028335629,0.1286748154164156
7.237151999999995,6.453667992307265,0.1281075744896301
7.24118,6.469848697228683,0.1275401801795503
7.245207999999998,6.480756825799965,0.1270329299190544
7.249243999999997,6.493447970445738,0.1264562385513464
7.2532719999999955,6.505463348016368,0.1258735368314567
7.257311999999999,6.517921625186738,0.1252618358853472
7.261343999999994,6.528917643306889,0.124650039260971
7.265375999999996,6.53621406902706,0.1240922660553079
7.269416,6.547542261847015,0.123461141226603
7.27346,6.552479211641953,0.122916483262296
7.277491999999995,6.553716569036908,0.1224237526448125
7.281527999999994,6.561898793956556,0.1218124600307881
7.285567999999998,6.574002061076056,0.1211434928693119
7.289595999999996,6.582516460695508,0.1205169173121125
7.293623999999994,6.586212601240096,0.1199636303415103
7.297655999999996,6.5914703080593045,0.1193597919954955
7.301691999999996,6.592463380303325,0.1187885770602984
7.305771999999997,6.590310484647038,0.1182259538753682
7.309799999999996,6.584679446390638,0.1176949340191283
7.313827999999994,6.579159133034172,0.1171554558327087
7.317912,6.576662645002547,0.1165648573899184
7.321987999999997,6.578209341746242,0.1159582123359675
7.326027999999994,6.585704381915214,0.1153083354562021
7.330115999999997,6.58996556463501,0.1147738887821071
7.334143999999995,6.598712831729865,0.1141956256287912
7.338183999999998,6.606906474325045,0.1136552375401418
7.342219999999997,6.617791767545261,0.1130902739343259
7.346252,6.629795727440358,0.112502221486137
7.350291999999996,6.640226703385302,0.1119209783132931
7.354323999999998,6.653460054855215,0.1113068867488926
7.3583559999999935,6.669495781850101,0.1106624020751356
7.362387999999996,6.681610466645132,0.1100775001912527
7.366423999999995,6.682748516815686,0.1096559094868556
7.370511999999998,6.687253984686418,0.1092153321819804
7.374539999999996,6.692324494732357,0.1087849795479983
7.378627999999999,6.691125904328745,0.1084630420058675
7.382707999999994,6.693184006725376,0.1081274467061753
7.386792,6.698166627222445,0.107801180079787
7.390875999999999,6.703271390294982,0.1075161643149711
7.394915999999995,6.706925311992832,0.1072753110340757
7.399003999999998,6.712041492740901,0.1070415503641118
7.403087999999997,6.715584689538817,0.1068118761610472
7.407176,6.71564974373662,0.1066084606863954
7.411259999999999,6.716379147334032,0.1063615042214692
7.415351999999999,6.710495858106557,0.1061925494183928
7.419435999999997,6.704047526703875,0.1060098231795197
7.423524,6.691994444251252,0.1058890394673703
7.427611999999996,6.679830636898696,0.1057746436645555
7.439819999999997,6.624753363292244,0.1057275007542249
7.443899999999999,6.608114889240161,0.1056983654191729
7.447991999999999,6.605255425337527,0.1054831157845459
7.452067999999997,6.59869636903491,0.1053055605141147
7.456143999999995,6.596279804732014,0.105062048822273
7.460227999999994,6.5975628328291,0.1047795605974397
7.4643039999999985,6.598845860926188,0.1044973151516596
7.468391999999994,6.598334455273251,0.1042303982624198
7.472479999999997,6.600392557669883,0.1038987815448941
7.476568,6.604355818716472,0.1035439732847174
7.480655999999996,6.604951662062884,0.1032066497038984
7.484739999999995,6.600729246334433,0.1029270515735655
7.488827999999998,6.594601671956024,0.1026683144314604
7.492915999999994,6.592173689977597,0.1023732567809262
7.497003999999997,6.594453242174097,0.10202579615617
7.501083999999999,6.5993137200957,0.1016644811420253
7.505171999999995,6.6107868908421885,0.1012311080931702
7.509263999999995,6.622149336688742,0.1008057838244973
7.513351999999998,6.638219316710225,0.1003302298156117
7.5174359999999965,6.658431788731428,0.0997918169896491
7.521527999999996,6.681668086077472,0.0992140038819813
7.525619999999996,6.698734590198368,0.0986821875284577
7.529715999999993,6.703694375344373,0.0982707039524722
7.533807999999993,6.708089118315168,0.0978426251848115
7.537903999999997,6.709681485760995,0.097443435375632
7.541995999999997,6.71451912833153,0.0969919522666973
7.546091999999994,6.719467495802002,0.0965341695502635
7.550187999999999,6.728447630372258,0.0960249849181265
7.554288,6.7364198231675685,0.095531365851135
7.558387999999994,6.748645232862536,0.0949761917499943
7.562483999999998,6.758854759007609,0.0944450494560479
7.566571999999994,6.776574194852583,0.0938448007035041
7.570667999999998,6.799787656847562,0.0932020912884279
7.574763999999995,6.8203094682175065,0.0925833661934996
7.578859999999999,6.843744380012355,0.0919408927909806
7.582955999999996,6.864376916282233,0.091325273554294
7.587052,6.882096352127207,0.0907452856596065
7.591147999999997,6.899140020897038,0.0901583687817582
7.595243999999994,6.916294414566805,0.0895702276949809
7.599339999999998,6.931432924686677,0.089009808170476
7.603435999999995,6.9418639006316205,0.0884901961915511
7.607531999999999,6.95476507740173,0.0879669230093923
7.611627999999996,6.974843989171933,0.0873991893427888
7.615724,7.002211360842166,0.0867873116816569
7.619823999999994,7.032270383137435,0.0861637469898325
7.623919999999998,7.059416305007798,0.085575011030145
7.628015999999995,7.088578110428057,0.0849681453584828
7.632107999999995,7.114826815423408,0.0843942954284769
7.636203999999999,7.142980679068717,0.0838093697349161
7.640299999999996,7.168110717389188,0.083265271281828
7.644396,7.198624056959731,0.0826952122941481
7.648491999999997,7.223643370380264,0.0821623499732037
7.652587999999994,7.24888413360067,0.0816243284451845
7.6566839999999985,7.274124896821075,0.0810886733104393
7.660771999999994,7.296452559616575,0.0805839283038595
7.6648679999999985,7.320796105961969,0.0800604164833881
7.668899999999994,7.344242435432349,0.0795418506751247
7.672987999999997,7.368585981777741,0.0790207271334903
7.677023999999996,7.392253761047993,0.0784964529864586
7.68112,7.416032265218179,0.077968049545271
7.685215999999997,7.444296853763425,0.0774216119192192
7.689256,7.471553500533723,0.0768857203746055
7.693348,7.498245105128816,0.0763405676642477
7.697443999999997,7.519331958673966,0.0758341119116144
7.701539999999994,7.539632320244039,0.0753294875938577
7.705631999999994,7.558924740039167,0.0748351097719288
7.709727999999998,7.574406842534376,0.0743676466826893
7.713819999999998,7.591229061504338,0.0738760180475004
7.717907999999994,7.605359629849264,0.0733965810156034
7.722003999999998,7.616577097769285,0.0729386345002114
7.726099999999995,7.626553756438955,0.0724615507453359
7.730187999999998,7.641570123983361,0.0719431361757564
7.734283999999995,7.650981740477825,0.0714550559409804
7.738375999999995,7.658488198322329,0.0709781856556311
7.742471999999999,7.66352445534167,0.0704986286295988
7.746507999999999,7.665869061735974,0.0700275590748979
7.750591999999997,7.669221609905225,0.0695481100154967
7.754627999999997,7.672574158074477,0.0690694198986536
7.758655999999995,7.671894939143941,0.06862354653634
7.762691999999994,7.6713264451133405,0.0681725110004864
7.766723999999996,7.666161141807744,0.0677393927213425
7.770755999999999,7.664916880702001,0.0672807032443692
7.774795999999995,7.661435286246496,0.0668498531120313
7.778824,7.657953691790988,0.0664182321882857
7.782851999999998,7.652124039085784,0.0660196782624761
7.786887999999998,7.647080878355656,0.0656241270999417
7.790923999999997,7.647531743775536,0.0652106740416975
7.794951999999995,7.641713508745865,0.0648540093998491
7.798995999999995,7.6364603158914015,0.064511778689216
7.803031999999995,7.633223006586831,0.0641533033301683
7.807063999999997,7.625953930182473,0.0638250971069772
7.811059999999998,7.612305028428632,0.063559587970374
7.8150559999999984,7.599442618649867,0.0632960385976053
7.819091999999998,7.593192901695991,0.0630024871053995
7.8230879999999985,7.587397502017385,0.0627285627489626
7.827079999999995,7.58418302806388,0.0624543766407188
7.831128,7.579739162535557,0.0621986645661061
7.835124,7.5751845721073,0.0619486000448016
7.839051999999995,7.574218849179092,0.0616909463409388
7.843035999999998,7.571015792901119,0.0614588327914655
7.846959999999996,7.570836561947988,0.0612040063169221
7.850943999999998,7.56494185504498,0.0609761463000401
7.854996,7.558039206367026,0.0607547499863374
7.859043999999997,7.551025832789136,0.0605384074126034
7.863091999999995,7.544344633911051,0.0603045466400442
7.867139999999999,7.537774159932903,0.0600649590126868
7.8711879999999965,7.527393368654835,0.0598435746374622
7.875231999999997,7.524743936876538,0.0595816104572132
7.879279999999994,7.519967896648414,0.0593389157177147
7.883327999999999,7.514859681720481,0.0591130902505181
7.887371999999999,7.513905376467807,0.0588966961823609
7.891411999999995,7.5149669547650255,0.0586650679788584
7.895455999999996,7.516704300137384,0.0584425785466333
7.899487999999998,7.511275328185182,0.0582760737897837
7.903483999999999,7.504838414458032,0.0581160546132699
7.907519999999998,7.499077267806025,0.0579663728355784
7.911507999999998,7.495221279803977,0.0578082974203853
7.915559999999999,7.491033117102124,0.0576670793143268
7.919604,7.484829070850377,0.0575397148320275
7.923635999999995,7.478403574798761,0.0574230820256222
7.927671999999994,7.475013321747517,0.057329744399929
7.931703999999996,7.475998428171398,0.0572355534460877
7.935735999999999,7.479675185220315,0.0571375230663233
7.93976,7.488059476444159,0.0570228957960876
7.943787999999998,7.498016751618158,0.0569173869000995
7.94782,7.505958143242265,0.0568254513862441
7.951847999999998,7.515804693516329,0.0567263106592322
7.955871999999999,7.525319069090588,0.056644944889353
7.959911999999996,7.539762428639647,0.0565365272150698
7.963947999999995,7.55431651308864,0.0564229627507074
7.967979999999997,7.567297613587479,0.0563010045563468
7.972015999999996,7.582183872736277,0.0561718925333545
7.976047999999999,7.603793549609897,0.0560155728066238
7.980135999999995,7.629656443383173,0.0558230879054642
7.984227999999994,7.662242754881271,0.0556039837389849
7.988319999999994,7.694264024204164,0.0553717396168353
7.992363999999995,7.726396018426991,0.0551359938027785
7.996403999999998,7.761773287774527,0.0548731739922311
8.000499999999995,7.800395832246774,0.0545829652078735
8.004596,7.843271593618675,0.0542587973686682
8.008691999999996,7.882214895115193,0.0539147091452961
8.012723999999999,7.917569329111664,0.0535741782044108
8.016763999999995,7.955161096457897,0.0532145335595642
8.020795999999997,7.987148112754189,0.0528719644478697
8.024828,8.018570086875275,0.0525159988083351
8.028855999999998,8.052007944546254,0.0521485277759562
8.032888,8.077935892517335,0.0518005375268685
8.036927999999996,8.098701989038215,0.051446213077702
8.040963999999995,8.113863334509151,0.0511062365000217
8.044991999999993,8.128238188005016,0.050761848411511
8.049019999999999,8.141826549525799,0.0504129939458559
8.053055999999998,8.14891294312163,0.0500760472522588
