Time,Force,Position
17.07258,6.889931079723493,0.146009294570606
17.076672,6.965457144681948,0.1455809597443877
17.080756,7.03017093643813,0.1451329480026691
17.084852,7.083629555392299,0.1446888405223616
17.088948,7.12594372644439,0.1442422537353972
17.093032,7.1600265500193085,0.1437373418097059
17.097172,7.181403359417527,0.1432769705320451
17.101308,7.186828879514339,0.1429262362486136
17.105344,7.183713712785235,0.1426226300141973
17.109372,7.183954546080777,0.1422410653577513
17.113412,7.186665580201484,0.1418377961617973
17.117504,7.194095566172651,0.1414027857960833
17.121608,7.202888503969637,0.1410166306988544
17.1257,7.2248075201919955,0.1404702641211463
17.129796,7.249429604714923,0.139936554823313
17.133892,7.2760789904632786,0.1394136972605067
17.13798,7.294997016711862,0.1390211334873716
17.142072,7.310425482684803,0.1386259962702374
17.146172,7.321356446607149,0.1382457502233221
17.150268,7.324201040978856,0.1379238269140653
17.15436,7.318062048924913,0.1376718090869504
17.158456,7.311346597020232,0.1373650165171722
17.162548,7.301374452315305,0.1370820041012234
17.16664,7.28994004856016,0.1367998078422006
17.170676,7.273798110630086,0.1365860726794233
17.174768,7.25844266467509,0.1363671473224839
17.178804,7.247794752895019,0.1360791383632857
17.182892,7.247237676539951,0.1356563222188162
17.18698,7.251388134359813,0.1351670293676883
17.191068,7.254641375304662,0.1346901416385282
17.19516,7.2569973993745,0.1342239964217109
17.199248,7.262709423468983,0.1336864776243836
17.203336,7.270093738738021,0.1330901839334107
17.207432,7.271640435481714,0.1325421315945932
17.211524,7.2711598309999825,0.1319849156555839
17.21562,7.270557083942782,0.1313928098624481
17.219712,7.274318278685172,0.1307087509428513
17.223804,7.277858023627693,0.1300382218539583
17.2279,7.285097360970196,0.1293232670676617
17.231996,7.299060116037521,0.1285116376840986
17.236088,7.318406172354916,0.127642408810566
17.240184,7.3358470700223535,0.1268013742890162
17.24428,7.352722925514583,0.1259495989323676
17.248372,7.369144463731542,0.1250798889379565
17.252468,7.391048610422974,0.1241011286037367
17.25656,7.407004413689126,0.1231685538668726
17.260656,7.419592799255104,0.1222638493565936
17.264748,7.430829650670795,0.121359120617011
17.268784,7.436683200836415,0.1205111153028322
17.272828,7.441971708826828,0.1196532634186127
17.27686,7.446695174642033,0.1187828890261338
17.28084,7.451640090257108,0.1179065158634859
17.284916,7.457814397447001,0.1170057740170831
17.288848,7.464099429536828,0.1160962938979366
17.292932,7.471503128301538,0.1151669330263769
17.29696,7.474420742691187,0.1142779265065328
17.301044,7.479132790830862,0.1133749467218954
17.305076,7.483955563870471,0.1124651067399773
17.309116,7.482730686260401,0.1116416388366375
17.313204,7.479379200200502,0.1108567592375123
17.317292,7.47232812174062,0.1101101184738802
17.321376,7.468755185880851,0.1093403286571732
17.325408,7.466423059271431,0.1085867289023421
17.329448,7.468466292137135,0.1078049725226906
17.333492,7.466932075178326,0.1070967086085673
17.337528,7.470448984769782,0.1063621396354706
17.341508,7.474309486736576,0.1056510357472543
17.345544,7.474924713578662,0.1049938298219611
17.34958,7.479239532820727,0.1043020422907739
17.353616,7.4851273360129476,0.1036110796032204
17.357644,7.494604006705215,0.1028951663598055
17.361676,7.498033026747803,0.1022575051624721
17.365708,7.498216771665681,0.1016717836995185
17.369744,7.500194950333582,0.101072890690827
17.373772,7.499038578776708,0.100517460441347
17.3778,7.502146841795024,0.0999415299891154
17.381836,7.502342004388434,0.0993976455454843
17.385864,7.502537166981845,0.098853439062337
17.389908,7.509677197099947,0.0982287629599428
17.39394,7.515809285443102,0.0976172793217128
17.397972,7.520822707111376,0.0970218830788436
17.402004,7.522923028354747,0.0964589402031647
17.406044,7.521655931897937,0.0959053986876243
17.410076,7.514673359491253,0.0954065119797263
17.41416,7.510603887509474,0.0948773380064612
17.418188,7.506423690627758,0.0943559546930486
17.422268,7.506275260845831,0.0937891567332215
17.42636,7.507810539913993,0.0932165800270043
17.430448,7.50789497760747,0.0926817122172587
17.43448,7.5058528068511166,0.0921767327035368
17.438508,7.499668144095043,0.0917241175486201
17.44254,7.4990882323889085,0.0912266331987224
17.446572,7.497278929107958,0.0907502581640089
17.450604,7.4968211599772925,0.0902894886461958
17.454684,7.501968141896567,0.0897863138932239
17.45872,7.505775007341089,0.0893137986015278
17.46272,7.513846507360802,0.0888296541373191
17.466748,7.5203564411058945,0.0883857645966225
17.470788,7.524407591701354,0.0879910813627656
17.47488,7.529921001347031,0.08760535056078
17.478976,7.540706987342846,0.08719765452131
17.483072,7.552168740413802,0.0867974883590427
17.487164,7.571594720459928,0.0863631261596167
17.49126,7.595285335081248,0.0859181121762002
17.495356,7.619762441677642,0.0854786890502692
17.499448,7.6412157229491955,0.0850711804577711
17.503544,7.65471619492111,0.0847412651732252
17.507644,7.669446058467842,0.0843911051168496
17.51174,7.684175922014572,0.084041599176906
17.515832,7.70159743618634,0.0836806366715394
17.519928,7.723726484533035,0.0832882888580315
17.524024,7.743728924429901,0.0829245241592218
17.52812,7.771351998926603,0.0825067470463241
17.532216000000002,7.796394147698204,0.0820978980146319
17.536312,7.814491428945113,0.0817528451624329
17.540408,7.835723260416797,0.0813754775726356
17.544496,7.854374166163381,0.0810071138215255
17.548584,7.876270347034674,0.0805990180451095
17.55268,7.897712210630695,0.0801742309284641
17.556768,7.919264799126651,0.0797460125600175
17.560856,7.939244403672452,0.0793178823234287
17.564948,7.962358558443029,0.0788599364365611
17.569036,7.980875903938613,0.0784296341466635
17.573128,7.997930990383978,0.0779920071795907
17.577216,8.012183701304371,0.0775717858358398
17.581308,8.028673745574528,0.0771226914813124
17.585396,8.05692691644424,0.0765874962706803
17.589488,8.084847912614148,0.0760725099092019
17.593584,8.113322533283728,0.0755325576471896
17.59768,8.142018603753181,0.0749866817734219
17.601772,8.170936124022502,0.0744368977358309
17.605804,8.20108303586664,0.0738706611001671
17.609848,8.224838704685762,0.0733342996947151
17.613888,8.253080457879939,0.0727877897360286
17.61792,8.28714841192393,0.0722030389170286
17.621956,8.314714398042968,0.0716496583231206
17.625988,8.342280384162006,0.0710982719792419
17.630020000000002,8.371640804031067,0.0705468712885379
17.634052,8.39865316565043,0.070027267241555
17.638136,8.426894918844608,0.069493574364121
17.642168,8.454804497338984,0.0689784823399034
17.646208,8.476887874983547,0.0685003829543077
17.65024,8.501884353053018,0.0680082878751819
17.654268000000002,8.527667323097564,0.0675215878489336
17.658304,8.556252668667081,0.0670251912291579
17.6624,8.581703464011822,0.0665555664061899
17.666428,8.59819350828198,0.0661506305137361
17.67052,8.613786335677126,0.0657491397126513
17.674608,8.626920379922636,0.0653823694427223
17.678692,8.634117498418403,0.0650528230973682
17.682784,8.634259024489543,0.0647726994168773
17.686824,8.628574349710872,0.0645237077304252
17.690864,8.622668225132331,0.0642838964871743
17.694904,8.61284105835394,0.0640678145899207
17.698992,8.602903166675613,0.0638573812881953
17.703032,8.60036445979725,0.0636222598038469
17.707064,8.596596361344071,0.0634038267209933
17.711156,8.590812379341,0.0631997454899584
17.715248,8.587155005787753,0.0629768370344517
17.719292,8.580363082009734,0.0627790905462172
17.723328,8.570990232506615,0.0625809740717203
17.72736,8.565206250503541,0.0623759228211638
17.731388,8.552920300575517,0.0621915607346507
17.735468,8.538729191997533,0.0620149001963174
17.739548,8.519719824344683,0.0618602304288417
17.74358,8.509449757966554,0.0616624663136787
17.74762,8.500187633363367,0.0614576275415914
17.751712,8.492941392310076,0.0612402962117076
17.755796,8.489616193456637,0.0610026073156042
17.75988,8.492338645252877,0.0607267942444294
17.763904,8.501108747698797,0.0604129231356083
17.767988,8.517610209644486,0.0600637743092017
17.772016,8.53612755514007,0.0597022045685698
17.7761,8.552396149610356,0.0593243210184
17.780136,8.566194543255477,0.0589417843408853
17.784164,8.574388185850658,0.0585779703705563
17.788256,8.584032669820525,0.0581887178131037
17.792288,8.589977561390409,0.0578085180678347
17.796372,8.598835553385197,0.0574174182256736
17.80042,8.607804270279924,0.0570210911070651
17.804512,8.617891653849531,0.0566135117283742
17.808548000000002,8.62651677836892,0.0561939495528386
17.812588,8.63884149528829,0.0557646811318766
17.81662,8.65206342908267,0.0553347995592024
17.820648,8.670325071751783,0.0548765006370057
17.824688,8.67895019627117,0.0544580360047581
17.828724,8.684994395065457,0.0540353657699449
17.832812,8.685323117909869,0.0536317017366177
17.836896,8.681952248354296,0.0532361975852568
17.840924,8.67286590284885,0.0528588646867184
17.844956,8.658285531193398,0.0524893664625314
17.848996,8.635973800038176,0.0521479952450714
17.853024,8.609962476482972,0.051811760406986
