Time,Force,Position
7.856131999999999,5.761561650497619,0.1309982370896726
7.860164000000001,5.8031772191235005,0.1304036003822305
7.864256000000001,5.839264508572777,0.1297390986961568
7.868344,5.867254010795883,0.1290895459067028
7.872375999999999,5.891521085267939,0.1283943038208193
7.876415999999999,5.910725615514197,0.1276988830871991
7.880444000000001,5.919827892659923,0.1271066549965942
7.884467999999998,5.923989768155316,0.1265572375519745
7.888548,5.9167092740754255,0.1261513087719295
7.892588,5.901686002820233,0.1258295092115304
7.896675999999999,5.887670673339988,0.1254870214508661
7.900724,5.875904094885038,0.1251424987047568
7.9047519999999984,5.866065510431112,0.1248776338000227
7.908832,5.863538221228282,0.1246197525083701
7.912915999999999,5.870559560626311,0.1243145762563857
7.916944000000001,5.883540661125149,0.1240109473530699
7.920984000000001,5.898770512649285,0.1237042595350012
7.925076000000001,5.913546046898148,0.123376157635555
7.929103999999999,5.926515729721454,0.1230176069979642
7.9330919999999985,5.934422868318963,0.1226447205422401
7.937124000000001,5.9362595209157245,0.1222804425680847
7.941155999999999,5.933045046962218,0.1219605390969504
7.945204,5.930052022808584,0.1216275909411017
7.949300000000001,5.928521257705167,0.1212980692452694
7.9533960000000015,5.929804285802255,0.1209840424914207
7.9574919999999985,5.935916990649737,0.1206478292219513
7.961524000000001,5.951234731722742,0.1202438279970445
7.965612,5.970595657571066,0.1198213389598231
7.969647999999999,5.996015651744603,0.1193364603186998
7.973739999999999,6.027151121868015,0.118759285302546
7.977831999999999,6.05402195741624,0.1182210104077836
7.981919999999999,6.082110766863746,0.1176007193742814
7.985952000000001,6.106144973860401,0.1169478027370752
7.989984,6.125116636631256,0.1162851249324711
7.994067999999999,6.132756654726762,0.1157345739367591
7.998152000000001,6.136242763147014,0.1152151724371279
8.002236,6.144325680842261,0.1146417511270693
8.006319999999999,6.154435899762932,0.1140867376956864
8.0104,6.166462695009096,0.1135590551258315
8.014475999999998,6.187018759405636,0.1129677873559983
8.018515999999998,6.211507283677564,0.1123676052196033
8.022604000000001,6.236893024824503,0.1117557006054211
8.026692,6.258800623371329,0.1111810437752493
8.03078,6.280475354442752,0.11057334973648
8.034876,6.2975418585636485,0.1099704555539676
8.03896,6.307541352584385,0.1094341639312706
8.043047999999999,6.313497661829802,0.1089179146529233
8.047139999999999,6.313959944925213,0.1084620096461496
8.051224000000001,6.316327386670583,0.1079828584625155
8.055304,6.319149145691226,0.1075269175837516
8.059391999999999,6.326346264186993,0.1070356279236466
8.063472,6.329068715983233,0.1066400368566307
8.067556,6.334150643704704,0.1062418308290405
8.071636000000002,6.33778173005149,0.1058885990537552
8.075664,6.346231075473138,0.1054677360646016
8.079704,6.350980828494806,0.1050864772898011
8.083804,6.351465946941284,0.1047348618715147
8.087896,6.350378081437606,0.1043850556431536
8.091923999999999,6.346598565308893,0.1040598991002619
8.096011999999998,6.336427806155164,0.1038001831411507
8.100100000000001,6.325581279926291,0.1035333178129341
8.104188,6.3132724946472,0.1032584778175524
8.108224,6.297374841868063,0.1030145994012483
8.112303999999998,6.277666871789007,0.1028171142678436
8.116388,6.261326319410129,0.1026011270499305
8.120487999999998,6.249471851406311,0.1023440871755179
8.124576000000001,6.235269325152795,0.1021401544808224
8.128668000000001,6.223979899324184,0.1018953800056874
8.132752,6.207196447345567,0.101705212535567
8.13684,6.186148360791761,0.101538465123612
8.140927999999999,6.162630073412788,0.101378172039737
8.145019999999999,6.140673352308437,0.1011625904513136
8.149107999999998,6.117143647253931,0.1009458737233453
8.153196000000001,6.0986536510741605,0.1006512591094917
8.157284,6.0808394219695305,0.1003633794497089
8.161376,6.0705351025648,0.099991576697074
8.165464,6.061471592410418,0.0996423305259434
8.169556,6.054202516006062,0.0992779689659787
8.173644,6.047941381376651,0.0988971719709501
8.177731999999999,6.042688188522187,0.0984988520660185
8.181816000000001,6.035640561917701,0.0981143114430398
8.185904,6.032071077913326,0.0977070059592525
8.189996,6.033209128083879,0.0972465669449274
8.194092000000001,6.039386887129166,0.0967121724892021
8.198187999999998,6.044999603999244,0.0961662475933094
8.202276000000001,6.053071104018957,0.0955668075254699
8.206364,6.061696228538344,0.0949269272466307
8.210460000000001,6.072005061907819,0.0942825260966595
8.214552000000001,6.08691070455229,0.0935952781251691
8.218647999999998,6.108994082196855,0.0928568877099289
8.222743999999999,6.130745285141614,0.0921412422780195
8.22684,6.15216431338657,0.0914491534896986
8.230927999999999,6.174480558506536,0.0907524082156026
8.235024,6.194215877901404,0.090075273527718
8.239116,6.215291313771022,0.0893688139184727
8.243203999999999,6.232212839965385,0.0886780881536288
8.2473,6.246996340034387,0.0879690346775767
8.251396,6.260993348128313,0.0872617683061104
8.255536,6.280816557072047,0.0864990563046708
8.259671999999998,6.305015125490908,0.0857193608594835
8.263763999999998,6.3319053445348015,0.0849250410652183
8.267852000000001,6.360811447128589,0.0841155332166666
8.27194,6.390725491497325,0.0833029227137837
8.27598,6.418623652316167,0.0825227919322497
8.280068,6.440695612285199,0.0817990917802928
8.28416,6.458735805154444,0.0811293146220904
8.288256,6.480364865523737,0.0804437600098082
8.292352000000001,6.500310217042941,0.0797630179607872
8.296448000000002,6.520477018362015,0.0790739469043593
8.300543999999999,6.535149793531081,0.0784226752283065
8.30464,6.551051960274966,0.0777473926324818
8.308736,6.568970010568743,0.0770521697566574
8.312767999999998,6.583188468462538,0.0763786081162853
8.316856000000001,6.59539104280644,0.0757276435738255
8.320944,6.600980924325453,0.0751250295236701
8.324984,6.608033064894686,0.0745367346190906
8.329024,6.618563348064031,0.0739412961108923
8.333051999999999,6.6280856894584295,0.0733570737602476
8.33708,6.629090179377982,0.0728360263766823
8.341107999999998,6.623703426272519,0.0723469989496899
8.345147999999998,6.617530181191978,0.0718556698912508
8.34918,6.606649401936508,0.0713956830011037
8.353207999999999,6.5898316969312924,0.0709879997049099
8.357292000000001,6.569879441701302,0.0706151242378239
8.361324,6.555531937521252,0.0702063891581509
8.365359999999999,6.541860200416343,0.0698068924402347
8.369404,6.524378146011518,0.0694329804894482
8.373460000000001,6.509698467131664,0.0690425031683833
8.37746,6.495916005126821,0.0686494800851869
8.381492000000001,6.483141484896926,0.0682449596226372
8.385539999999999,6.470477689566963,0.0678331496958573
8.389568,6.456916677361989,0.0674239685354911
8.393548,6.450079082881839,0.0669690163108237
8.397592,6.443917255476831,0.0665229168159527
8.401636,6.443138729321893,0.0660591676519517
8.405676,6.441241536492074,0.0656121598034844
8.4097,6.435755476162206,0.065175292921624
8.413736,6.430490865632209,0.0647242703754143
8.417763999999998,6.429823064377207,0.0642534484851788
8.421696,6.4359894057469615,0.0637340252318996
8.425692000000002,6.440926355541899,0.0632368284059055
8.429739999999999,6.445531130637033,0.0627572834820502
8.433788,6.45495416480703,0.0622457752941725
8.437832,6.46639308252692,0.0617144577274084
8.441887999999999,6.476602608671993,0.0612069277044927
8.445948000000001,6.482104600642138,0.0607198341797107
8.449995999999999,6.489290301462373,0.0602346310810398
8.454048,6.492444235182821,0.0597849656963018
8.458099999999998,6.489329068453717,0.0593994981812496
8.462195999999999,6.486668218999886,0.059038407090956
8.466244,6.485137453896471,0.0587146602338135
8.470292,6.481037180743486,0.0584403222058322
8.474332,6.474367399540934,0.0582171353062603
8.478368,6.470499993863354,0.0579824740581867
8.482408,6.471229397460766,0.0577355805166681
8.486460000000001,6.471958801058178,0.0574888836271699
8.490504000000001,6.47415046370581,0.0572581934170701
8.494547999999998,6.476796443628714,0.057052034395102
8.498591999999999,6.47429198977695,0.0568914828403694
8.502635999999999,6.46731286922566,0.0567887827967075
8.506616000000001,6.464033341074352,0.0566742703131232
8.510656,6.468152997723006,0.0565371651485
8.514703999999998,6.471940479671858,0.0564198960624088
8.518756,6.479316829120757,0.0562985645764372
8.522748,6.488819787019482,0.0561568103129138
8.526784,6.50695132129299,0.0559739264575866
8.530816000000002,6.528893172866415,0.0557766263488535
8.534852,6.554534616839822,0.0555696859360061
8.538884,6.586002261663039,0.0553307300909949
8.542915999999998,6.6195965149360845,0.0550726714056287
8.546948,6.651617784258977,0.054805583115606
8.55098,6.68778154558159,0.0545036239895945
8.555012000000001,6.723269539829061,0.0541913745882797
8.559035999999999,6.755844433651628,0.0538963555672271
8.563064,6.777099100474379,0.0536441670667099
8.5671,6.795219217072353,0.0534184768693334
8.571128000000002,6.813228608770393,0.053199220267548
8.575168000000001,6.8340403759934025,0.0529727748876376
8.579204,6.861575560941235,0.0527151716593802
8.583236,6.893142512988854,0.0524307633869135
8.587276,6.919780481061673,0.0521762850372953
8.591308000000001,6.938011322559584,0.0519492335285858
8.595348000000001,6.956242164057492,0.0517232225564105
8.59938,6.972567846905444,0.0515069577941706
8.603428000000001,6.984751037753674,0.0513242993964694
8.607472000000001,6.992902461502118,0.0511700319495644
8.611512000000001,6.995006234600881,0.0510559751666889
8.615544,6.99531557394962,0.0509434833894551
8.61958,6.992711812873456,0.0508447423556232
8.623608,6.988989385122407,0.0507587311552004
8.627588,6.984369740496346,0.0506730173873182
8.631668000000001,6.977734212320394,0.050600132353227
8.635752,6.970201467269429,0.0505273941230014
8.639844,6.963565939093475,0.0504540625643863
8.643932,6.964440320617421,0.0503593010621695
8.648024,6.969346469241154,0.050238834470084
8.65212,6.975482009439703,0.0501004802071216
8.656216,6.976012798588312,0.0499763407783445
8.660312000000001,6.974970603786766,0.0498417981878095
8.6644,6.968212933035345,0.0497267070021257
8.668492,6.961000945008652,0.0495873512580191
8.67258,6.95490762365684,0.0494348298394717
8.676672,6.943431001054957,0.0492829454875132
8.68076,6.926128177603264,0.0491558757943223
8.684843999999998,6.909157528851376,0.0490098508934871
8.688928,6.8883765627995714,0.0488762273986489
