Time,Force,Position
10.899116,1.803907606536648,0.1611595729640967
10.903144,1.887145647499198,0.1602147144542001
10.907172,1.9736061282353925,0.1584356932759888
10.9112,2.061605339895142,0.1557711401923981
10.91524,2.14408769005382,0.1533892939728512
10.919268,2.217021411611639,0.1516548258757455
10.923312,2.2853354885433994,0.1498815723909192
10.927348,2.350824354599123,0.1481047420651892
10.93138,2.408669750703948,0.1465960073201568
10.93542,2.461109010207635,0.1451127743438311
10.93946,2.509604392160405,0.1436004112164481
10.943492,2.5544880712620617,0.1419971393637493
10.947524,2.5957600475126053,0.1403078528499919
10.95156,2.6323016542371542,0.1386139169984191
10.955592,2.6578437909861594,0.1373032608778665
10.959616,2.6740701666097086,0.1363205034316312
10.963644,2.6854782831583943,0.1355684780766914
10.967692,2.7024911507570204,0.1345793094388774
10.97172,2.714796484180717,0.1337926330527792
10.975752,2.7251966589544563,0.1331027523011745
10.979779999999998,2.7334702252783663,0.132536496928917
10.98376,2.741633066702342,0.1319922577976422
10.987848,2.7441911570763766,0.1316771674030747
10.991888,2.743614697225637,0.1315269201766526
10.995919999999998,2.7431489622748315,0.1313588735228078
10.999956,2.743801893998908,0.1311257621700584
11.003996,2.745573492397866,0.1308287236173334
11.008028,2.741629614846948,0.1307545662538048
11.012068,2.738804403970912,0.1306153796823949
11.016104,2.7369871348698225,0.1304313792249188
11.020084,2.735502040468538,0.1301940670353257
11.02406,2.734127670967188,0.1299401392298935
11.028092,2.731745359690892,0.12973025196059
11.032072,2.731268207064554,0.129453373870153
11.03598,2.7357200384130147,0.1289788015213656
11.03996,2.742974245286445,0.1284151282024606
11.043952,2.7558332032098165,0.1276751353575754
11.047984,2.766676277583295,0.1270288964771976
11.05202,2.780886769656951,0.1263139903598315
11.056055999999998,2.792970653280778,0.1256951459248392
11.060088,2.807070420454499,0.1249942403370706
11.06412,2.820272970753208,0.1243167503620144
11.068144,2.831681087301893,0.1236781605676117
11.072176,2.846002304275483,0.1229325451598582
11.076211999999998,2.856402479049222,0.122334747621458
11.08024,2.865118944972872,0.1217715650912603
11.084267999999998,2.8728274691215754,0.1212553470896757
11.088304,2.88445703547013,0.1205828877923528
11.092392,2.8940707182687926,0.1199971967786177
11.096484,2.8998740837675374,0.1195462685055308
11.100572,2.902764348841377,0.1192030591460248
11.104656,2.90486812194014,0.1188690695055566
11.10874,2.9082012866137186,0.1184611557264945
11.112828,2.9098507424372086,0.118086716449788
11.133256,2.858228776079802,0.1179196585810697
11.137296,2.8476493703529315,0.1178058992793903
11.141379999999998,2.8342675891010907,0.1177740941124561
11.145412,2.823798908274155,0.1176391987173874
11.149448,2.818148486522083,0.1173435669151002
11.153492,2.8111465306197267,0.1170220103201058
11.157524,2.8082870667170923,0.1165306741163367
11.161572,2.8045303859394464,0.116056434203523
11.165608,2.8020030967366165,0.1155119590549296
11.16964,2.7986893155587094,0.1149727084921297
11.173672,2.7957077090806077,0.1143800538418918
11.177696,2.794852711052333,0.1136928488384948
11.181736,2.792203279274035,0.1130349803609345
11.185768,2.787537963945844,0.1124505907402784
11.189796,2.7809674899676944,0.1119247326021191
11.193824,2.77148391556464,0.1114920158634614
11.197864,2.7659213833614364,0.1109227517280051
11.201892,2.764279893358085,0.1102107895745332
11.205932,2.764765011804563,0.10940048405139
11.209964,2.764574363175898,0.1085682678535383
11.214,2.764162264747364,0.1077729101939014
11.218039999999998,2.75926408194377,0.1070799090056846
11.222084,2.755484565815057,0.1063243820027422
11.226112,2.7449816319615232,0.1057815691759745
11.230148,2.7314548727831496,0.1053527444603296
11.234184,2.715580055355076,0.1050505492811207
11.238208,2.698586571252122,0.1047982576627709
11.242235999999998,2.683387520899192,0.1045027314958142
11.246268,2.6672912536712494,0.1042192134657946
11.250304,2.6501870446683604,0.1039679830882605
11.254331999999998,2.6366717031655185,0.1036362966926249
11.25836,2.6230456367627424,0.1033183754293625
11.262396,2.619056088509693,0.1027186044948941
11.266431999999998,2.6150665402566444,0.1021118648997764
11.270464,2.6109662671036604,0.1015190938374922
11.274496,2.613367961875629,0.1007706189640045
11.278531999999998,2.611848614447746,0.100145258436193
11.282564,2.6121237007698865,0.0994916433450776
11.286611999999998,2.612963829267234,0.0988764218898525
11.290644,2.6185114919395107,0.0981526438656483
11.294692,2.624280604411657,0.0973977496442982
11.298724,2.633306409684045,0.0966275543386042
11.30276,2.6459210824564816,0.0958080256233222
11.306732,2.666377839628621,0.0947628774336637
11.310652,2.68571593012588,0.0937537812504876
11.314644,2.70617268729802,0.0926841185324808
11.318587999999998,2.72640799467029,0.0916523845032441
11.322568,2.746532577142626,0.0906429488945361
11.3266,2.76509559334034,0.0897510809695671
11.330644,2.784334376613196,0.0888772872743217
11.334675999999998,2.79684974216123,0.0881785967431121
11.338708,2.811159541459288,0.0874607250008996
11.342744,2.817737981257576,0.0869574291944691
11.34678,2.8280160134558474,0.0863848359873155
11.350763999999998,2.838294045654119,0.0858091776458455
11.354792,2.8418486601275674,0.0853981013257958
11.358836,2.8473084332509746,0.0849416672915681
11.362876,2.8496336561496074,0.0845938498380093
11.366903999999998,2.85027517019815,0.0842563065908577
11.370988,2.8469956420468425,0.0840208898616542
11.399591999999998,2.7506349745143126,0.0839235685637538
11.403683999999998,2.7361459442631237,0.0838871722964209
11.407728,2.722099813611673,0.083786008198328
11.411728,2.708385857660028,0.0836332635669036
11.415776,2.6987036688081694,0.0833662180431903
11.41988,2.687227046206287,0.0831207730674401
11.423928,2.675639698704469,0.0828900448606707
11.427976,2.6595662668275923,0.0827134110560933
11.432028,2.6427063429756386,0.082528862136007
11.436063999999998,2.628194477373383,0.0822335899850103
11.4401,2.6116667282212345,0.0819932576388103
11.444132,2.596589820443772,0.0816527965841262
11.448163999999998,2.581402187766374,0.0813259744995011
11.452188,2.5671117719639884,0.0809856250190629
11.456216,2.55685312326139,0.0805291532625149
11.460252,2.547270241633933,0.0800930470739425
11.464223999999998,2.544632227531168,0.0794717318066026
11.468267999999998,2.544907313853308,0.0787807984363295
11.47224,2.5445066331003066,0.0780703383067988
11.476336,2.546011110997263,0.0773227789140684
11.480439999999998,2.5486342555691013,0.0765363707391376
11.484488,2.5473363579410875,0.0758413731161166
11.488488,2.545927735413139,0.0751593329258449
11.492544,2.5434004462103097,0.0745193249097774
11.496548,2.5407624321075444,0.073896824472355
11.500528,2.534424825604797,0.0733201491412178
11.504524,2.5310003195269566,0.0726795676453549
11.508572,2.5347535484492085,0.0719729276318926
11.512564,2.542206369771444,0.0712176396968587
11.516616,2.550113508368951,0.0705222658206056
11.520547999999998,2.560933747391364,0.0697664869803363
11.524544,2.569516653064013,0.069093930213824
11.528579999999998,2.5789967756116745,0.0684122651154917
11.53256,2.5886983479592054,0.0677001550930107
11.536608,2.595154645182027,0.0671015493204529
11.54066,2.60250815927986,0.0664991122213396
11.544708,2.609529498677888,0.0659590197559438
11.548759999999998,2.6136377376510107,0.0654719528045361
11.552808,2.6183110187993406,0.0650318007686576
11.556904,2.623992241722618,0.0645765085277203
11.561,2.6283333481711435,0.0641951591819994
11.565088,2.6326744546196696,0.0638082303435234
11.56918,2.639817936593165,0.0633904936490562
11.573276,2.6487558523166848,0.062962629286227
11.577376,2.661393360440187,0.0625076782791525
11.581419999999998,2.6795248947136945,0.0620043893596441
11.585468,2.6956405454373087,0.0615460893496573
11.58952,2.7072701117858635,0.061124937210567
11.593568,2.716773069684591,0.0607648373661374
11.597548,2.7272839693582647,0.0603869325619074
11.601596,2.7358897103819797,0.0600350554236379
11.605643999999998,2.7490922606806887,0.0596489963467994
11.609748,2.764089244729421,0.0592594992922986
11.6138,2.779651270953361,0.0589159521334228
11.617828,2.797339905627129,0.0585202894946264
11.621868,2.81121822300098,0.0581675414432175
11.62596,2.8225156146497303,0.057814602163501
11.630052,2.838631265373345,0.0574024936276207
11.6341,2.855865582771841,0.0569658443078422
11.638148,2.86906813307055,0.0566033981040152
11.642191999999998,2.882270683369258,0.0562409519001881
11.646244,2.8992835509678847,0.0558382621837409
11.650292,2.915399201691499,0.0554467969400698
11.65434,2.92949896886522,0.0550902358395036
11.658328,2.937772535189131,0.0548116699330454
11.66238,2.943808768163278,0.0545976590034343
11.666428,2.951971609587253,0.0543368501157638
11.670476,2.958007842561401,0.0541229380768167
11.674471999999998,2.9631468586605365,0.0539107313994831
11.678504,2.967277932984725,0.0537163296819499
11.68254,2.973092716159002,0.0535320013501667
11.68654,2.976215848708244,0.0533567213771568
11.69058,2.9766473306324506,0.0531886136032014
11.694624,2.973379220156675,0.0530421445774165
11.698652,2.968095226131006,0.0529280358092268
11.702624,2.967850940980071,0.0527320855694447
11.706664,2.9662665393543843,0.0525938850047585
11.714648,2.950891709903716,0.0525263942601684
11.738556,2.898952438377432,0.052497909533277
11.74662,2.878870074751835,0.0524651584284765
11.750676,2.8710165726765973,0.0524515911166706
