Time,Force,Position
13.311111999999998,3.266607432136716,0.1520138855398349
13.355923999999998,3.3998522366597794,0.1515900876329955
13.35996,3.4125582508364785,0.1514921026493171
13.363984,3.42852095781342,0.1513377766304234
13.368012,3.447961807390474,0.1510992303630954
13.372096,3.4662839902926463,0.150913814053458
13.376179999999998,3.490886691319901,0.1505452285773407
13.38026,3.523110026946991,0.1499232271061739
13.384352,3.555455505149548,0.1494012633020795
13.388436,3.587358083752365,0.1489618793389903
13.392523999999998,3.623070979655101,0.1484107672085036
13.396608,3.669428335482509,0.147519097968366
13.400696,3.7193745588099656,0.1465246966688969
13.40478,3.772798924737534,0.1455119884608874
13.408856,3.828361316790464,0.1445240336797568
13.41294,3.887623301243375,0.1434379919389528
13.417023999999998,3.947450327871494,0.1424004809362288
13.421104,4.008273878599027,0.1412372538157437
13.425131999999998,4.063702710400956,0.1401273397281952
13.429168,4.119120124527352,0.1389510165721189
13.433196,4.169940729378753,0.137911294723967
13.43724,4.225911768004825,0.1367057013533951
13.441275999999998,4.275037246330605,0.135658099586936
13.445304,4.322467598130764,0.1345826566417091
13.449336,4.369100040280313,0.1334674746079237
13.45338,4.41830199047943,0.1322405806113198
13.457411999999998,4.465144464753316,0.131049330883691
13.461448,4.504919928927042,0.1300131981691639
13.465536,4.539079224375294,0.1290328957626326
13.469563999999998,4.5682981181732165,0.1281185768777224
13.473592,4.58854484322102,0.1273745604693212
13.477572,4.601281658568923,0.1268179430155827
13.481552,4.611769722891531,0.1262678600785668
13.485584,4.614182835339032,0.1258737110751417
13.489612,4.611876995936074,0.1255116803296257
13.493648,4.606425188632805,0.1251707195268464
13.497671999999998,4.599732572079187,0.1248079858122533
13.501711999999998,4.593937172400582,0.1244298030172963
13.505744,4.591730640222024,0.1239884604739778
13.509776,4.587508224493573,0.1235998144902183
13.513759999999998,4.583507258564991,0.1231879908037493
13.517796,4.573901541586468,0.1228899841221429
13.521832,4.561493449082974,0.1226471681261886
13.537959999999998,4.479618359946241,0.1225651812246106
13.541996,4.460608992293395,0.1225233996231723
13.54602,4.441821074440416,0.1224601825150129
13.550044,4.426843473887356,0.1223135120895982
13.554084,4.422178158559165,0.1219606502073595
13.558111999999998,4.416726351255897,0.121609803967891
13.562152,4.409480110202605,0.1212864477260936
13.566188,4.403352535824195,0.1209242006611628
13.570224,4.395995569870967,0.1206080696981705
13.574264,4.3876306621427945,0.1203167666823546
13.578304,4.376131204189846,0.1201154716297259
13.582335999999998,4.363623804461952,0.1199392390924388
13.586424,4.348879071384293,0.1198366999529457
13.590508,4.335031555181646,0.1197181653702111
13.594596,4.321970530954079,0.1195952839810537
13.598636,4.312719824026426,0.1193897712239594
13.602723999999998,4.309971085023727,0.1190581408354636
13.606808,4.310135446445932,0.1186595673874607
13.610892,4.313212908293043,0.1181938841549493
13.614919999999998,4.322116570989964,0.1175965626891866
13.618944,4.327099191487033,0.1170949794557237
13.623024,4.329168711559197,0.1166583241985882
13.62706,4.3343841995316685,0.1162080086940862
13.631092,4.3373623541543775,0.1158334006296213
13.63512,4.335522249702222,0.1155648793898253
13.639152,4.336041621175299,0.1152878230007768
13.643183999999998,4.3409363521234985,0.1149531904602261
13.647272,4.345388183471958,0.1146613792100185
13.651367999999998,4.355555490770295,0.1142552287709464
13.655459999999998,4.373121982868595,0.1137273751627664
13.659548,4.392704358516789,0.1131487388706042
13.663632,4.410492300414958,0.1125959454822202
13.66772,4.431304067637968,0.1119738384335167
13.671808,4.451107893086033,0.1113760899183083
13.6759,4.472816877184055,0.1107467224216914
13.679984,4.488921110232138,0.1102166993708686
13.684072,4.500428534005225,0.1097660507973969
13.688156,4.510928016003365,0.109342037480248
13.692244,4.520641006026428,0.1089227331191626
13.696328,4.525646461874563,0.1085892820847408
13.700423999999998,4.531770584397579,0.1082222871126518
13.70452,4.539910590470489,0.1078085822538163
13.708616,4.547485554368191,0.1073769854291184
13.712708,4.5553926929656985,0.1069143457878686
13.716808,4.560497456038235,0.1064957681705093
13.7209,4.564250684960489,0.1060591037181745
13.724996,4.571138464107517,0.1055534786512249
13.729132,4.579366359729296,0.1049935720023957
13.733224,4.58490260472604,0.104473643966263
13.737312,4.582928940022884,0.1040788157155018
13.7414,4.581963217094676,0.1036638458077117
13.745444,4.583467694991632,0.1032360794624489
13.749479999999998,4.583067014238631,0.1028422765352229
13.753519999999998,4.584571492135587,0.1024173166732541
13.757559999999998,4.585289478057467,0.1019958973031194
13.761603999999998,4.5925094319043,0.1014814322751506
13.765636,4.60141309460122,0.1009548162489017
13.769672,4.610316757298141,0.1004294739664646
13.773708,4.61720453644517,0.0999438120297779
13.777736,4.626562516417364,0.0994469646012188
13.781764,4.634691104814741,0.0989905989383615
13.785795999999998,4.646408560712165,0.0985001924489199
13.789836,4.659809725459678,0.0980043004396464
13.793864,4.67040851468222,0.0975461885770165
13.797895999999998,4.68806289632939,0.096954304691663
13.801924,4.707622436626519,0.0963370075201811
13.80596,4.717877633473722,0.0958468886053735
13.809992,4.7291407720958745,0.0953412262827129
13.814024,4.740293185818092,0.0948471271203007
13.81806,4.749761890690221,0.0943555634324164
13.822091999999998,4.755531003162366,0.0939098198152743
13.826132,4.76084579835924,0.0934354208149451
13.830168,4.763690392730949,0.0929664361435721
13.834212,4.765859220027514,0.0924885096754119
13.838244,4.765336396699046,0.0920367275530072
13.842275999999998,4.761113980970594,0.0916310642025068
13.846272,4.757334464841882,0.0911863774457128
13.850316,4.753665673613104,0.090732077645995
13.854308,4.752123490834155,0.0902305053650184
13.858356,4.749229773904921,0.0897066700493099
13.8624,4.746889681475363,0.0891324370357577
13.866443999999998,4.735355970495816,0.088657058857583
13.870492,4.721130608891235,0.0882058120325973
13.874536,4.710604839686635,0.0877108583875949
13.878528,4.692236986082331,0.0873356409077807
13.88252,4.66983736537824,0.0870284605515884
13.886468,4.651813104149274,0.0866896358727498
13.890515999999998,4.630875742495401,0.0863915719521799
13.894568,4.609041163966517,0.0860994751728142
13.898628,4.591692669812693,0.0857666741357815
13.90268,4.579838201808874,0.0853769807060086
13.906728,4.565967850255163,0.0850199963809572
13.910776000000002,4.556029958576835,0.0846737951117459
13.91482,4.543854733548746,0.0843806030033041
13.918876,4.531458058720784,0.0841050580195213
13.922928,4.520855817642849,0.0838138378622554
13.926972,4.509699952065239,0.0835714392190782
13.931024,4.497536144712681,0.0833449912092243
13.935072000000002,4.485937379535331,0.0831402711614763
13.939128,4.474006439658176,0.0829637851457016
13.943228,4.461300425481477,0.0828558026357631
13.947224000000002,4.457677304954831,0.0826664857638662
13.951224,4.452935517753303,0.0825032498764124
13.955256000000002,4.447972280751906,0.0823601388578896
13.959188,4.449289561875592,0.0821680316118443
13.963128,4.453409218524248,0.0819437194294234
13.967168,4.455623716522946,0.0817426852232194
13.971164000000002,4.462324298896703,0.0815077777445946
13.975192,4.469700648345602,0.0812858314784261
13.979224000000002,4.475958331119618,0.0810917277244261
13.983252,4.480200130343743,0.0809333708335093
13.987280000000002,4.4889280139429255,0.080743148228
13.991312,4.497090855366901,0.0805317663670297
13.99534,4.510969172740752,0.0802547693182578
13.999376000000002,4.528547082514584,0.0799438619476762
14.003408,4.543211891863512,0.0796713768492449
14.00744,4.559892584762333,0.0793693111236757
14.011528000000002,4.5773597696362325,0.0790712176301844
14.015572,4.593819012735185,0.0787901764045511
14.0196,4.6130806313591055,0.0784833358245002
14.023636,4.638500625532644,0.0780788166318599
14.027728,4.660331752206132,0.0777041693664366
14.031856,4.686083921079474,0.0772798972102489
14.035944,4.709033714427846,0.0768817522293534
14.040036,4.7281731904763,0.0765271422512749
14.04412,4.749217825174713,0.0761552453102792
14.048212,4.776875152698014,0.0757215538900458
14.052248,4.797809062496492,0.0753623568979346
14.05634,4.820758855844862,0.074976655058081
14.060432,4.844827315868116,0.0745691673549767
14.064524,4.867101342141346,0.0741733965816316
14.068612000000002,4.885565051114658,0.0738198246631582
14.072708,4.901226384563,0.073491348072703
14.076796000000002,4.911282966961401,0.0732143232425136
14.080824,4.919434390709844,0.0729582019321546
14.084912,4.929490973108245,0.0726821888035819
14.088996000000002,4.9377531217566215,0.0724180703374128
14.09308,4.945007328630052,0.0721674886146509
14.09716,4.95158576842834,0.071903424887683
14.101244,4.9552511078017245,0.0716726271737773
14.105332,4.951074362775404,0.0715342723215119
14.109324,4.945889675974137,0.0714091582375245
14.113416,4.939697047397924,0.0712976380261301
14.117504,4.935298852571734,0.0711768352604375
14.1216,4.931343557345283,0.0710196241582044
14.125688,4.9264910452438215,0.0708673942604235
14.129776,4.913231406567449,0.0707806310570871
14.133876,4.905011476765809,0.0706271726748359
14.13796,4.893091954564187,0.0704994067650641
14.142004,4.877362115062648,0.0704060133597351
14.146044,4.863537434211067,0.0702944262479151
14.150076000000002,4.852625853784392,0.0701521226451846
14.154128,4.846421807532646,0.0699711231212123
14.158216,4.841114978155911,0.0697850363723633
14.162316,4.836029598579045,0.0695809201569582
14.16636,4.832960102552074,0.0693517055104501
14.17042,4.828661214950285,0.0691526277325705
14.174468,4.826378210898391,0.0689279670332362
14.178452,4.826786857471532,0.068692276594169
14.182436,4.830108604469579,0.0684282015507376
14.186472000000002,4.837351393667477,0.0681215400352904
14.190524,4.848183050365422,0.067801520987389
14.194524,4.858006765288421,0.0674954108853939
14.198568000000002,4.86917059668617,0.0671523440021313
14.202564,4.881796687134139,0.0668291537959142
14.206544,4.892517618932149,0.0665225781841102
14.210524,4.909740518655113,0.0661739603196239
14.214604,4.924726085028313,0.0658679261663251
14.218576,4.939822376301448,0.0655514703507092
14.222616,4.960523418624524,0.0651974992928597
14.226656000000002,4.978311360522693,0.0648714779281698
14.230684,4.994194143770905,0.0645634637181028
14.234772,5.00716382659421,0.0642858357841757
14.238856000000002,5.023046609842422,0.0639832137893334
14.242944,5.03859721839083,0.0637074841022009
14.246996,5.049440292764308,0.0634649467317433
14.251028000000002,5.057813166312622,0.0632117498018523
14.255076,5.065178098085987,0.0629713694619813
14.259168,5.071645812984342,0.0627360721168189
14.263264,5.07542187725766,0.0625104371091071
14.267364,5.075387624231061,0.0623126920740549
14.271396,5.069072853079379,0.0621342979548116
14.275428000000002,5.061971589952621,0.0619495617766404
14.27946,5.051514326801217,0.061824275701329
14.283544,5.04138923834962,0.0616731496778881
14.287624,5.032272091672969,0.0615101752724704
14.2917,5.018668860621256,0.0613597405211417
14.295736000000002,5.008200179794322,0.0611674759869783
14.299764,4.998407266042528,0.0609886735054977
14.303792,4.985811976765763,0.0608261120344477
14.307824,4.976129787913904,0.060638704836056
14.311904000000002,4.964542440412087,0.0604639576297754
14.31594,4.948247558735341,0.0603174302462269
14.319968,4.928928851733755,0.06020333095003
14.324008,4.908712927857156,0.0600915267981185
14.328036,4.893093813255551,0.0599581719206512
14.332068,4.881960783029007,0.0598120104043344
14.336156,4.87183569457741,0.0596546413934955
14.340244000000002,4.856105855075871,0.059527231717444
14.344324,4.841273232449344,0.0593964094005642
14.348368,4.831148143997744,0.0592364336757923
14.3524,4.823825431071116,0.0590593530684567
14.356436,4.817289210119565,0.0588882915854649
14.360464,4.816911364717629,0.0586438287139613
14.3645,4.813509693990853,0.058431463807347
14.368536,4.809997298364142,0.0582277754177575
14.372564,4.807160669812574,0.0580384624048803
14.3766,4.801521665736034,0.0578639299685537
14.380628000000002,4.799803703859348,0.0576563606503027
14.384656,4.800323075332422,0.0574116654133952
14.388684,4.79893728815554,0.0571791743842284
14.39272,4.799456659628615,0.0569338334576291
14.396644000000002,4.806810173726449,0.0566322088743203
14.400672,4.81326647094927,0.05633052634028
14.404712,4.820952159746907,0.056000963842329
14.408744,4.827740631669533,0.0556757391046026
14.412724,4.836655712041988,0.0553252555260563
14.416704,4.8465787341893884,0.0549680333162677
14.420636000000002,4.862892999361806,0.0545906720194175
14.424612,4.878985814734354,0.0542311740962115
14.42864,4.892276254581932,0.0538859372020379
14.432684000000002,4.909155561929558,0.0535382802012575
14.436732,4.9270428110521305,0.0531827379075234
14.440776,4.936190758899987,0.0528889330087879
14.444876,4.947354590297737,0.0525753245099156
14.44898,4.95773192972041,0.0522544813715981
14.452976,4.970125152692977,0.0519151442654669
14.457072,4.981399708990661,0.0515924806349544
14.461072,4.988863947988429,0.0512927457811262
14.465124,4.9920749700865406,0.0510478831932068
14.469156000000002,4.994167325509771,0.0508194967968672
14.473152,4.994797421882781,0.0505667604992722
14.47712,4.992292968031016,0.0503507822034007
14.481164,4.990009963979122,0.0501161823119159
14.485152,4.9892999438773815,0.0498982067384828
14.4892,4.983771664700776,0.0497076874449749
14.49324,4.976116777074345,0.0495446394403164
14.497264,4.962635688598101,0.0494176264485364
14.501192,4.9455657326218105,0.0492920270709143
14.505176,4.928717226445389,0.0491489789414835
14.509208,4.911082228293892,0.0489962826142687
14.5133,4.8896369128424775,0.0488618586680345
14.517384,4.862476121441188,0.0487537055938172
