Time,Force,Position
14.866216,4.196524623779729,0.1421939616588363
14.870252,4.220207272580907,0.141774858659257
14.874284,4.2435577466822805,0.1414014908862711
14.878312,4.25884468658408,0.1412888994023784
14.88234,4.273799451786074,0.1412142715868636
14.886376,4.295821227088229,0.1409864932650413
14.890408,4.316613610815567,0.1408138826355196
14.89444,4.33595515316822,0.1407249397108302
14.898476,4.356858261795493,0.1405447901733718
14.90248,4.375169027022133,0.1403390451779642
14.90658,4.387752898623363,0.1402116623221064
14.910628,4.399771728049386,0.1400733487785861
14.91472,4.410439023325128,0.1399263439661748
14.926896,4.413474266325499,0.1399072982901801
14.930948,4.410771198024932,0.1398882423846761
14.93504,4.4075030875491565,0.1398524188746781
14.939088,4.408255326497635,0.1396239859708389
14.943124,4.408663973070777,0.1393556844792998
14.947207999999998,4.4086183023686445,0.139059012372386
14.951236,4.408229039291176,0.1387237118733209
14.955284,4.407606908738304,0.1383400356393979
14.959383999999998,4.41123799508509,0.1378116228128846
14.963416,4.41654137260643,0.1371897181175681
14.9674,4.420493215977486,0.1365639481360651
14.971496,4.430603434898158,0.135763261130026
14.975592,4.44115655341857,0.1349177993316394
14.979688,4.450701730164035,0.1341057240259874
14.983783999999998,4.462041340659523,0.1332645911754957
14.98788,4.476072601780047,0.1323641345243977
14.991976,4.485617778525511,0.1315489334012882
14.996072,4.495273680170912,0.1307207565634628
15.000116,4.506724015566335,0.1298586255021682
15.004167999999998,4.5188501180369,0.1290020629670208
15.008216,4.534786537807382,0.1280536218728962
15.012251999999998,4.546580465578143,0.1272361740707843
15.016291999999998,4.55938233512385,0.1264011725896497
15.020324,4.571741305069818,0.1256182401858593
15.02436,4.584886766990863,0.1248310703793225
15.028444,4.601621096411955,0.123989275762011
15.03254,4.621047076458081,0.1231136076048866
15.036636,4.638346448054381,0.1223045400768768
15.040728,4.654859327675604,0.1215004093648511
15.044824,4.669356323746932,0.1207552221815563
15.04892,4.684861261593207,0.1199945031621879
15.053012,4.693864231514531,0.1193609167983231
15.057107999999998,4.703088651235723,0.1187086663133177
15.061203999999998,4.713210287831928,0.1180466076406204
15.0653,4.72299974972833,0.1174209371321093
15.069392,4.736599528924647,0.1167281118905282
15.073424,4.755582609371035,0.1159608168178887
15.077512,4.778265282217403,0.1151406884723152
15.0816,4.801734447038851,0.1143248457602501
15.085632,4.824638569685091,0.113492556923099
15.089664,4.848550634106279,0.1126491253839868
15.093692,4.873581365202347,0.1117742465070614
15.097779999999998,4.891777953673658,0.1110298145981
15.101864,4.910306716844773,0.11026308035995
15.105892,4.9280489880408105,0.1094991525034422
15.109972,4.944107550386762,0.1087593867979874
15.114004,4.95624507053286,0.108099770440644
15.118087999999998,4.96927980755397,0.1074289963812061
15.12212,4.985006195200117,0.1067289243683065
15.12616,5.000843307746196,0.1060224460975551
15.13024,5.012980827892293,0.1053720423017561
15.13432,5.029715157313386,0.1046630249897639
15.138408,5.044212153384715,0.1040122869161739
15.142432,5.055796049031138,0.1034126548360819
15.146408,5.065585510927539,0.1028354022271281
15.1505,5.0725725972989695,0.1023041860213976
15.154588,5.077765249920374,0.1017986809546151
15.15862,5.079258310141797,0.1013448368092949
15.162648,5.0788462117132624,0.1009201626600956
15.166679999999998,5.079220605259806,0.1004950859762228
15.170723999999998,5.078587057031402,0.1000914564777628
15.174752,5.078961450577945,0.099670767250959
15.178788,5.088185870299137,0.0991038763871151
15.182823999999998,5.09718884022046,0.0985597368237199
15.186856,5.109891402541766,0.0979757336627374
15.190888,5.119680864438166,0.0974366161792951
15.194919999999998,5.131707659684329,0.0968461179334655
15.198956,5.14305868785535,0.0962469215829611
15.202984,5.155639107601187,0.0956218578308134
15.207016,5.167211585572078,0.0950149111029597
15.211044,5.177554671968153,0.0944377737990999
15.21508,5.18128506553934,0.0939445266767978
15.219112,5.186355575585278,0.0934052553742408
15.223152,5.192544752306096,0.0928376045189272
15.22708,5.199066103726722,0.0922423681071365
15.231111999999998,5.203793021397322,0.0916623435236883
15.235108,5.204931071567876,0.0911132282586639
15.239108,5.208760772363466,0.0905424501158911
15.24314,5.211803981183978,0.0899682435567758
15.24712,5.214957914904426,0.0893862920007492
15.251152,5.217436081549731,0.0887965000826195
15.255128,5.219017031320023,0.0882165004414877
15.259108,5.215890446915387,0.0876942570905413
15.263108,5.212874587410687,0.0871653939101294
15.267155999999998,5.20414325195611,0.0867041038311936
15.271252,5.198435741826375,0.0861953896375196
15.2753,5.189925856171668,0.0857145679937114
15.279352,5.182091737592103,0.0852436253411992
15.283404,5.171123068787763,0.0848280946019209
15.28746,5.160043675083489,0.0844195707214652
15.291568,5.155011932028894,0.0839214929179859
15.295675999999998,5.152893289399206,0.0833833361395827
15.29978,5.155371456044511,0.0828096000929317
15.303836,5.15986550623971,0.0822080982181306
15.307884,5.164924598610115,0.0816267185474915
15.31198,5.173683283380503,0.0810151386904698
15.316076,5.186030835650937,0.0803799565567582
15.320175999999998,5.194789520421324,0.0797693527275947
15.324267999999998,5.210050173116665,0.0791091090677272
15.328324,5.226097317787082,0.0784558672359905
15.332299999999998,5.240915070882683,0.0778345926017208
15.336388,5.25371694042839,0.0772403440989763
15.340407999999998,5.266297360174227,0.0766626455877543
15.344436,5.276972621270106,0.0761056413971162
15.348468,5.292576866340784,0.0754909530789401
15.352555999999998,5.304370794111544,0.0749131779648019
15.35664,5.316619039157576,0.0743622142146443
15.360672,5.329985950878491,0.0737926463404441
15.3647,5.3378588364494,0.0732546563919233
15.368732,5.344834505145297,0.0727193913500907
15.37282,5.350802232066249,0.0722043741188884
15.376907999999998,5.36237471003714,0.0716520821457152
15.380999999999998,5.37114481248306,0.0711281089417937
15.385028,5.37969346512911,0.0706242165211764
15.389068,5.387344900900151,0.0701242884758533
15.393104,5.391186019371272,0.0696572622560795
15.397192,5.395027137842393,0.0691927617249921
15.401279999999998,5.400773414963474,0.0687123588598027
15.405312,5.400804216134679,0.0682815310815946
15.4094,5.397135424905901,0.0678714824082868
15.413484,5.393355908777189,0.0674682242478463
15.417523999999998,5.3927109428732525,0.0670225554089544
15.421559999999998,5.392963193844326,0.0665731968372038
15.425644,5.392207503040454,0.0661333406004018
15.429684,5.388206537111873,0.0657440780025515
15.43372,5.389478147533426,0.0653443622891328
15.437751999999998,5.396908133504595,0.0648748377404773
15.441784,5.399630585300836,0.0644345405537752
15.445811999999998,5.40975222189704,0.0639525800562527
15.449848,5.424692117568109,0.0634352723946067
15.453876,5.435710971039327,0.0629549040755567
15.457904,5.440117131685655,0.0625205291185476
15.461936,5.440602250132132,0.0621191002934342
15.465967999999998,5.438174268153704,0.0617404780863092
15.469996,5.43473834440033,0.061370466926826
15.474032,5.432421087321837,0.0609805979424949
15.478063999999998,5.424277629393533,0.0606344131866507
15.4821,5.413896838115466,0.0603235204929986
15.48614,5.400713671312429,0.0600249930072649
15.490172,5.392127313784387,0.0597059250484048
15.494208,5.384770347831161,0.0593597326674194
15.498247999999998,5.376749032478325,0.0590623021953738
15.50228,5.36682255847553,0.0587759319590547
15.506312,5.357793301347747,0.0584858027313615
15.51034,5.351222827369597,0.0581432290072249
15.514376,5.341960702766412,0.05780789264161
15.518412,5.32284061021363,0.0575536699789397
15.522439999999998,5.310111760685867,0.0572778000963716
15.526468,5.296596419183024,0.0569960447153026
15.530504,5.278152093705384,0.0567529458285361
15.534532,5.2604942602028215,0.0565144729888447
15.538572,5.241939209825245,0.0562748717003914
15.542608,5.225289318097628,0.0560222582321998
15.546639999999998,5.210655309919906,0.0557492697779655
15.550679999999998,5.199155851966959,0.0554389360825947
15.554723999999998,5.188110711289281,0.0551582625140615
15.558756,5.180089395936446,0.054846123114753
15.562792,5.174194689033438,0.054505937293365
