Time,Force,Position
15.712964,6.180366895894783,0.1418151175599712
15.717052,6.1889041308653,0.1412071494857518
15.721132,6.185090361709989,0.1407364925017475
15.72522,6.180822275279406,0.1402480640357875
15.729304,6.177562130623769,0.1397398315932263
15.733392000000002,6.171499610443161,0.1392812430676245
15.737484000000002,6.159167989813002,0.1389675705342091
15.741572,6.14796645353326,0.1386751513797668
15.74566,6.138116451403803,0.1383873692135352
15.749744,6.131966041674327,0.138036523178205
15.753772,6.13052316611978,0.137602198786014
15.7578,6.128858840765362,0.1371849676492204
15.76188,6.129775441136047,0.1367379708034369
15.76596,6.127557491281956,0.1363637106923668
15.770044,6.124442324552852,0.1360028991342679
15.774132000000002,6.1192005493739225,0.1356929991966843
15.778156,6.119563525244931,0.1352895838119988
15.782248,6.12743641081584,0.1347642615031856
15.786336,6.134866396787009,0.134273953962373
15.790372,6.147114641833042,0.1337001301959961
15.794424,6.158133495304258,0.1331610365005419
15.798472,6.17162254960064,0.1326017210105937
15.802464,6.18981913807195,0.1319687555471748
15.806444,6.203529642168203,0.1313955308797366
15.810480000000002,6.214437770739485,0.1308698590391955
15.814512,6.225345899310766,0.1303441283105364
15.818544,6.242190953631793,0.129703865652991
15.822572,6.261384066202519,0.1290025311467483
15.826612,6.280577178773244,0.1283014296325718
15.830648,6.297643682894141,0.1276512307482645
15.834672,6.310678419915251,0.1270821260321558
15.8387,6.322705215161414,0.1265328569112069
15.842732000000002,6.332151084682478,0.126012616135761
15.846764,6.344166462253108,0.1254155508423733
15.850808,6.3555060727485975,0.1248143381963422
15.85484,6.367510032643693,0.1241670229953748
15.858824000000002,6.376933066813692,0.12354755631103
15.862804,6.374470831808665,0.1230875202204423
15.866736,6.372894396003116,0.1225663307557363
15.870776,6.3635866006978,0.1221700343449113
15.874772,6.357413355617258,0.121709283082551
15.878772,6.35347744388648,0.1211985125744518
15.882812,6.341920897555867,0.1208021497589458
15.886856000000002,6.334739710700379,0.1203592868097004
15.890900000000002,6.327558523844891,0.1199153120018345
15.894952,6.31925867031452,0.119495908430188
15.898988,6.31242107583437,0.1190808172681694
15.903044,6.300322322679616,0.1187700280616839
15.907096,6.288677886800134,0.1184795012477555
15.911144,6.278041392695599,0.1181701344956158
15.915196000000002,6.270207274116034,0.1178218782560711
15.9192,6.265507705761244,0.1174126750996984
15.923248,6.26349978803149,0.1169743998600147
15.927292,6.259033087152103,0.1166022464800881
15.931348,6.254344936472847,0.1162446293281329
15.935348,6.246300785768946,0.1159613788587317
15.939344000000002,6.241059010590014,0.1156413864602757
15.94328,6.245797345936148,0.1152058964710765
15.947308,6.247855448332778,0.1148521860311373
15.951336,6.254621084904339,0.1144319053233418
15.955372,6.260046605001147,0.1140537593586562
15.9594,6.258637982473198,0.1137812698997043
15.96344,6.2646285447452135,0.1134163492935127
15.967468,6.269721890142219,0.113062315250426
15.971556,6.274372335939483,0.1127384621749141
15.975644,6.282833099036664,0.1123623918121683
15.979731999999998,6.284570444409026,0.1120824405198733
15.983816,6.293706974581348,0.1117124262901714
15.987844,6.303286404353411,0.1113123660077005
15.991884,6.310407050975842,0.1109761696664686
15.995920000000002,6.315511814048379,0.110674509728738
15.999952,6.318944285946359,0.1104375772914586
16.004044,6.316439832094595,0.1102932725638521
16.008132,6.315729811992856,0.1101307265457197
16.012224,6.314798342091245,0.1099831241173667
16.016308,6.317677189489551,0.1097830798459555
16.020392,6.319326645313041,0.1096163291548532
16.024428,6.31537135008659,0.1095190815047177
16.028516,6.3104081130851934,0.1094382815327211
16.032604,6.306231368058874,0.109356060673521
16.036692,6.303173289707435,0.1092496681314298
16.040776,6.30449057083112,0.1091058522723461
16.04486,6.301886809754954,0.1090208439692329
16.04894,6.2999588157539295,0.1089422379284656
16.053028,6.2980308217529055,0.1088634618746547
16.057112,6.292071060652094,0.108850159725002
16.061192000000002,6.292834717276105,0.1087448956897365
16.069352,6.280128703099408,0.1087185876782547
16.073436,6.277192767323435,0.1086558837802071
16.081604,6.265494694921683,0.1086139130980204
16.085692,6.259645658720807,0.1085933162914154
16.089728,6.252899405644919,0.108581500974075
16.093816,6.249176977893871,0.1085195476835016
16.0979,6.245343825242888,0.108465223288705
16.101992,6.238819021966869,0.1084372636348603
16.106016,6.234875144415952,0.108390456786553
16.110096,6.23406581708981,0.1082863162472341
16.114184,6.236280315088506,0.1081341391493854
16.118212,6.237486871312259,0.1079986214810771
16.122296,6.236112501810909,0.1078810559258798
16.12638,6.234959582109429,0.1077479755164114
16.130408,6.231790778858056,0.1076473100674473
16.134448,6.233550959581482,0.1074742381181202
16.138556,6.239121457604822,0.1072523374406707
16.142664,6.240881638328248,0.1070801114542618
16.146696,6.244436252801698,0.1068900589406976
16.150748,6.250338925524845,0.1066456471432242
16.1548,6.254336439598032,0.1064267442931678
16.15884,6.261689953695865,0.106138899822257
16.162884000000002,6.276774827293466,0.1057469587372266
16.166992,6.2940970342408304,0.1053089805575032
16.17104,6.308616865663226,0.1049011444468859
16.17514,6.322018030410739,0.1045197576920055
16.179188,6.334632703183175,0.1041403745688086
16.183224,6.3509469683555935,0.1037218898901963
16.187268,6.367593408227817,0.1032834511747539
16.19132,6.382223964550146,0.1028768538849833
16.195364,6.389344611172576,0.1025566805684961
16.199352,6.396354532895072,0.1022443316497802
16.203328,6.40538033816746,0.101900979109271
16.207372,6.414295418539915,0.1015643687824037
16.211452,6.422756181637095,0.101204319294461
16.215436,6.426287960759479,0.1009152371840556
16.21942,6.427914581231904,0.1006500648372422
16.223456,6.428643984829315,0.1003915522191562
16.227488,6.430381330201675,0.1001177030091135
16.231528,6.432683717749241,0.0998599617039119
16.23562,6.434986105296808,0.0996025057863488
16.239716,6.433146000844654,0.0994120462924877
16.243812000000002,6.428282071067659,0.0992663369359879
16.247908,6.424315358165674,0.099113674280596
16.25194,6.426174846113502,0.0988889118884894
16.255976,6.427469291886123,0.0986502111044392
16.260008,6.427755795883795,0.0984256419924045
16.264096,6.4253506492564325,0.0982226104664586
16.268184,6.421040343979112,0.0980407342879594
16.272276,6.416054271626649,0.0978507139707366
16.276364,6.415775733449116,0.0976105461548336
16.280396,6.416615861946462,0.0973494975007297
16.284424,6.417234540643941,0.0971030835825249
16.288456,6.419869102891312,0.0968287905259353
16.292532,6.424076649088837,0.0965547405151491
16.29662,6.4276084282112205,0.0962719835328076
16.3007,6.42956722338345,0.0959879298119498
16.304728,6.433320452305702,0.0956894248231427
16.308756,6.437073681227956,0.0953912970709939
16.312788,6.435443608900137,0.0951335097769217
16.316824,6.433813536572319,0.0948758270232397
16.320912,6.437223173119234,0.0945487783527484
16.325,6.43917055061593,0.0942128654623118
16.329032,6.437418335712644,0.0939111828899422
16.333072,6.430061369759418,0.0936635907957356
16.337104,6.421475012231375,0.0934437364245271
16.34114,6.413110104503201,0.0932087261915407
16.345184,6.403737255000081,0.092986626596454
16.349276,6.394364405496961,0.0927638175643231
16.353308000000002,6.388248248794084,0.0925365966312236
16.357348,6.381124150316261,0.0923231583876427
16.36138,6.371984168288543,0.0921367848687521
16.365412,6.366765228460678,0.0919041764280261
16.369388,6.359641129982854,0.0916910471983815
16.373472,6.356438073704882,0.0914329754271505
16.377552,6.356823884926957,0.0911507844486935
16.38164,6.360687838749144,0.090851989433393
16.385616,6.36387602549619,0.0905449028194565
16.38966,6.36605627046829,0.090250662661855
16.393644000000002,6.371038890965357,0.0899293521043525
16.397692,6.37501356968748,0.0896210063399396
16.401664,6.374059264434804,0.089371665981334
16.405696,6.374456493332412,0.0891385276212774
16.409732,6.377545372855055,0.0888876642835817
16.413776,6.384333844777681,0.0886059287428759
16.417824,6.392130258475254,0.0883111365215975
16.421868,6.40149965612298,0.0880196011030507
16.425868,6.410869053770707,0.0877263904463332
16.429896,6.422819377143534,0.0874239602404715
16.43394,6.43241022459113,0.0871183996397586
16.437968,6.438866521813951,0.0868573032183993
16.442064000000002,6.444536327061695,0.0865938682499127
16.446112,6.444490656359564,0.0863874892347072
16.45016,6.446239419407455,0.086169953399156
16.454132,6.440256822955579,0.0860332189878035
16.458216,6.431693300778601,0.0859059111808781
16.462296,6.419319461301708,0.0858147655563289
16.466388,6.408629330674901,0.0857191849630484
16.47044,6.4008523004730025,0.0855928568104792
16.474464,6.394648254221256,0.0854697873936524
16.478548,6.390349366619468,0.0853288021673576
16.482636,6.386726246092822,0.0851961378231563
16.486672,6.3834353002659805,0.0850421364742126
16.490756,6.380144354439139,0.0848884728610128
16.49474,6.376631958812427,0.0847492105325078
16.498796,6.373795330260858,0.0846189348489157
16.502828,6.369385717759136,0.0844848929568131
16.50692,6.365873322132424,0.0843451823170113
16.511008,6.358772059005666,0.0842260054564195
16.5151,6.353243779829061,0.0841104449316362
16.519192,6.353652426402203,0.0839292268096873
16.523284,6.356531273800511,0.0837466186745884
16.527328,6.360196613173894,0.0835651721429927
16.531428000000002,6.362854010772332,0.0833963301294376
16.53552,6.370440392345568,0.0831731045068993
16.53962,6.37556799076917,0.0830013216375423
16.543716,6.386411065142647,0.0827785697340232
16.547796,6.397254139516126,0.082557249479144
16.551888,6.404176171689752,0.0823774855324466
16.55598,6.411319653663249,0.08218451921764
16.560072,6.41666870188672,0.0820017890108403
16.564156,6.425152300334966,0.0817769961854781
16.56824,6.434200940958421,0.0815690666131666
16.572328,6.441344422931917,0.0813780733198095
16.57642,6.443669645830549,0.0812311612804669
16.580512,6.444421884779028,0.0810799861276413
16.584596,6.446636382777727,0.0809403112730061
16.588688,6.450645314526446,0.0807912188765993
16.592772,6.45835383867515,0.0806164504372473
16.596868,6.463481437098753,0.0804488763222032
16.600964,6.464909443122372,0.0803077202993897
16.605048,6.466669623845798,0.0801463523163813
16.609136,6.468761979269028,0.0799638664876132
16.613224,6.468949176042299,0.079797000950128
16.617252,6.466223272390665,0.0796575638657892
16.621332,6.468758527413636,0.0794465010515255
16.625412,6.465799756286598,0.0792701455606951
16.629496,6.461046551409539,0.0791026438494033
16.633576,6.459317171857319,0.0789008932403467
16.637568,6.457809242104968,0.078686013393155
16.641596,6.454285428802724,0.0784925582743857
16.645676,6.4498643986254685,0.0783040651983827
16.649756,6.444878326273005,0.07809940548305
16.653836000000002,6.437200603295508,0.0779061905872522
16.657868,6.43557053096769,0.0776454213720728
16.661948,6.434051183539807,0.0773771540977845
16.66598,6.432974735711662,0.0770821490336607
16.670064,6.434135621233281,0.0767535094847815
16.674116,6.432715581029799,0.0764308332124641
16.678212,6.434097916351289,0.0760892402706687
16.682272,6.437385410322736,0.0757333903130947
16.6862,6.434846703444372,0.0754266075504823
16.690192,6.433094488541086,0.0751224990136357
16.69422,6.433468882087629,0.0747893497411568
16.69826,6.437653592934089,0.0744273938599168
16.702352,6.440043870030524,0.0740748191143045
16.706448,6.4414262053520135,0.0737305816774182
16.710484,6.4447136993234615,0.0733724578502273
16.71452,6.450017076844802,0.0729964163067864
16.718548000000002,6.452518078841173,0.0726380274961528
16.722576,6.459837339912408,0.0722414999425163
16.726604000000002,6.462449066808713,0.0718748805021524
16.730576,6.46405285193007,0.0715184399024192
16.734608,6.471372113001305,0.0711203943365682
16.738588,6.47678621542258,0.0707380022771968
16.742624,6.482986809818934,0.0703591279906118
16.746708,6.485377086915371,0.0700064888620365
16.750736,6.483957046711889,0.0696816125823119
16.754828,6.481418339833525,0.0693722070886499
16.758912,6.476974474305204,0.0690758459165594
16.762996,6.472641333676818,0.0687735901054318
16.767044,6.476150277448136,0.0684064193230863
16.771076,6.479659221219453,0.0680396454289111
16.775168,6.48316816499077,0.0676734654764548
16.77926,6.484993399911998,0.0673079641035781
16.783348,6.487494401908369,0.0669539904388843
16.78744,6.495710879854616,0.0665644000824921
16.791524,6.500903532476022,0.0662026009575141
16.795560000000002,6.502064417997642,0.0658792875436485
16.799648,6.505916954144296,0.0655482837530943
16.80374,6.509880215190886,0.0652132633533481
16.80782,6.517653793537393,0.0648538062103837
16.811912,6.526546038558782,0.0644791287402881
16.815944000000002,6.531406516480383,0.0641407304331252
16.819972,6.534251110852091,0.0638195860270413
16.824052000000002,6.537095705223798,0.0634987728841831
16.828136,6.5445371088705,0.0631600862842072
16.83222,6.55388367116716,0.0628113888186841
16.836252,6.565356841913649,0.0624384607674933
16.84028,6.581537546835067,0.0620447191459518
16.844308,6.5927892677816855,0.0616866185895272
16.84834,6.602135830078345,0.0613425458341506
16.85238,6.6105851754999945,0.0610005084954026
16.856412,6.621161129371471,0.0606377238099818
16.860456,6.630507691668131,0.0602963277252059
16.864556,6.639510661589456,0.0599264556395697
16.868592,6.645821980885744,0.0595642135744908
16.872636,6.655489300206675,0.059159324391827
16.876668,6.665488794227413,0.0587350128903995
16.880708,6.670780754073222,0.0583299549232569
16.884804,6.675286221943953,0.0579227219098091
16.8889,6.6779972560646605,0.0575177974038764
16.892996,6.6786924066354745,0.0571276740204107
16.897044,6.681735615455986,0.0567025220846487
16.901072,6.686229665651184,0.05624327848108
16.90516,6.6910558905461865,0.0557658382293746
16.909244,6.689490872416172,0.0553014551789921
16.913332,6.686807187611276,0.054851835653521
16.91742,6.683337010831302,0.0543967368686837
16.921508,6.671791882176223,0.0539497586890467
16.925544,6.6614761450959605,0.0534784665426416
16.929632,6.64735009071578,0.0530220065710103
16.93366,6.632548269260457,0.0525513828071173
16.93774,6.611809522055391,0.0521155322381959
16.941824,6.590505732675116,0.0516587595642722
16.945852,6.564838001495249,0.0512462504348953
