Time,Force,Position
17.021243999999996,6.477380584459701,0.1451825644662697
17.025287999999996,6.520878476384475,0.1444040426011112
17.029343999999995,6.556488613207416,0.1436046198066454
17.033451999999997,6.584997486903597,0.1427774419538152
17.037555999999995,6.604511356498596,0.1419979590600455
17.041655999999996,6.620978565417687,0.1411908142567568
17.045755999999997,6.639793832586475,0.1403342134327106
17.049856,6.661632925080102,0.1394188099617237
17.053956,6.681234684223966,0.1385597284255643
17.058015999999995,6.701290760643103,0.1377284480097327
17.062067999999996,6.718666604112737,0.1369828199233025
17.066167999999998,6.731678505782781,0.1363392578362543
17.070259999999998,6.742342349203125,0.1357580591930161
17.07436,6.750093092198566,0.1352286829700401
17.078407999999996,6.754598560069296,0.1347730382077058
17.082507999999997,6.763700837215021,0.1342536393241502
17.086551999999998,6.779415807185634,0.1336360390452712
17.090655999999996,6.799838311331176,0.1329463355206834
17.094739999999994,6.821600931951469,0.1322213997136883
17.098839999999996,6.845600885921525,0.1314485272273667
17.102891999999997,6.868703623016569,0.130689717095349
17.106987999999994,6.892814301886559,0.1299165011590278
17.111027999999997,6.916249213681406,0.1291502034509384
17.115075999999995,6.932849982851497,0.1284962624911322
17.119111999999994,6.947656318271563,0.1278631079517841
17.123199999999997,6.959438828366789,0.1272842730417545
17.127232,6.963489978962247,0.126828718792838
17.131268,6.968438346432718,0.1263662597292773
17.135351999999997,6.977418481002975,0.125836102466346
17.139427999999995,6.983706964948197,0.1253384361559853
17.143511999999994,6.99133556536817,0.1248010075423513
17.147548,7.004901091537888,0.1241701546029308
17.151627999999995,7.022276935007524,0.1234876978479327
17.155659999999997,7.041336487327248,0.1227924310759579
17.159687999999996,7.063309140071878,0.1220542728514198
17.163771999999994,7.080463533741645,0.1213893584470537
17.167803999999997,7.089997292811576,0.1208331355479233
17.171935999999995,7.09784734303142,0.1202916726008266
17.17602,7.102784292826358,0.1197940427045736
17.180107999999997,7.103013708446366,0.1193565544054577
17.184188,7.102567356991233,0.1189142518269235
17.188215999999997,7.1021210055361,0.1184735725522084
17.192299999999996,7.095848453231156,0.1181140928611155
17.196335999999995,7.095512826675957,0.1176652622159007
17.200367999999997,7.0969716338707824,0.1171977160236416
17.204463999999994,7.104367366815353,0.1166445935430501
17.20856,7.1138897082097525,0.1160508987361816
17.212655999999996,7.118483065629353,0.1155295670416191
17.216752,7.11803671417422,0.1150868435648003
17.220847999999997,7.114787987194116,0.1146751243041456
17.224883999999996,7.115349577513929,0.1142166236836349
17.228915999999998,7.1100849669839326,0.1138372802182994
17.233007999999998,7.103025922703913,0.1134755586760073
17.237096,7.094172444673868,0.1131296866353358
17.241183999999997,7.080611432468894,0.112837964573962
17.245224,7.068279811838738,0.1125161394326972
17.249319999999997,7.059082741433357,0.1121405919548716
17.253415999999994,7.050107120827845,0.1117510647235615
17.257512,7.03653469094734,0.1114070821372438
17.261607999999995,7.028223419741438,0.1109726765159637
17.265704,7.021141540110351,0.1105089316210859
17.269748,7.008565634329259,0.1100988792160637
17.273843999999997,6.999235003672877,0.1096272924314911
17.277876,6.986315505516448,0.1091875975915034
17.281912,6.975068298534573,0.1086916691881341
17.285947999999998,6.95350880632783,0.1083074781621587
17.289944,6.931949314121087,0.1079212588762116
17.293976,6.910611271714213,0.107518729029341
17.298012,6.888597462232197,0.1071072631209431
17.302048,6.869164578475282,0.1066764555752151
17.306027999999998,6.845810652518516,0.1062969451654165
17.310035999999997,6.829180144286571,0.1058345699601382
17.31404,6.811430969379744,0.1053924762032555
17.318095999999997,6.797935011372575,0.1048778080169473
17.322143999999994,6.789589487140074,0.1042824304472861
17.326195999999996,6.783149121557531,0.1036656550170121
17.330203999999995,6.773795655550083,0.1030826319717586
17.33426,6.758615988692824,0.1025671740896629
17.338307999999998,6.752397072910152,0.1019286290216932
17.34236,6.743154331802638,0.1013333680514759
17.346407999999997,6.728085389845315,0.1008041743916113
17.350455999999994,6.719064098537671,0.1001881409365292
17.354507999999996,6.711726516080117,0.0995653384617054
17.358551999999996,6.703159542047746,0.0989667469891958
17.362595999999996,6.689220684440837,0.0984558751343099
17.366639999999997,6.683799678308776,0.0978524396753899
17.370683999999997,6.67636278862682,0.0972739454044409
17.374727999999998,6.672736216244781,0.0966532575705252
17.378771999999998,6.674603670012747,0.0959844011172729
17.382816,6.681400107755511,0.0952590524523491
17.3868,6.687188603723329,0.0945454156735436
17.390783999999996,6.686253681966325,0.0939071083686354
17.394824,6.684642993134178,0.0932594911793298
17.398827999999995,6.679565579377453,0.0926807473655045
17.402884,6.673148049145977,0.0921368105107094
17.40688,6.665390402439748,0.0916270815855672
17.410868,6.662229565008513,0.0910804153351898
17.414848,6.668483795927136,0.0904467290604242
17.418844,6.6711605770212445,0.0898891081038253
17.422875999999995,6.675299617165574,0.0893415830317516
17.426904,6.689418767834965,0.0887260556834478
17.430932,6.703660061079828,0.0881574410348608
17.434967999999998,6.716561237849937,0.0876236022611832
17.438995999999996,6.7311461234701335,0.0870836017024239
17.443039999999996,6.749652051290185,0.0865003008859909
17.447075999999996,6.7639047622105775,0.0859806102582695
17.451107999999998,6.781857065530952,0.0854332635894355
17.455143999999997,6.7966748186265535,0.0849295370250946
17.459187999999997,6.8095874130721965,0.084446175243815
17.46322,6.815555139993146,0.0840396271276935
17.467256,6.822641533588977,0.0836141366466273
17.471384,6.830292969360018,0.0832011166379902
17.475476,6.840414605956223,0.0827873819610946
17.479571999999997,6.851433459427439,0.0823688437713968
17.483667999999994,6.863017355073863,0.0819670307876895
17.487759999999994,6.872917541870198,0.0815677511746639
17.491859999999996,6.8779994695916695,0.0812125523848874
17.495939999999997,6.878152413338342,0.0809091339228802
17.500023999999996,6.877408140210004,0.0806100730423045
17.504107999999995,6.872742824881813,0.0803484443019268
17.508195999999998,6.8624727585036815,0.080127864304334
17.512284,6.846708665975543,0.0799398435110597
17.516371999999997,6.829936631672458,0.079762324817375
17.52046,6.815069756019332,0.0795688091842832
17.524552,6.800546472741544,0.0794034163640073
17.528636,6.78803907301365,0.0792155659128015
17.532663999999997,6.774413006610873,0.0790446844852453
17.536747999999996,6.766613141057906,0.0788223786441546
17.540776,6.757583883930123,0.0786232865623926
17.544799999999995,6.751467727227246,0.0783979924301807
17.548835999999994,6.745805887799642,0.0781943815555356
17.552864,6.741594889746723,0.077953171753766
17.556891999999998,6.733684299293821,0.0777339738194715
17.560919999999996,6.725884433740855,0.0775080257471469
17.564951999999998,6.7175195260126825,0.0772664665442535
17.568987999999997,6.711956993809479,0.0770062683784893
17.573023999999997,6.710991270881269,0.0767200820694571
17.577008,6.711144214627941,0.0764169371049222
17.581052,6.712083650349693,0.076116301176723
17.585099999999997,6.717841345146306,0.0757771332751029
17.589152,6.722701823067907,0.0754407053241159
17.593199999999996,6.734064268914461,0.0750650836817844
17.597251999999997,6.744750947685873,0.0746790478596785
17.601299999999995,6.756445568232233,0.0742857438538103
17.605339999999998,6.769480305253341,0.073865379815846
17.609384,6.781507100499506,0.0734553692508436
17.613428,6.792858128670527,0.073036360884731
17.617475999999996,6.797264289316855,0.0726816212715222
17.621471999999997,6.802789116638065,0.0723105000473122
17.625507999999996,6.807195277284395,0.0719555771955479
17.629551999999997,6.810814945955649,0.071597329951427
17.633604,6.817802032327078,0.0712406937738064
17.637648,6.828488711098489,0.070864365987206
17.641703999999997,6.840072606744912,0.0704863957427811
17.645759999999996,6.851435052591467,0.0701222508637477
17.649808,6.862576048638151,0.0697728951626302
17.653907999999994,6.8710253940598,0.069433918743937
17.658007999999995,6.878134623006698,0.0691233342224564
17.662056,6.883670868003441,0.0688054607677623
17.666103999999997,6.887412679250161,0.0684947769827687
17.670156,6.89586202467181,0.0681584443187899
17.674208,6.896912185293495,0.067856484669239
17.678204,6.899646054765268,0.0675548678933385
17.682303999999995,6.898348157137254,0.0672896085799956
17.686335999999997,6.89256417513418,0.0670374248998433
17.690315999999996,6.890590510431024,0.0667629526544606
17.6943,6.889181887903075,0.0665045543911444
17.698332,6.8905756409000976,0.0662312452105272
17.702363999999996,6.89477176942209,0.0659457433393564
17.706447999999995,6.900873056594041,0.0656493432598387
17.710532,6.909665994391027,0.0653465300157299
17.714616,6.9119569642630605,0.0650729421189432
17.718643999999998,6.913129267460215,0.0648147532921819
17.722676,6.909594036482438,0.0645798150161815
17.726712,6.903256429979691,0.0643571865427171
17.730804,6.896021606601932,0.0641370051740643
17.734899999999996,6.89237565072422,0.0639083549111063
17.738991999999996,6.891753520171349,0.0636548802205605
17.743088,6.893823040243512,0.0633948892650106
17.747124,6.895781835415742,0.0631413840222507
17.751155999999995,6.893930313288053,0.062909325845126
17.75524,6.898580759085317,0.062650018726622
17.759383999999997,6.904239146657529,0.0623833455962821
17.763475999999997,6.915047968004408,0.0620711574442107
17.767567999999997,6.928105540376585,0.0617771522189021
17.7716,6.93813928742392,0.0615091117542237
17.775692,6.948394484271126,0.0612293679528875
17.779728,6.96077628956816,0.0609292642496441
17.783868,6.967221169115448,0.0606704784318773
17.787955999999994,6.971982339812647,0.0604094994447769
17.792047999999994,6.974051859884812,0.0601541683783419
17.796188,6.981615406106981,0.0598824208296521
17.800272,6.989511127028955,0.0595930476514086
17.804415999999996,7.003122323900804,0.0592758004140929
17.808499999999995,7.021441054947583,0.0589388612272706
17.812639999999995,7.03606019359438,0.0586129615488134
17.816727999999998,7.0458610731663125,0.0583138676103746
17.820819999999998,7.055772677638181,0.0580112780342587
17.824908,7.064565615435167,0.0577230611488499
17.829,7.073580003032022,0.0574235604213434
17.833036,7.084499549278838,0.0571160432122133
17.837123999999996,7.092616720000682,0.0568194520125843
17.841212,7.0996152240476444,0.0565368743749566
17.845299999999995,7.100566077444927,0.0562977499994687
17.849387999999998,7.101627655742144,0.0560527247183966
17.853428,7.10201346696422,0.0557968343935038
17.857459999999996,7.103296495061307,0.0555404252400801
17.861492,7.100658480958543,0.0553062764473271
17.865531999999995,7.103060175730511,0.0550370605957836
17.869619999999998,7.105351145602545,0.0547733930888336
17.873647999999996,7.107642115474579,0.0545092914586686
17.877724,7.106344217846564,0.0542492488026624
17.881704,7.104824870418681,0.0540012167775485
17.88568,7.100281697665958,0.0537739182097985
17.88966,7.092038932513252,0.0535557954895339
17.893691999999994,7.08839297663554,0.0533268195053696
17.89772,7.086984354107592,0.0530720635232024
17.901759999999996,7.078852313854821,0.0528454742260689
17.905744,7.069147289651897,0.0526077683439204
17.909796,7.057315656999144,0.0523884659442714
17.913843999999997,7.045373299446457,0.052175294511285
17.917891999999995,7.0361225925188045,0.0519602642412375
17.921988,7.025188176741063,0.0517398508427529
17.926035999999996,7.018285528063109,0.0514926899972735
17.930135999999997,7.01171505408496,0.0512276952755201
