Time,Force,Position
40.370948,5.623034610942645,0.1441185005357442
40.375044,5.660274820093401,0.1434739024104534
40.379076,5.688187850443169,0.142917497909033
40.383108,5.7077816437668965,0.142414523194091
40.387192,5.723664427015109,0.1419338569765138
40.391236,5.733155967238303,0.1415730579735929
40.395324,5.748695158111177,0.1410745350848646
40.399404,5.765242290758998,0.1405500072744987
40.403436,5.782575915381896,0.1400236270507942
40.407464,5.79486983113006,0.1396141388150149
40.411544,5.810863339278207,0.1391405939768243
40.415624,5.825283863476199,0.1386763653379472
40.419704,5.837909953924168,0.1382413345745946
40.423792,5.849749552397061,0.1378110241864769
40.427884,5.861810600669822,0.1373654764979396
40.431972,5.873871648942584,0.1369243690932891
40.436052,5.883019596790439,0.1365459590181097
40.44014,5.892621861913569,0.1361897740913852
40.44422,5.903907835886786,0.1358172275717568
40.448304,5.912280709435098,0.1355037172614513
40.452392,5.9230016412331095,0.135120799064697
40.456472,5.933833297931054,0.134730425457729
40.460552,5.941297536928823,0.1343753115504581
40.464636,5.946070125301555,0.134059201736581
40.468712,5.949159004824199,0.1337629424276994
40.472796,5.949888408421611,0.1334796646981755
40.476872,5.942886452519255,0.1333462157377803
40.480948,5.937678930366922,0.1331859817275731
40.485032,5.929669032689619,0.1330735981746314
40.489116,5.928382552737139,0.1328348261930634
40.493204,5.9259774061097765,0.1326271222821965
40.49728399999999,5.927161126982463,0.1323681207078357
40.501372,5.930471456304975,0.1320584785655748
40.505404,5.933892510527423,0.1317395663508399
40.50948399999999,5.935740580799717,0.1314297280001571
40.513564,5.934442683171703,0.131136938351416
40.517648,5.933366235343559,0.1308273850328079
40.521736,5.931048978265066,0.1305007244590868
40.525824,5.924467086611384,0.1302191772888919
40.52992,5.919225311432452,0.1298909371737068
40.534012,5.910283943853539,0.1296199344537406
40.538108,5.90145330117456,0.1293399588166935
40.542208,5.898338134445457,0.1289610213145123
40.546304,5.901835660541241,0.1284731548399482
40.5504,5.908357011961867,0.1279284857415009
40.554492,5.918688680682408,0.1273195896313484
40.558528,5.934957275152694,0.126597087952203
40.562612,5.951668769222721,0.1258471170736349
40.566644,5.971293363717653,0.1250464844479488
40.57068,5.985756106762382,0.1243051155405944
40.574724,5.998867315656829,0.1235561756064315
40.57882,6.010626990400992,0.1228020538990551
40.582852,6.017900580770094,0.1221015925302395
40.586944,6.028530171163844,0.1213232350082962
40.591032,6.040389153132406,0.1205116007835691
40.595068,6.057742161250977,0.1196346067103122
40.59916,6.075538068969285,0.1187294258842381
40.603204,6.092547484712519,0.1178253207097539
40.607252,6.1144858844305485,0.1168397210131685
40.6113,6.135637792173503,0.1158587592986979
40.615396,6.160932191916179,0.1147984471383098
40.619424,6.1835349410338205,0.113766901037412
40.623424,6.200754388901389,0.1128002478197126
40.627456,6.209788159993916,0.1119323029832938
40.63148,6.210414804511534,0.1111746126764766
40.635512,6.209247015279128,0.1104376556667764
40.639496,6.203593141671663,0.1097484145184048
40.643548,6.197152776089119,0.1090622095582196
40.6476,6.189139426556422,0.1083790782010977
40.651696,6.180793902323922,0.1077162077003134
40.65568,6.1744642616413135,0.1070198958543232
40.659736,6.166340187208682,0.1063400100351906
40.663784,6.165726022475949,0.1055670521468768
40.667832,6.1601828737684174,0.1048687048051254
40.671812,6.157220650785987,0.1041565055142369
40.67586,6.148542951853681,0.1035192585554643
40.679836,6.140430295096584,0.1028976785840657
40.68382,6.135120013864456,0.1022440691139026
40.687848,6.12599941533241,0.1016372956353637
40.691844,6.119902642125206,0.1009859406304639
40.69588,6.112576477343183,0.1003657983716511
40.699912,6.108949904961144,0.099707367128769
40.703952,6.109133649879022,0.0990040437689784
40.707936,6.113016987196882,0.098259082940368
40.711976,6.122837250264487,0.0974277450918156
40.716008,6.136578555531943,0.0965515104039628
40.719992,6.154019453199382,0.0956402528729757
40.724028,6.170230959292005,0.0947609774139158
40.728056,6.1873396822596405,0.0938776513480238
40.732084,6.20758295545205,0.0929464931585808
40.736116,6.224470228619815,0.0920823588056983
40.740152,6.241025327087775,0.0912380749588808
40.74418,6.251864949605858,0.0904610302001574
40.748208,6.266293439623992,0.0896582926373679
40.752244,6.276800887442271,0.0889078247318139
40.756272,6.28752978506042,0.0881399149086868
40.76032,6.294669815178522,0.0873960977073045
40.764252,6.30450149592166,0.0866429158149555
40.76826,6.316914102389898,0.0858806751597762
40.772292,6.328208042183255,0.0851459115999241
40.776292,6.3375968233266535,0.0844294211378402
40.78034,6.345191170720027,0.0837260550461643
40.784264,6.351556126538587,0.083052726469672
40.7883,6.361731399657062,0.0823490973470696
40.792328,6.370345106500915,0.0816942182417728
40.79632,6.375824263119995,0.081087322328046
40.800296,6.382311361514022,0.0804736182299385
40.80424,6.390703618558006,0.0798454502700895
40.808276,6.396969267152162,0.0792469563227986
40.812312,6.403124190846383,0.0786592817673197
40.816348,6.409500564340474,0.0780553640431681
40.820384,6.421813863584312,0.0773956915911132
40.82442,6.434348612628018,0.0767207176792916
40.828452,6.447215536371528,0.0760300011194439
40.832484,6.457501534389937,0.0753409557801739
40.836512,6.466890315533336,0.0746529966894174
40.840552,6.478294980226628,0.073941577194329
40.84464,6.4811817934450735,0.0732927899341885
40.84868,6.483503564488312,0.0726295752447801
40.852708,6.482015018231634,0.0719938451900204
40.856736,6.480415747075021,0.0713621078418958
40.86082,6.481840301243248,0.070701762340859
40.86486,6.48337558031141,0.0700357625212994
40.868888,6.481100542079655,0.0693993775135442
40.872936,6.480054895422716,0.0687393325719334
40.876976,6.475309656365796,0.068095334264912
40.881008,6.467651316883969,0.067475193061087
40.885048,6.454388226352202,0.0668826230781964
40.889092,6.444148961145276,0.0662603435373123
40.893096,6.43200453728839,0.0656501272833841
40.897092,6.421875996981397,0.0650194574477162
40.90114,6.404016097174637,0.0644420846053627
40.90518,6.389634339967986,0.0638610092243187
40.909228,6.373236699211446,0.0632971359937124
40.913276,6.361546592629833,0.0627061895621854
40.917268,6.354342570423277,0.0621038262413728
40.921264,6.347814315291867,0.0615121951588903
40.9253,6.347222985910201,0.0608727135795262
40.929224,6.344505048078705,0.0602562349112262
40.933272,6.3434708190973,0.0596399126665196
40.937324,6.344341748765853,0.0590123505569697
40.941372,6.341967403309696,0.0584250700121376
40.945428,6.338585116078591,0.0578458436459584
40.949476,6.336775812797641,0.0572773850680739
40.953524,6.3368716681666495,0.0567020731849411
40.957572,6.336856798635724,0.0561273952672239
40.96162,6.337406971280004,0.0555711652182983
40.965668,6.34625354559926,0.0549906351146489
40.969712,6.352076294593677,0.0544342878852479
40.973744,6.357566868888289,0.0538972610400082
40.977736,6.363622485358109,0.0533810671274884
40.981836,6.375061403077999,0.0528585473606363
40.985828,6.382579278598038,0.0523607692317326
40.989872,6.389654254518336,0.0518888240888483
40.993872,6.392586738438912,0.051452551179283
40.997916,6.388685079734732,0.0510529066075414
41.001972,6.384340521430813,0.0506796805059744
41.00592,6.378545121752207,0.0503404741469045
41.009972,6.374998473098898,0.0500253123054976
41.013964,6.370333157770707,0.049722540938149
41.017908,6.362644017117677,0.0494396817613227
41.021888,6.353725484889829,0.0491757920479854
