Time,Force,Position
3.9884679999999992,0.004846710830783748,0.0
3.990812,0.008283926109033434,0.0
3.99316,0.01465440769347829,0.0
3.995504,0.022942349932866115,0.0
3.997843999999999,0.03252563707722656,0.0
4.000188,0.045321729781502604,0.0
4.002535999999999,0.056255491366222,0.0
4.004875999999999,0.06732902257780161,0.0
4.00722,0.07817814407104715,0.0
4.009563999999999,0.08581446000437706,0.0
4.011904,0.09674822158909646,0.0
4.014251999999999,0.1095443142933725,0.0
4.016591999999999,0.12341134218428707,0.0
4.018948,0.13755790932892203,0.0
4.021288,0.14998191498086064,0.0
4.023631999999999,0.16841222287204974,0.0
4.025983999999999,0.1857715955766003,0.0
4.028328,0.20112886753473405,0.0
4.030676,0.21648613949286777,0.0
4.033016,0.22975667061311078,0.0
4.035359999999999,0.24088533136007673,0.0
4.037699999999999,0.2467990858007102,0.0
4.040044,0.24884840837537026,0.0
4.042387999999999,0.2476849253901147,0.0
4.044736,0.24503119833763998,0.0
4.047075999999999,0.23702279535197254,0.0
4.049424,0.23073695385900156,0.0
4.05176,0.22417157311231017,0.0
4.054103999999999,0.2188168971791175,0.0
4.056455999999999,0.21453315643256335,0.0
4.058792,0.2102494156860092,0.0
4.061131999999999,0.20424311344675863,0.0
4.063476,0.19716587602086955,0.0
4.065823999999999,0.19074026490103835,0.0
4.068168,0.1846867408335446,0.0
4.070511999999999,0.16862271303396667,0.0
4.072863999999999,0.15362962042102732,0.0
4.075192,0.139427923741006,0.0
4.077536,0.12407065178287227,0.0
4.079879999999999,0.10964454538451684,0.0
4.082231999999999,0.09722053973257827,0.0
4.084567999999999,0.08902514529180752,0.0
4.086912,0.08068998122417653,0.0
4.089264,0.07356552197004429,0.0
4.091604,0.0666359618781586,0.0
4.093947999999999,0.062212451504744255,0.0
4.096288,0.058068480385050344,0.0
4.098628,0.05356032992016213,0.0
4.100963999999999,0.047981244268635384,0.0
4.103308,0.04240215861710864,0.0
4.105656,0.03575213777894336,0.0
4.107999999999999,0.028962347313917877,0.0
4.110344,0.02217255684889239,0.0
4.112684,0.014451600824088579,0.0
4.115027999999999,0.008081119239643721,0.0
4.117372,0.005714839148032566,0.0
4.119719999999999,0.003348559056421411,0.0
4.122071999999999,0.002192983778308998,0.0
4.124412,0.003069019802700991,0.0
4.126756,0.0030690198027009913,0.0
4.129099999999999,0.004736451760011094,0.0
4.131447999999999,0.00358087648189868,0.0
4.133787999999999,0.0034962363904247973,0.0
4.1361360000000005,0.0034115962989509146,0.0
4.138484,0.0034115962989509146,0.0
4.140832,0.003047416953756611,0.0
4.143176,0.0025434679817020966,0.0
4.145519999999999,0.00435066956587241,0.0
4.147867999999999,0.008299741523319786,0.0
4.150212,0.009175777547711778,0.0
4.152555999999999,0.00917577754771178,0.0
4.154904,0.009632504691523143,0.0
4.15724,0.009632504691523143,0.0
4.159583999999999,0.009632504691523143,0.0
4.16194,0.010229001462194715,0.0
4.164284,0.012967368606143347,0.0
4.166627999999999,0.012967368606143347,0.0
4.168972,0.014774570190313661,0.0
4.17132,0.01389853416592167,0.0
4.173655999999999,0.01389853416592167,0.0
4.176,0.01310713823300356,0.0
4.178352,0.015985275003812402,0.0
4.1806920000000005,0.02100528214789831,0.0
4.183036,0.02495435410534568,0.0
4.18538,0.02704109494323642,0.0
4.187716,0.02704109494323642,0.0
4.190056,0.029127835781127154,0.0
4.192399999999999,0.027320634196956836,0.0
4.19474,0.02337156223950946,0.0
4.197084,0.02258016630659135,0.0
4.1994240000000005,0.024666907144482084,0.0
4.201768,0.02421018000067072,0.0
4.20412,0.02671622971914209,0.0
4.206464,0.02671622971914209,0.0
4.208812,0.027554847480303356,0.0
4.21116,0.027182760427965875,0.0
4.213504,0.030480206079355355,0.0
4.215847999999999,0.033181154960073254,0.0
4.218192,0.038620470984739794,0.0
4.220532,0.044990952569184645,0.0
4.222868,0.05062516775609772,0.0
4.225216,0.054397051823454154,0.0
4.227563999999999,0.05695823107731185,0.0
4.229908,0.059659179958029745,0.0
4.232251999999999,0.06636433033158136,0.0
4.234596,0.07836902710293929,0.0
4.236948,0.0892181485961848,0.0
4.239288,0.1032249461139596,0.0
4.241631999999999,0.1144382469523994,0.0
4.243983999999999,0.12356480695294848,0.0
4.246319999999999,0.1289667047143843,0.0
4.248664,0.13924883999304583,0.0
4.251011999999999,0.14288095443354204,0.0
4.253356,0.15102121933892648,0.0
4.255699999999999,0.15651566489897936,0.0
4.258044,0.16014777933947558,0.0
4.260392,0.16578199452638864,0.0
4.262727999999999,0.16927433934002462,0.0
4.265072,0.17183551859388232,0.0
4.267415999999999,0.1697408700488484,0.0
4.269752,0.16643551669031575,0.0
4.2721,0.15991735777186752,0.0
4.274443999999999,0.1523361713739239,0.0
4.2767800000000005,0.14568615053575865,0.0
4.279119999999999,0.13689425932431631,0.0
4.281464,0.12488956255295837,0.0
4.283811999999999,0.1119537002218221,0.0
4.286156,0.09794690270404732,0.0
4.288499999999999,0.08673360186560751,0.0
4.290839999999999,0.07752240177358453,0.0
4.293192,0.070033763174258,0.0
4.295527999999999,0.0597516278955965,0.0
4.297872,0.05361346373662892,0.0
4.300224,0.045473198831244475,0.0
4.302567999999999,0.03854363873935878,0.0
4.304916,0.032545244207251404,0.0
4.307259999999999,0.023613583368948855,0.0
4.309607999999999,0.015613088090424625,0.0
4.311947999999999,0.007612592811900396,0.0
4.314295999999999,0.0033367597724894504,0.0
4.316644,0.00013186191971703416,0.0
4.318999999999999,0.0,0.0
4.321344,0.0,0.0
4.323687999999999,0.0,0.0
4.326039999999999,0.0,0.0
4.328388,0.0,0.0
4.330731999999999,0.0,0.0
4.333084,0.0,0.0
4.335419999999999,0.003100974906939889,0.0
4.337764,0.024075399331163514,0.0
4.340123999999999,0.06562422215338877,0.0123706519341777
4.342468,0.12798165665696212,0.02242953898684772
4.344811999999999,0.1962490538854305,0.03275334037968791
4.347156,0.27587363757060357,0.0427680653350689
4.349496,0.37025330886963126,0.05247991114340726
4.351832,0.48492783931294,0.06175289555010634
4.354172,0.6208756162885515,0.07056648956466506
4.35652,0.7767008393857328,0.07896831226710928
4.35886,0.9427197659543631,0.0873338985954054
4.361203999999999,1.1111563104342523,0.09605067029385064
4.363548,1.289272805848524,0.10492894188755776
4.365888,1.4831681022350454,0.11377530050490799
4.368228,1.7003387459002863,0.122307015167035
4.3705680000000005,1.9372470660602368,0.13060378605398296
4.372912,2.189796313423446,0.13876184011699552
4.375247999999999,2.457055322430136,0.14681699904307324
4.377592,2.7400950282669445,0.1547517212760138
4.379935999999999,3.0342142771646072,0.1625751638790438
4.382284,3.334311889327636,0.170202436790936
4.38462,3.619331444510584,0.1776483488575968
4.386963999999999,3.8729765974883987,0.17279750905060623
4.389315999999999,4.099155210239556,0.17038370168325503
4.391655999999999,4.32105197810203,0.1677811968801566
4.394,4.53829481402348,0.16545018770113226
4.396343999999999,4.743995367890992,0.1633450334140787
4.3986920000000005,4.92297734735226,0.1616952377375434
4.401028,5.071049559459348,0.16060295751969655
4.403376,5.18443822428703,0.1602607671969624
4.405728,5.288190368292835,0.16006434145436657
4.408071999999999,5.400232350395897,0.15936928549019752
4.410416,5.508740453430686,0.15836361830815193
4.4127600000000005,5.597048140977682,0.15736700173682547
4.415099999999999,5.645506492625052,0.15696363290574494
4.417436,5.658909209940677,0.15717037336508363
4.419784,5.65126910229161,0.15775064277374654
4.422127999999999,5.634459004529488,0.1583506905361881
4.424472,5.608293821057077,0.158866914429312
4.426815999999999,5.571283307807161,0.15936966192003924
4.429155999999999,5.511924821122564,0.1603492504498969
4.4315,5.4416227692882355,0.16176820554855542
4.43384,5.384028378350971,0.1631731679633845
4.436188,5.339283313795499,0.16436256157213686
4.438535999999999,5.304131339949401,0.1651364148650093
4.440875999999999,5.261159850430607,0.16587805422556592
4.443216,5.209435783821471,0.16677355400619065
4.445568,5.165857993966992,0.16761868372803035
4.447911999999999,5.133172755718265,0.16842480569101345
4.450248,5.123766656463996,0.16873991450076267
4.452591999999999,5.119158050493348,0.16878626199604257
4.454939999999999,5.10216664884973,0.16895498738677384
4.457279999999999,5.0766549875412466,0.1693020091148761
4.459624,5.055517718920066,0.16972774912243083
4.461971999999999,5.060870498995389,0.16972769444607994
4.464304,5.094949641796981,0.16911105285859757
4.46664,5.142019776465094,0.16810993424375148
4.468983999999999,5.1835973614310245,0.16714207637684403
4.471332,5.212231176358675,0.16649923383077583
4.473671999999999,5.234856793189206,0.16615126802339428
4.476016,5.277501521626037,0.16542681624631914
4.478372,5.329737444914369,0.16443816825890847
4.480708,5.385839695926546,0.1632262434561075
4.483051999999999,5.434214979064644,0.16206959302719193
4.485396,5.460055297312961,0.16147223179769893
4.4877400000000005,5.484031388583852,0.1610624999345631
4.490072,5.520297727729094,0.16047860335123937
4.492416,5.560148959486589,0.15984162521477566
4.494764,5.601445109340928,0.15905347415327042
4.497104,5.633244508000251,0.1583947144451853
4.499447999999999,5.661831101099658,0.15784249634210512
4.501792,5.696609092035549,0.15724247629726412
4.504132,5.738417098569088,0.15653346564441872
4.506475999999999,5.782833506184726,0.1556922816963873
4.508816,5.813656413313898,0.15501224914527173
4.511168,5.8251118351428275,0.154647727582018
4.513515999999999,5.828186766933753,0.1544396882068691
4.515855999999999,5.831446794321912,0.1543120763653249
4.5182,5.848022678800688,0.15393402623036273
4.520552,5.876658389586209,0.15325014255547587
4.522884,5.898590845856046,0.15261493486537522
4.525231999999999,5.918428653580849,0.15198290262578754
4.52758,5.9299312972380225,0.1515883908479745
4.529923999999999,5.9484167346645975,0.15114920887741973
4.532268,5.985432935488121,0.15034800883070987
4.534611999999999,6.028410112580523,0.14933436592638483
4.536947999999999,6.05974866810463,0.14845693384171021
4.539287999999999,6.081123941724896,0.14773589327311526
4.5416360000000005,6.102591763143779,0.14706499903318565
4.54398,6.132160535346947,0.14628904028430048
4.54632,6.156282083818304,0.1455937126635105
4.548667999999999,6.175515487065294,0.14495085978550082
4.551012,6.189301666580471,0.14439272742144754
4.553352,6.203040624267407,0.14388785039240218
4.555688,6.226044015723883,0.14329106917445325
4.55804,6.259150458711061,0.14254545642494862
4.560392,6.290813879459263,0.14179794897377943
4.562728,6.3252254709164255,0.14093064800927282
4.565071999999999,6.3529791338282795,0.1401850142037027
4.567423999999999,6.374307185620303,0.13958310960777495
4.569768,6.395588015584082,0.13902834364876196
4.572104,6.419150485547998,0.13842462217011686
4.574448,6.445041817340296,0.13771886102810793
4.5768,6.460830097601892,0.13715290635161126
4.579143999999999,6.469913227489935,0.13674106579574163
4.581488,6.4774588914825175,0.1364236685497455
4.583836,6.4954796940581385,0.1359956820537869
4.586179999999999,6.51978633812673,0.1354473376493914
4.588519999999999,6.537714592903734,0.1349797044220628
4.590864,6.544421639135156,0.13471225580758586
4.593204,6.557879161710502,0.13438475891015172
4.59554,6.571848540965046,0.13406970112694924
4.597883999999999,6.587168394659948,0.13371797523501563
4.600232,6.597320563876763,0.13341696681705922
4.602575999999999,6.601885739734906,0.13319390208997348
4.60492,6.600816700406137,0.13308974076193963
4.607263999999999,6.606777676675013,0.13291289542311427
4.609603999999999,6.607616294436174,0.13286489885984903
4.611943999999999,6.606313041824058,0.13285701750874349
4.614288,6.608362364398718,0.13278120194008308
4.616628,6.611203082906296,0.13270149305262788
4.618967999999999,6.616138449958909,0.13262707035315865
4.621312,6.621585673690719,0.1325649279567137
4.623656,6.631968264475141,0.13242709373196304
4.625995999999999,6.641187372274307,0.1322730565953214
4.628352,6.648172061901579,0.13212284200659571
4.630696,6.646776261490846,0.13207907666602745
4.633039999999999,6.644681612945813,0.1320745867007213
4.635384,6.648313727386308,0.1319925749418972
4.637724,6.654227481826943,0.13186173663121092
4.640067999999999,6.654973551789487,0.13177834654401094
4.642412,6.658513118431365,0.13166039480676386
4.644748,6.6633559376853615,0.13155143879364778
4.647096,6.672063188805329,0.1313880760795181
4.649448,6.681189748805879,0.13120156130332675
4.651792,6.695159128060424,0.13090731136089734
4.654131999999999,6.703261974702577,0.13069932882707075
4.656476,6.715508792464425,0.13042240120471105
4.658828,6.733110286159465,0.13005130830233366
4.661168,6.745496873548173,0.1297688048585898
4.66352,6.760165100937018,0.12944358440579015
4.665872,6.768035630153695,0.1292116586487403
4.668208,6.777488951236206,0.12897415528308956
4.670548,6.788664833811416,0.1287238380541906
4.672896,6.799561177132905,0.12848808916439092
4.675236,6.813251017133728,0.12822047654202645
4.677572,6.831596684933444,0.12789759113515192
4.679912,6.851153057546658,0.12755142910187567
4.682259999999999,6.869638494973235,0.12722668435718223
4.684604,6.890265802773085,0.1268644218303341
4.686947999999999,6.914478003185192,0.12646705400417155
4.689295999999999,6.934965541358184,0.12611482760519055
4.69164,6.953590748411618,0.1257853586701014
4.693984,6.975009452144389,0.1254293426864862
4.696327999999999,6.997871178116136,0.1250773536499727
4.698672,7.019522199274383,0.124755939337311
4.701008,7.044246256365686,0.12439038526753532
4.703348,7.067247751964293,0.12404019764610212
4.705703999999999,7.083032240510152,0.12379636882930445
4.708043999999999,7.100167203496366,0.1235191614226503
4.710388,7.111435633870194,0.12331707678718047
4.712731999999999,7.129269444990712,0.12300457235978146
4.71508,7.143378593872115,0.12273199358994953
4.717416,7.154554476447324,0.12249725384334473
4.719759999999999,7.168011999022671,0.12222140038419574
4.722111999999999,7.175882528239347,0.12200439468161282
4.724459999999999,7.183241200776825,0.12177704184594433
4.726804,7.184593571075053,0.12162985690080505
4.729148,7.183152444693945,0.1215120843177472
4.731491999999999,7.181571548685978,0.12140158956595083
4.733827999999999,7.175474594505981,0.12133284225750987
4.736176,7.1684464747662044,0.12127385986967383
4.738527999999999,7.158764627973953,0.12123740113260345
4.740879999999999,7.142285083009533,0.1212845995100261
4.743224,7.121289479873082,0.12137421943008952
4.7455680000000005,7.093356408937601,0.12155696977950811
4.747952,7.0638405461362845,0.12174231015576675
4.750356,7.036187014454526,0.12190532471059355
4.752768,7.013329080198519,0.12201365963052577
4.755151999999999,6.992985103368125,0.1221060971987482
4.757548,6.976645328030565,0.12214479995503184
4.759952,6.956673438252509,0.12225481130488638
4.762336,6.942428311459983,0.12229845672478797
4.764735999999999,6.928322954294316,0.12233518981913949
4.767128,6.91393805787493,0.12238529266728441
4.769523999999999,6.906490629254572,0.12234614498970703
4.77192,6.894899229514522,0.12236698279149373
4.774312,6.888243196827082,0.12232548338662992
4.776707999999999,6.885311826378756,0.12224528368226785
4.779104,6.882380455930431,0.1221650552797414
4.781492,6.884104913280995,0.1220366091394208
4.783887999999999,6.887412162497399,0.12190299980754556
4.786284,6.897237570632248,0.12170230913006758
4.788668,6.9109274106330725,0.12145494046890258
4.791064,6.926339812126592,0.12119346410367764
4.793467999999999,6.948829451046001,0.12083230141654609
4.795852,6.973041651458106,0.12046213814664973
4.798235999999999,6.991107780004102,0.12017849395688804
4.800632,7.010803922244175,0.11985177478835898
4.803016,7.028265646312355,0.11952642482527637
4.805396,7.042794104074339,0.11923711279682912
4.807803999999999,7.059743971463322,0.11890137349353305
4.810188,7.073248715866913,0.1185922333772898
4.812567999999999,7.088755561016919,0.11825788780095393
4.814964,7.103471010234007,0.1179269326480537
4.817352,7.116696215383876,0.11763743648205913
4.819747999999999,7.134856787586358,0.11728812118087008
4.822148,7.153948525348618,0.11693235843459326
4.824532,7.174250967924374,0.11655823940200356
4.826912,7.197626446433188,0.11614722553908094
4.829316,7.219419133076165,0.11574247238101891
4.831704,7.244704164532778,0.11528071625159318
4.834083999999999,7.265473137817359,0.11485804171912321
4.836487999999999,7.2875925855423,0.11441026218191547
4.838875999999999,7.314135543640655,0.11389858451610668
4.841256,7.337325926552235,0.11344027312428273
4.843651999999999,7.355580942411202,0.1130363133012092
4.84604,7.383334605323056,0.11250660563051776
4.848419999999999,7.407456153794414,0.11204400264318227
4.850816,7.433020724504748,0.11158699234441646
4.853208,7.46645392857389,0.11105143257447715
4.855587999999999,7.49509153521728,0.11056307204985191
4.857984,7.523449602606948,0.11008941823311676
4.860372,7.554880705929672,0.1095858590815657
4.862752,7.586172039625535,0.1090899981706666
4.865155999999999,7.612807545522508,0.10863169450936783
4.867543999999999,7.636370015486425,0.10821096984088305
4.869923999999999,7.660351794330923,0.10777507567238474
4.87232,7.681540076496087,0.10736542095513413
4.874708,7.697653221981776,0.10701339848643118
4.877087999999999,7.717770568960301,0.1066236412911833
4.879484,7.73374394481913,0.10628403779789175
4.881872,7.74971732067796,0.10594409325131368
4.884252,7.759404855043819,0.10567833124053536
4.886652,7.764529109409404,0.10548028582244978
4.88904,7.772354312655707,0.10523038962661789
4.89142,7.781390220715507,0.10495896070845405
4.893815999999999,7.782138186535922,0.10478317452426694
4.896203999999999,7.781303360490499,0.10460779758468058
4.898584,7.780608304071935,0.10442652926990911
4.900979999999999,7.7720446142945665,0.10432022371279634
4.903368,7.768136752316087,0.1041793903202868
4.905764,7.763437494404691,0.1040389151158173
4.908159999999999,7.750590063880767,0.10398456835414568
4.910548,7.739884503730122,0.10390364870330478
4.912932,7.7322519795125295,0.10378958923087045
4.915327999999999,7.729042965668352,0.10361719505162716
4.917716,7.724623247010677,0.10346447379175201
4.920095999999999,7.716990722793086,0.10334997638108769
4.922495999999999,7.7144333352549666,0.1031837478215381
4.92488,7.703588005477459,0.1031074212277964
4.927263999999999,7.693673841259732,0.10302439989434004
4.92966,7.684411303348061,0.10294719571205146
4.932048,7.678361570996306,0.10283112380128336
4.9344280000000005,7.674873017898408,0.10267034541840803
4.936824,7.669614681479571,0.10255389638668476
4.939212,7.667149841740068,0.1024177050245153
4.941595999999999,7.66733872905304,0.10226764526332496
4.943992,7.674185544911321,0.10206580814814835
4.94638,7.679030260023185,0.10188355120708761
4.94876,7.686668471814384,0.10168164389280476
4.95116,7.691373417299388,0.10150601443251961
4.953543999999999,7.698732089836868,0.10131781311170261
4.955924,7.714238934986875,0.1010474051369615
4.958319999999999,7.726672744203825,0.10080968394561551
4.960711999999999,7.741108654167194,0.10055467075982095
4.963108,7.750189888197367,0.10036291219781912
4.965503999999999,7.757129251854266,0.10019612467897415
4.967891999999999,7.7690039825637776,0.09998587373454186
4.970276,7.777945446967091,0.09980180830686396
4.972671999999999,7.793964148796295,0.09955023506899521
4.975059999999999,7.809051685065721,0.09930470000105956
4.977444,7.824418760588866,0.0990471937772779
4.979844,7.845372829470683,0.09875593848546066
4.982232,7.86497642391214,0.098490490124857
4.984615999999999,7.885139096861037,0.0982010991965425
4.987007999999999,7.905162000183076,0.09791937345025374
4.989391999999999,7.928537478691889,0.09759782772070325
4.991771999999999,7.948467834215309,0.09729083516804343
4.994176,7.96839818973873,0.09698324492401199
4.996559999999999,7.9835329478364,0.09670924480734774
4.998939999999999,7.9995988714938475,0.09642936864546309
5.001332,8.01315083772568,0.09615577784772346
5.00372,8.017623465785206,0.09596361119355608
5.0061160000000005,8.021164928284955,0.09577653074272864
5.008516,8.023775225224925,0.0955961782055445
5.010904,8.031320889217508,0.0953761591961362
5.013283999999999,8.042079358770005,0.09512211700886658
5.015687999999999,8.049904562016307,0.09489138749126513
5.018072,8.060802801195665,0.09463402126808183
