Time,Force,Position
4.091256,0.13646976702917915,0.0
4.093604000000001,0.14084605557435032,0.0
4.095940000000001,0.14694490561221793,0.0
4.098284,0.15825866195641797,0.0
4.100628,0.16743054792734097,0.0
4.102976,0.17422824609950963,0.0
4.105320000000001,0.18367967132415305,0.0
4.107660000000001,0.19313109654879648,0.0
4.1100080000000005,0.199881572892722,0.0
4.112344,0.2059804229305896,0.0
4.1146840000000005,0.2045827266619875,0.0
4.117036000000001,0.20653760558016124,0.0
4.11938,0.21263645561802885,0.0
4.12172,0.21822344897669876,0.0
4.124064000000001,0.212077377110588,0.0
4.126412,0.20141524707244582,0.0
4.128748,0.18931009479532762,0.0
4.131092000000001,0.18386287106351792,0.0
4.133448,0.17934681289148655,0.0
4.135796000000001,0.1777640210256503,0.0
4.13814,0.1776714732270333,0.0
4.140484000000001,0.17357472393558254,0.0
4.142836000000001,0.16789518277829554,0.0
4.1451720000000005,0.15979423199401108,0.0
4.14752,0.1523449075157845,0.0
4.149864000000001,0.1436848782240592,0.0
4.152203999999999,0.13223135225299898,0.0
4.154548,0.1258529629614109,0.0
4.156892000000001,0.12082504811018183,0.0
4.159228000000001,0.11765946437850938,0.0
4.161572,0.11970878695316939,0.0
4.163920000000001,0.118685073594774,0.0
4.166271999999999,0.11244645393004618,0.0
4.168616,0.10872179169093289,0.0
4.170956,0.10951318762385101,0.0
4.173299999999999,0.11253900172866324,0.0
4.175648000000001,0.1211518091921454,0.0
4.177988000000001,0.1264592632970949,0.0
4.1803360000000005,0.1320462566557648,0.0
4.182684,0.13456021408137936,0.0
4.18502,0.13372159632021807,0.0
4.1873640000000005,0.1359560144921122,0.0
4.189704000000001,0.13898182859692443,0.0
4.192044000000001,0.1392141460224017,0.0
4.194380000000001,0.1389346067686813,0.0
4.196728,0.14386997382129332,0.0
4.199076,0.14559253531398975,0.0
4.201412,0.13941850176296344,0.0
4.203756,0.13324446821193717,0.0
4.206099999999999,0.12599949947427233,0.0
4.208448000000001,0.11675242999019066,0.0
4.210796,0.10843652606588731,0.0
4.213140000000001,0.10226249251486103,0.0
4.215484,0.09529706303091663,0.0
4.21782,0.08861117280069265,0.0
4.2201640000000005,0.0823445914510493,0.0
4.222519999999999,0.07221357823543247,0.0
4.224852,0.06259442169901332,0.0
4.227208000000001,0.052835495535733946,0.0
4.229547999999999,0.044147504559093116,0.0
4.231892,0.03893259825276067,0.0
4.234232,0.03131554246275837,0.0
4.236576,0.02369848667275607,0.0
4.238924000000001,0.01808353162917062,0.0
4.241268,0.014311647561814187,0.0
4.243612000000001,0.006275282891231252,0.0
4.245956,0.0052968955032097805,0.0
4.248291999999999,0.00835067129293754,0.0
4.250628000000001,0.014617252642580889,0.0
4.252972,0.020883833992224238,0.0
4.2553160000000005,0.027290184968727798,0.0
4.257656000000001,0.03155466557195429,0.0
4.26,0.03367727580190373,0.0
4.26234,0.03729013009907233,0.0
4.264692,0.03769017883632534,0.0
4.267028,0.039300932387077096,0.0
4.269375999999999,0.04105145556468905,0.0
4.271716,0.04105145556468905,0.0
4.274068,0.04105145556468905,0.0
4.2764120000000005,0.04105145556468905,0.0
4.278756,0.03972024126765772,0.0
4.281096,0.03972024126765772,0.0
4.283432,0.03988797257943346,0.0
4.285780000000001,0.0401954735180694,0.0
4.288128,0.039451299413394446,0.0
4.2904800000000005,0.04068996591180871,0.0
4.292824,0.03901462624735544,0.0
4.295168,0.03719951695604194,0.0
4.297516,0.031100666918174327,0.0
4.299856,0.024834085568530975,0.0
4.302204,0.01842773459202742,0.0
4.304539999999999,0.015122381233494768,0.0
4.30688,0.013958898248239177,0.0
4.309224,0.010346043951070577,0.0
4.311564000000001,0.010625583204790998,0.0
4.313908,0.00901482965403925,0.0
4.316248,0.0072643064764272925,0.0
4.318595999999999,0.0072643064764272925,0.0
4.320944000000001,0.0072643064764272925,0.0
4.3232800000000005,0.008315981519738199,0.0
4.325624,0.008315981519738199,0.0
4.327976,0.008315981519738199,0.0
4.330316,0.008148250207962462,0.0
4.332660000000001,0.007840749269326515,0.0
4.335004,0.007533248330690567,0.0
4.337352000000001,0.0062945818322763,0.0
4.339691999999999,0.005055915333862032,0.0
4.342036,0.0038172488354477653,0.0
4.344392000000001,0.003649517523672028,0.0
4.346728000000001,0.003649517523672028,0.0
4.349068000000001,0.003649517523672028,0.0
4.351412,0.002690390278978181,0.0
4.353756000000001,0.0017312630342843336,0.0
4.356092,0.0029227077044554507,0.0
4.358435999999999,0.003574334010513351,0.0
4.36078,0.007838814613739848,0.0
4.36312,0.008890489657050756,0.0
4.365463999999999,0.011152869513860403,0.0
4.367808,0.011692687877973621,0.0
4.370156,0.010641012834662714,0.0
4.372491999999999,0.01146037045249635,0.0
4.374836,0.01535276400338537,0.0
4.377188,0.0200365534871925,0.0
4.379536,0.020716141478165924,0.0
4.381880000000001,0.024328995775334525,0.0
4.384224,0.0270106845127248,0.0
4.386571999999999,0.03155470436967172,0.0
4.388908000000001,0.037961055346175276,0.0
4.391260000000001,0.045158802255596944,0.0
4.393608,0.05235654916501861,0.0
4.395963999999999,0.05741242570116322,0.0
4.398308,0.06032643186403078,0.0
4.400648,0.06417160358667665,0.0
4.4030000000000005,0.06468346026587433,0.0
4.405340000000001,0.06335224596884301,0.0
4.407684,0.05908776536561652,0.0
4.410036,0.058036090322305604,0.0
4.412383999999999,0.05577371046549596,0.0
4.414724,0.05523389210138274,0.0
4.417076,0.05523389210138274,0.0
4.419412,0.05620090434218876,0.0
4.421752,0.069733911995329,0.0
4.4240960000000005,0.10011665580735757,0.0
4.42644,0.15754663096546206,0.010853930964928515
4.428772,0.22754449739377008,0.020732413947964275
4.431115999999999,0.30517488803966947,0.03080109359258105
4.433468,0.3854552140223052,0.041449643870101444
4.435804000000001,0.47606711724538103,0.05203029585989881
4.438143999999999,0.5870211014409812,0.0618738966223636
4.440488,0.7190160147434066,0.07112061510170617
4.442836,0.8715872223017029,0.07992944802557773
4.445172,1.037425169264504,0.0886426709999526
4.447516,1.2052614252579832,0.09771243325988567
4.449868,1.3857108984920399,0.10690359239639376
4.452211999999999,1.586855279607631,0.11590045654802042
4.454552,1.8066664020312926,0.1246437833782783
4.456896,2.040395890165517,0.1332453603205658
4.4592480000000005,2.2868802610250487,0.14170834874776148
4.461584,2.5433260179305517,0.1501110911505215
4.463927999999999,2.814855519389742,0.15827059409558955
4.466272,3.097495199200329,0.1661760451493267
4.468612,3.3653816872549305,0.17397126907086152
4.470955999999999,3.608691471276566,0.18177614371044143
4.473296,3.819414252421699,0.17888102418013066
4.475648,4.00858235192294,0.17716723300353393
4.477992,4.199754448028466,0.17516114717859982
4.48034,4.399310825887736,0.17232549312617437
4.482684000000001,4.592075193148445,0.16937216031383795
4.485023999999999,4.752998627495197,0.16728327584630887
4.487368,4.883988786017919,0.16594487963405896
4.489716,4.991422162150332,0.16522796628946504
4.492056,5.09415438451348,0.16457733713477282
4.494403999999999,5.210857881989042,0.16323111173093077
4.496748,5.328218693344268,0.16147690487468233
4.499088,5.424680241077399,0.15986001181395093
4.501431999999999,5.493815018210733,0.15866011692402773
4.503776,5.549123977432122,0.15764275225824959
4.506119999999999,5.593865250271856,0.15680222659447243
4.508471999999999,5.633161195237648,0.1559490797469752
4.510812,5.657420617477997,0.15528998044070697
4.513156,5.663383489604742,0.15492350777877084
4.5155080000000005,5.664456320649251,0.15475341584243515
4.517844,5.676002394418928,0.15456628963693558
4.520188000000001,5.701933364607992,0.15422271071060473
4.522539999999999,5.73829414740972,0.15361059124893053
4.524884,5.765996796777593,0.15305193606628947
4.527224,5.774331960845222,0.15280697475010546
4.529567999999999,5.7772652271514175,0.15274759048155545
4.53192,5.793512454690361,0.15257054661112074
4.534256000000001,5.822329469357376,0.1522240419296248
4.5366,5.855849533651527,0.15172172759232333
4.538948,5.884855435631515,0.1511681349945244
4.541288,5.891653133803684,0.15103164724529364
4.543632000000001,5.881967495295695,0.15131287292951573
4.545976,5.877587415034785,0.15165216309527485
4.54832,5.893413437835278,0.15165322703922512
4.550656,5.916456467688521,0.15149952006673548
4.553000000000001,5.938942314892191,0.15124883868228733
4.555344,5.956679786498353,0.15104211057704403
4.55768,5.975813058515248,0.150881386800502
4.560024,6.004163542473439,0.1506613818249667
4.562367999999999,6.038752646096358,0.15034643786208904
4.56472,6.072225488562266,0.1499768177307397
4.567056000000001,6.097971363154095,0.14961512448667932
4.5694,6.120831193267972,0.14926822988311325
4.571752,6.144155658232804,0.14898135098584386
4.574092,6.179630601445128,0.1485844462390745
4.57644,6.2142669268962925,0.1482372310441183
4.578784000000001,6.251511653429555,0.14778007212567282
4.581132,6.284706852499611,0.1473194470116138
4.583475999999999,6.3216739356370235,0.14675967876905072
4.585827999999999,6.3552412217594165,0.14632565054403035
4.588176000000001,6.396629919412374,0.1457907863198637
4.590524,6.443373292998524,0.1451247932380755
4.5928640000000005,6.48490365613621,0.1444402133945686
4.595208,6.5120019010262675,0.14393376845095845
4.597552,6.527274532892927,0.14359908221649414
4.599895999999999,6.541708546998426,0.14331801876899805
4.602244000000001,6.557957670395239,0.14305574043513652
4.604592,6.575604490060653,0.1427136325320598
4.606935999999999,6.58934155188972,0.14235662674100144
4.609276,6.600611878121415,0.14198083890162735
4.611628,6.608389859539474,0.14168795189012637
4.6139600000000005,6.62305808692832,0.14132301556179405
4.616300000000001,6.633442573570612,0.14104368128474046
4.618644,6.643362425361947,0.14070928380388203
4.620991999999999,6.646718792264462,0.1403897196975273
4.623336,6.651612625062438,0.13998034017276076
4.625676,6.650500155621164,0.13967553783123637
4.628024,6.6519016436055045,0.13934943914262057
4.630364,6.65064940453737,0.13905497569920566
4.632708000000001,6.650794861737839,0.13867988323333524
4.635047999999999,6.647262878527438,0.13831192219547675
4.637392,6.645872765690312,0.1379043760375203
4.639736000000001,6.64722892770428,0.13750256860173382
4.64208,6.648026011210805,0.13712895990909388
4.644428,6.653386374717605,0.1366539762514918
4.646768,6.6570713985599514,0.1361522267004231
4.649112000000001,6.658941313110986,0.13563272349929117
4.651456,6.6559684084080235,0.13522772659223545
4.653804000000001,6.6542987563171785,0.13483062572884885
4.656143999999999,6.654351665719029,0.13441780244776277
4.658488,6.6510992217623475,0.1340267031691546
4.660828,6.642259784446996,0.13370992231103762
4.663171999999999,6.637564318251339,0.13331948811848704
4.665512,6.631750695040799,0.1329925603350536
4.667856,6.621234022203125,0.13276918622152944
4.6702,6.608855018245894,0.13256937541424238
4.67254,6.5911685601837116,0.13242755093861272
4.674887999999999,6.567895108762862,0.13236064043647777
4.677232,6.541269082155236,0.13236398306201883
4.679576000000001,6.51315281148039,0.13241190964294414
4.681915999999999,6.4839656056189074,0.13248057320059334
4.68426,6.446397909719418,0.13266637351392177
4.6866,6.40338299008812,0.13292525963586843
4.688936,6.364464819748272,0.1331565248693536
4.691284,6.323217787580045,0.1334876422423564
4.693628,6.282854699143353,0.13385062664690697
4.695971999999999,6.2408615970125805,0.1342707777891088
4.698316,6.200079199695307,0.13466492165230862
4.700660000000001,6.153150730511924,0.13518094979822318
4.7030080000000005,6.104732017261321,0.13574026780409723
4.705344,6.063622858862084,0.1362020023167791
4.707692,6.0251674275153215,0.13663174135470288
4.710044,5.986292687287977,0.13708255099843342
4.712384,5.949280278180192,0.13750805358018087
4.714724,5.922650459856826,0.13777959902738465
4.717072,5.893971318958801,0.13813843237869664
4.71942,5.876186625524395,0.13835392130348526
4.721768000000001,5.862638451008301,0.13853002379540705
4.724112,5.851604233917822,0.1386845974426694
4.726459999999999,5.840010938319901,0.13887665501451807
4.728796000000001,5.83209508313285,0.13906220529878804
4.73114,5.834422049103362,0.13909596126142568
4.733484000000001,5.844058569925239,0.1390271845306224
4.73582,5.854254169254558,0.13892338552679445
4.738156,5.86873350933043,0.13872790751722378
4.740500000000001,5.8802795831001085,0.13858136561000933
4.742852000000001,5.89475892317598,0.13838329601208496
4.745188000000001,5.907096392878575,0.13822924327276803
4.747532,5.927302495939977,0.13793151582433613
4.749879999999999,5.94764836862824,0.13762505538928183
4.752212,5.966271679823807,0.13734288250458176
4.754556000000001,5.982892890272957,0.1370983139393755
4.756895999999999,5.998862474416049,0.13685117764690652
4.75924,6.014320201879943,0.1365921451914913
4.76158,6.026332806358444,0.13637564327975085
4.763923999999999,6.044631252329917,0.13603265918259178
4.766276,6.057202935315858,0.13578342557890657
4.768612000000001,6.073127193488576,0.13546345575148996
4.7709600000000005,6.089051451661294,0.13514288410250797
4.773304,6.11219271688676,0.13468973104285908
4.775644,6.134030729500112,0.1342297747658829
4.777984,6.155868742113463,0.13378058076924448
4.780328000000001,6.173050926927923,0.1333959823215991
4.782676,6.192095442861939,0.13299136153234592
4.785019999999999,6.214352764355872,0.13253387871777575
4.787364,6.24447871920861,0.13195739803331857
4.789708000000001,6.276606774807766,0.13135598764951792
4.7920560000000005,6.314880902273033,0.13065119937744507
4.7944,6.352503403432242,0.12995306093086284
4.796748000000001,6.390125904591451,0.12925616905276985
4.799092,6.427748405750659,0.12856510681418087
4.801436000000001,6.466441842096505,0.1278533118965778
4.80378,6.50699760956191,0.12712446953333492
4.8061240000000005,6.54941570814687,0.12637897260793615
4.808468,6.5912747282243895,0.12567028147630477
4.810804000000001,6.633273517928769,0.12496721164090148
4.8131520000000005,6.679136739499123,0.12421642726698949
4.815504000000001,6.720064594016865,0.12354350253227812
4.817848,6.765555728534881,0.1227904755407221
4.8201920000000005,6.806111496000286,0.12211641381590503
4.82254,6.849600529771885,0.12141022130872307
4.824876,6.887362800557954,0.12077799050617515
4.827211999999999,6.9303399776503545,0.12006857747698592
4.829560000000001,6.969592492503643,0.11940496896205771
4.831908,6.999905438811485,0.11886420640175868
4.8342480000000005,7.027285118813134,0.11836917597903049
4.836592,7.051871302135446,0.11790740437581819
4.838932,7.0744553847113405,0.11747711019706877
4.841272,7.093175035421263,0.11709281316643233
4.843616000000001,7.111894686131185,0.1167090537793499
4.845955999999999,7.126330596094552,0.11638996042740073
4.848304000000001,7.1429083764311985,0.11604011462154651
4.850648,7.15548195527501,0.11574188307881286
4.852988,7.16218900150643,0.11551253916763735
4.855335999999999,7.167313255872015,0.11528717550627836
4.857668,7.170435409491183,0.11508897869003805
4.8600080000000005,7.167970569751681,0.11494501935627499
4.862352,7.165505730012178,0.11480074986268801
4.864700000000001,7.157686214339484,0.11473708462954413
4.867039999999999,7.149726929039929,0.11468046068536285
4.869384,7.13776344224754,0.11467314944995316
4.871732,7.127382747320987,0.1146625584093416
4.874067999999999,7.113649477207658,0.11470576567857708
4.876408,7.100567833400388,0.11475426566597181
4.878752,7.094004348511565,0.11474143456778542
4.8811,7.080643165450574,0.11480506042048765
4.883436,7.067142212762723,0.11487534736193296
4.8857800000000005,7.0513596200747335,0.114984432037566
4.888124,7.039022150372139,0.11507213181646456
4.890460000000001,7.0256137454829055,0.11517587423221744
4.892804,7.018491182086642,0.11519117909929548
4.895148000000001,7.011228849063518,0.11521272461174843
4.897492,7.004897681600174,0.11522590322060293
4.899827999999999,7.006155608241917,0.11516229829865131
4.902172,7.008344700443438,0.11508993702266189
4.904524,7.005179116711765,0.11509665147804925
4.906864000000001,7.005738195219205,0.11506815051520974
4.909208,7.006157504099785,0.11504671612395011
4.911552,7.008578913726783,0.11500047638763673
4.913888,7.012211028167278,0.11493135408963667
4.916220000000001,7.01891617854083,0.11482201069225012
4.918564,7.025900868168102,0.11469844845469496
4.920908000000001,7.032885557795374,0.1145748862171398
4.923248000000001,7.040801412982424,0.1144428473061854
4.925592,7.046063541117,0.11433059900783649
4.927932,7.0611964033568,0.11410397998534039
4.930272,7.07618949596974,0.11388461417236698
4.932608,7.093324458955957,0.11363387610312725
4.934952000000001,7.109668026009255,0.11338648642415892
4.937291999999999,7.129084628995608,0.11310048735688774
4.939636,7.144357260862268,0.11287108992898492
4.941976,7.155625691236094,0.11268962771875031
4.944319999999999,7.1701069271698366,0.11246307020525421
4.946664,7.181143040118186,0.11225816200828045
4.949,7.193389857880034,0.11203231262406209
4.951344000000001,7.213133221948351,0.11170075742552363
4.953684000000001,7.23329589489725,0.11135118474873562
4.956032,7.254669272659647,0.11097963607035517
4.958376,7.273109384115848,0.1106388236560103
4.96072,7.290618330012272,0.11030765034771685
4.963072,7.303331678482942,0.11002349014219324
4.965412000000001,7.317395501393972,0.10971229446129914
4.967764000000001,7.331878633185583,0.10938122940707404
4.970104000000001,7.3431961812455215,0.10905415633441673
4.972448,7.35493303818604,0.10870749761685157
4.974792000000001,7.360151736208111,0.10841773943583442
4.977136,7.363927411991206,0.10812259626533391
4.979476,7.368262166281742,0.10780187931635511
4.981816,7.371014128706442,0.10748330657046866
4.984164,7.3751165655715,0.10714006944486232
4.986511999999999,7.383502743183113,0.10674221468522366
4.988856,7.390166359302029,0.10634921944814302
4.991200000000001,7.394967644301388,0.1059728932557053
4.993592,7.398697994114108,0.10561060052091152
4.995976000000001,7.40242834392683,0.1052499054824235
4.998380000000001,7.400292161127161,0.10494607148453401
5.000772,7.395874338327355,0.10467643498822159
5.0031680000000005,7.390525349967769,0.10441364999364348
5.005564,7.389599871981598,0.10408978738820812
5.007952,7.386812062875871,0.10377944493858152
5.0103480000000005,7.390170325636254,0.10340104477174364
5.012744,7.395390919516195,0.10301174745173808
5.015128000000001,7.401682448582774,0.10261054679396951
5.017524,7.412210496567663,0.10219513098597308
5.019920000000001,7.422459005298833,0.10179366848719817
5.022308000000001,7.432288205149422,0.10140982317964534
5.024704,7.446773232798902,0.10099415041456715
5.027104,7.458836850821385,0.10061877640475393
5.029488000000001,7.46968976403037,0.10026195724944541
5.031867999999999,7.476398706119659,0.09995274699099967
5.034272,7.477241115596558,0.09969582511270958
5.03666,7.487023093618904,0.09935644977902217
5.03904,7.494802970894833,0.0990359682730382
5.041444,7.5025828481707615,0.09871506283419128
5.043828,7.511293891006469,0.09839003045549874
5.046208,7.526011236081427,0.09800956560277581
5.048612,7.54380161708944,0.09759926130630335
5.051,7.565596199590286,0.0971545861693236
5.053380000000001,7.584177976531217,0.09674940750008411
5.055776,7.606763954964982,0.09630917434326068
5.058164,7.6239952574655545,0.09593181330900984
5.060544,7.63228699142068,0.09563169151900283
5.062948,7.639368020562308,0.09535105935658761
5.065336,7.64500602746496,0.09506461444123024
5.067716000000001,7.649573099180972,0.0947900301974978
5.070112,7.658563681270399,0.09446205194792273
5.072495999999999,7.662618896307215,0.09417569655853639
5.07488,7.668815981717307,0.09386609284482773
5.077276,7.677015167873815,0.09353853711732486
5.079663999999999,7.684143418843686,0.09322182396623009
5.082044,7.694204936119752,0.09288124624060272
5.084440000000001,7.695326884850372,0.09261690928066033
5.086828000000001,7.6992423302603274,0.09233585475871466
5.089224,7.705159876416699,0.0920380295004305
5.091620000000001,7.7032087892142656,0.09180172318574739
5.0940080000000005,7.695903026078637,0.09162412798100293
5.096387999999999,7.685663996636814,0.09146895697786968
5.098784,7.673562636075434,0.09132439334257633
5.101172,7.662532210700692,0.09116800658846583
5.103555999999999,7.650291080512453,0.09102894665440188
