Time,Force,Position
4.26046,0.1793013628467984,0.0
4.262803999999999,0.1711531902342708,0.0
4.265148,0.1648673487412998,0.0
4.267488,0.15685894575563236,0.0
4.269836,0.1579298809422709,0.0
4.272183999999999,0.15806965056913108,0.0
4.274519999999999,0.16179431280824438,0.0
4.276864,0.16631037098027576,0.0
4.279216,0.16854478915216992,0.0
4.281547999999999,0.1697082721374255,0.0
4.283887999999999,0.16314289139073412,0.0
4.286232,0.1569495976963802,0.0
4.28858,0.1499649080691082,0.0
4.29092,0.14377161437475428,0.0
4.293263999999999,0.13664715512062203,0.0
4.29562,0.13087317030684875,0.0
4.297967999999999,0.12481964623935504,0.0
4.300312,0.1209079925451384,0.0
4.302655999999999,0.1189984395973386,0.0
4.305004,0.11909098739595567,0.0
4.307343999999999,0.11918353519457274,0.0
4.309688,0.12062655743354875,0.0
4.312032,0.11806537817969107,0.0
4.314371999999999,0.11415372448547442,0.0
4.316716,0.10516693411178554,0.0
4.319056,0.09618014373809666,0.0
4.321408,0.08540648082131895,0.0
4.323751999999999,0.07370165234476292,0.0
4.3261,0.06413869424148395,0.0
4.328448,0.053644570578426656,0.0
4.330791999999999,0.050943621697708746,0.0
4.333136,0.04759104651093294,0.0
4.335479999999999,0.042172059527347885,0.0
4.337824,0.03689284217062304,0.0
4.340159999999999,0.03361572556031504,0.0
4.342507999999999,0.031473855187037984,0.0
4.344852,0.03133408556017777,0.0
4.347192,0.033056647052874207,0.0
4.349535999999999,0.031566402985655044,0.0
4.35188,0.028074058172019026,0.0
4.354227999999999,0.0237260063750725,0.0
4.356567999999999,0.018307019391487444,0.0
4.358915999999999,0.015029902781179456,0.0
4.361267999999999,0.012963490984370203,0.0
4.3636,0.01196801437419948,0.0
4.36594,0.011903703323807078,0.0
4.368283999999999,0.011903703323807078,0.0
4.370635999999999,0.011903703323807078,0.0
4.372976,0.011903703323807078,0.0
4.37532,0.011903703323807078,0.0
4.377668,0.008906125967219505,0.0
4.379999999999999,0.007910649357048783,0.0
4.382344,0.007910649357048783,0.0
4.384699999999999,0.007910649357048783,0.0
4.387036,0.007910649357048783,0.0
4.389379999999999,0.006775403120017851,0.0
4.391724,0.004708991323208598,0.0
4.394072,0.0017114139666210245,0.0
4.396412,0.0008557069833105122,0.0
4.398755999999999,0.0,0.0
4.401107999999999,0.0,0.0
4.403456,0.0,0.0
4.405804,0.0,0.0
4.408144,0.0,0.0
4.410496,0.0,0.0
4.412839999999999,0.0,0.0
4.415184,0.0,0.0
4.417524,0.0,0.0
4.419879999999999,0.0,0.0
4.422219999999999,0.0,0.0
4.424564,0.0,0.0
4.426903999999999,0.0,0.0
4.429236,0.0,0.0
4.431583999999999,0.0,0.0
4.433923999999999,0.0,0.0
4.436268,0.0,0.0
4.438611999999999,0.0,0.0
4.440951999999999,0.0,0.0
4.443296,0.0,0.0
4.445632,0.0,0.0
4.447975999999999,0.0,0.0
4.45032,0.0,0.0
4.452672,0.0,0.0
4.455015999999999,0.0,0.0
4.457364,0.0,0.0
4.459712,0.0,0.0
4.462047999999999,0.0,0.0
4.464395999999999,0.0,0.0
4.466744,0.0,0.0
4.46908,0.0,0.0
4.471423999999999,0.0,0.0
4.473772,0.0,0.0
4.476108,0.0,0.0
4.478451999999999,0.0,0.0
4.480791999999999,0.0,0.0
4.483139999999999,0.0,0.0
4.485479999999999,0.0,0.0
4.487819999999999,0.0,0.0
4.490176,0.0,0.0
4.492528,0.0,0.0
4.494868,0.0,0.0
4.497211999999999,0.0,0.0
4.499564,0.0,0.0
4.501904,0.0,0.0
4.504244,0.0,0.0
4.506587999999999,0.0,0.0
4.508927999999999,0.0,0.0
4.511272,0.0,0.0
4.513615999999999,0.0,0.0
4.515955999999999,0.0,0.0
4.5183,0.0,0.0
4.52064,0.0,0.0
4.522983999999999,0.0,0.0
4.525328,0.0,0.0
4.527671999999999,0.0,0.0
4.530016,0.0,0.0
4.532368,0.0,0.0
4.534704,0.0,0.0
4.537051999999999,0.0,0.0
4.539403999999999,0.0,0.0
4.541744,0.0,0.0
4.544088,0.0,0.0
4.546431999999999,0.0,0.0
4.548776,0.0,0.0
4.551112,0.0,0.0
4.553459999999999,0.0,0.0
4.555807999999999,0.0,0.0
4.558152,0.0,0.0
4.560495999999999,0.0,0.0
4.56284,0.0006233895578332426,0.0
4.565192,0.001246779115666485,0.0
4.567532,0.002941103860138258,0.0
4.569875999999999,0.004635428604610031,0.0
4.572227999999999,0.007400688535720335,0.0
4.574563999999999,0.009514322160772738,0.0
4.576903999999999,0.010696790226046823,0.0
4.57926,0.010808323104682376,0.0
4.581595999999999,0.01199079116995646,0.0
4.583992,0.013173259235230543,0.0
4.586388,0.013173259235230543,0.0
4.588771999999999,0.013173259235230543,0.0
4.591175999999999,0.014215957673644416,0.0
4.593587999999999,0.01847146167197388,0.0
4.595972,0.021516260856804605,0.0
4.598376,0.028565261534469033,0.0
4.600767999999999,0.03547449258527325,0.0
4.603156,0.04238372363607747,0.0
4.605556,0.04715108431360462,0.0
4.607948,0.0488454090580764,0.0
4.610344,0.04822201950024316,0.0
4.612739999999999,0.04759862994240991,0.0
4.615128,0.04590430519793814,0.0
4.617519999999999,0.04420998045346637,0.0
4.619916,0.041444720522356066,0.0
4.622299999999999,0.03933108689730366,0.0
4.624696,0.03814861883202958,0.0
4.627099999999999,0.03803708595339402,0.0
4.629488,0.03685461788811994,0.0
4.631884,0.035672149822845854,0.0
4.634276,0.035672149822845854,0.0
4.636664,0.035672149822845854,0.0
4.639044,0.034629451384431985,0.0
4.641444,0.030373947386102516,0.0
4.643827999999999,0.02732914820127179,0.0
4.646212,0.020280147523607364,0.0
4.648607999999999,0.013482449351438698,0.0
4.650995999999999,0.006573218300634482,0.0
4.653392,0.0018058576231073265,0.0
4.655787999999999,0.00011153287863555285,0.0
4.658175999999999,0.00011153287863555285,0.0
4.660556,0.00011153287863555285,0.0
4.66296,0.00011153287863555285,0.0
4.665348,0.00011153287863555285,0.0
4.667728,0.00011153287863555285,0.0
4.670131999999999,0.00011153287863555285,0.0
4.672519999999999,0.0015735401976300569,0.0
4.674899999999999,0.0015735401976300566,0.0
4.677296,0.00196461232998603,0.0
4.679684,0.002215914835481793,0.0
4.682063999999999,0.002215914835481793,0.0
4.68446,0.002215914835481793,0.0
4.686848,0.002215914835481793,0.0
4.689228,0.002215914835481793,0.0
4.691628,0.002215914835481793,0.0
4.694016,0.002215914835481793,0.0
4.696396,0.0021043819568462405,0.0
4.698796,0.0021043819568462405,0.0
4.701179999999999,0.0021043819568462405,0.0
4.703564,0.0021043819568462405,0.0
4.705959999999999,0.0021043819568462405,0.0
4.708344,0.0021043819568462405,0.0
4.710723999999999,0.003426619648980534,0.0
4.71312,0.003426619648980534,0.0
4.715508,0.003426619648980534,0.0
4.717891999999999,0.004888626967975038,0.0
4.720295999999999,0.004888626967975038,0.0
4.722679999999999,0.0054194687271912215,0.0
4.725064,0.005028396594835248,0.0
4.727459999999999,0.004777094089339485,0.0
4.729847999999999,0.004777094089339485,0.0
4.732227999999999,0.004777094089339485,0.0
4.734624,0.004777094089339485,0.0
4.737015999999999,0.004777094089339485,0.0
4.739395999999999,0.004777094089339485,0.0
4.741792,0.004777094089339485,0.0
4.74418,0.004777094089339485,0.0
4.746575999999999,0.004777094089339485,0.0
4.748972,0.004777094089339485,0.0
4.75136,0.004888626967975039,0.0
4.753739999999999,0.004888626967975038,0.0
4.756136,0.004888626967975038,0.0
4.758524,0.0043295484605341975,0.0
4.760904,0.0061636428318661805,0.0
4.763299999999999,0.007857967576337953,0.0
4.765687999999999,0.0063959602573434495,0.0
4.768072,0.0049339529383489455,0.0
4.770467999999999,0.004403111179132762,0.0
4.772852,0.004886731110105794,0.0
4.775231999999999,0.0073724517874956775,0.0
4.77764,0.014933309144357794,0.0
4.780028,0.026638137620913827,0.0
4.782408,0.03620109572419279,0.0
4.784803999999999,0.046695219387250075,0.0
4.787191999999999,0.05812050861008569,0.0
4.789576,0.07168766820619835,0.0
4.791972,0.08618599336208935,0.0
4.794359999999999,0.1029659585181176,0.0
4.79674,0.1161610310618928,0.0
4.799135999999999,0.12659084367455767,0.0
4.801523999999999,0.13419892285966295,0.0
4.803908,0.14273816760454652,0.0
4.806303999999999,0.15037448353787647,0.0
4.808691999999999,0.15680009465770764,0.0
4.811076,0.16415687133731718,0.0
4.813471999999999,0.1750703038809551,0.0
4.815859999999999,0.1861235060514532,0.0
4.818244,0.19731647784881157,0.0
4.820639999999999,0.2077462904614764,0.0
4.823024,0.21631377195458468,0.0
4.825419999999999,0.21859541195472196,0.0
4.827816,0.21258910971547137,0.0
4.8302,0.20779351228971957,0.0
4.832592,0.20299791486396773,0.0
4.834996,0.19512928150516054,0.0
4.837384,0.18511877777307625,0.0
4.839763999999999,0.17617920922763056,0.0
4.842164,0.1628161303087705,0.0
4.844552,0.15690237586813705,0.0
4.846931999999999,0.15336280922625792,0.0
4.849328,0.1559693144504895,0.0
4.851711999999999,0.15764465411494277,0.0
4.854092,0.1575974322866996,0.0
4.856496,0.15261484340584444,0.0
4.858884,0.14698062821893138,0.0
4.861264,0.13655081560626647,0.0
4.863667999999999,0.1269123989265197,0.0
4.866052,0.11620304706013442,0.0
4.868432,0.1052896145164965,0.0
4.870835999999999,0.09423641234599835,0.0
4.873223999999999,0.08439391498899898,0.0
4.875603999999999,0.07869538875169349,0.0
4.878008,0.07392802807416635,0.0
4.880391999999999,0.06822950183686086,0.0
4.882771999999999,0.06467284597283243,0.0
4.885176,0.061116190108804015,0.0
4.887563999999999,0.05555743349835875,0.0
4.889944,0.05214054726119055,0.0
4.892339999999999,0.04485922915804885,0.0
4.894724,0.037857450308627576,0.0
4.897107999999999,0.027642865899290714,0.0
4.899504,0.017428281489953845,0.0
4.901888,0.009076028200173617,0.0
4.904268,0.005798911589865622,0.0
4.906671999999999,0.0023820253526974176,0.0
4.909056,0.0018984054217243852,0.0
4.911436,0.00048361993097303246,0.0
4.913839999999999,0.0,0.0
4.916228,0.0,0.0
4.918607999999999,0.0014147854907513525,0.0
4.921011999999999,0.0017586357948641742,0.0
4.923396,0.0033131909124757375,0.0
4.925775999999999,0.0040763500971691905,0.0
4.928179999999999,0.0040763500971691905,0.0
4.930563999999999,0.0040763500971691905,0.0
4.932943999999999,0.0040763500971691905,0.0
4.935347999999999,0.0040763500971691905,0.0
4.937735999999999,0.0040763500971691905,0.0
4.940116,0.0040763500971691905,0.0
4.942511999999999,0.0040763500971691905,0.0
4.944899999999999,0.0040763500971691905,0.0
4.947279999999999,0.0040763500971691905,0.0
4.949676,0.0040763500971691905,0.0
4.95206,0.0040763500971691905,0.0
4.954443999999999,0.0040763500971691905,0.0
4.956844,0.0040763500971691905,0.0
4.959232,0.0040763500971691905,0.0
4.961611999999999,0.005910444468501174,0.0
4.964008,0.0059104444685011736,0.0
4.966396,0.004495658977749822,0.0
4.968776,0.004151808673637,0.0
4.971179999999999,0.0025972535560254365,0.0
4.973564,0.0018340943713319835,0.0
4.975944,0.003156332063466277,0.0
4.978344,0.005549504942239102,0.0
4.980727999999999,0.010456635246626466,0.0
4.983108,0.0168993355886069,0.0
4.985512,0.023107822647240824,0.0
4.987895999999999,0.03532071608725605,0.0
4.990276,0.05055752777421427,0.0
4.992671999999999,0.07319454625328664,0.0
4.995056,0.10546618969636731,0.0
4.997451999999999,0.14523058773017924,0.0
4.999848,0.1975156552059515,0.009814523777725482
5.002231999999999,0.2591085865637684,0.019835624243062178
5.004612,0.3335942744158831,0.029662283845203793
5.007007999999999,0.42446506357593167,0.03895919292553353
5.009395999999999,0.5224375351943554,0.048375663356295714
5.011792,0.632250813200457,0.05780401287028806
5.014187999999999,0.7508600984094056,0.0673485842091515
5.016572,0.8807793482468158,0.07688456874339436
5.018955999999999,1.0218687930858272,0.0864348922063511
5.021352,1.1742682025533002,0.09597746860822037
5.02374,1.3387972093303777,0.10539654013285957
5.026119999999999,1.5153350288702176,0.11467932918324487
5.028523999999999,1.6999246815082303,0.12391260585375263
5.030908,1.893032697953238,0.1330882917401254
5.033287999999999,2.094846069660345,0.14224343439607556
5.035691999999999,2.2978229243527073,0.1513824576181462
5.038079999999999,2.5080640079260625,0.1603317430089467
5.04046,2.717096282543789,0.1691853472410779
5.042855999999999,2.921382077421875,0.1779487565179231
5.045244,3.122691175881261,0.18660140101404854
5.047623999999999,3.3102689000851884,0.18548813380432796
5.05002,3.4894699259668496,0.18414391500598293
5.052408,3.6539158642346563,0.1830430768608381
5.054788,3.8002541397018326,0.18250932379576337
5.057188,3.939099660578278,0.18184321523224584
5.059571999999999,4.07138359242377,0.18109171688280257
5.061956,4.200039201544505,0.18011757147582713
5.064359999999999,4.317105306783057,0.17917554941460564
5.066744,4.426074252953064,0.17812669794202046
5.069123999999999,4.523733234494609,0.17708559353052272
5.071527999999999,4.607009215474637,0.1761908068234922
5.073912,4.678788240371099,0.17540993094761093
5.076291999999999,4.740233792169252,0.17471364070957082
5.078683999999999,4.79507053310821,0.17400787178787636
5.081071999999999,4.844369398374611,0.17324548836800888
5.083463999999999,4.887711079087873,0.17245533964821624
5.085868,4.9156894759937275,0.17199827847417581
5.088256,4.938128101369155,0.171637357458173
5.090636,4.9544678767067145,0.1714119721950584
5.093036,4.969596947230776,0.17124207067281544
5.095424,4.986728118501254,0.17101277269513362
5.097799999999999,5.004138829025452,0.17076353798741073
5.100195999999999,5.024622575482706,0.1704214654679259
5.10258,5.047480509738714,0.17004277866888165
5.10496,5.068615882502026,0.1696990626031833
5.107363999999999,5.090030794519058,0.16934392759924627
5.109752,5.106417791684861,0.16908432532727052
5.112131999999999,5.126157364037439,0.1687177375251865
5.114523999999999,5.1458969363900176,0.1683620922077151
5.116911999999999,5.166427904675516,0.16799718973658073
5.119304,5.18854166482685,0.16761075886552423
5.121708,5.2097242594184054,0.1672479779082902
5.124096,5.235749673263954,0.16672278606431865
5.126476,5.257538568191194,0.16627334949634923
5.128879999999999,5.2756028008793185,0.16590980638740177
5.131264,5.291245623940447,0.1656299235909915
5.133644,5.3198322170398535,0.16502673901200865
5.13604,5.346836018273424,0.16444128400454014
5.138423999999999,5.379706352119387,0.16372073068404502
5.140808,5.40740900148726,0.16309100814050922
5.143208,5.437533060482129,0.16238967390320325
5.145595999999999,5.467377580223278,0.16171528358191578
5.147976,5.498153265524205,0.16103117861023103
5.150368,5.527206389332438,0.1603730604020799
5.152752,5.559891627581164,0.15960373490880153
5.155147999999999,5.590062908404277,0.15888382132105508
5.157551999999999,5.622236289973806,0.1581233052318565
5.159936,5.651336635610282,0.15744623813163283
5.162315999999999,5.676293010127063,0.1568763729817553
5.164707999999999,5.704462190203758,0.15623268397734635
5.167095999999999,5.733981844720813,0.1555469996208967
5.169476,5.762058476998892,0.15486655742848143
5.171868,5.7862706774109975,0.15427953725764634
5.174256,5.817280575995271,0.15356558488771768
5.176651999999999,5.850944201632021,0.15281331822948938
5.179048,5.886889467268907,0.15199783707783338
5.181436,5.915245638800707,0.15134476589383952
5.183816,5.948676947011978,0.1505902748114834
5.186219999999999,5.978942671491577,0.14987725150783993
5.188604,6.015494237464147,0.14903182235917453
5.190984,6.048972767503662,0.14826040443886884
5.193379999999999,6.083662002356675,0.1474631525591545
5.195767999999999,6.114067496463135,0.14676271502603874
5.198148,6.146614860942872,0.14601389769728906
5.200552,6.173667779862556,0.14539760185371572
5.20294,6.197368123595464,0.14486090152774786
5.205319999999999,6.217995431395317,0.1443894290618095
5.207711999999999,6.240764609568447,0.14387365766193758
5.210099999999999,6.262742391808658,0.143359494061669
5.212496,6.278853641436479,0.14295599570661524
5.2149,6.294964891064301,0.14255711672070104
5.217283999999999,6.310936371065261,0.1421654375943533
5.219664,6.320761779200111,0.14189490985674957
5.222064,6.318854122110181,0.1418385457851461
5.224447999999999,6.316294838714192,0.14177925591526935
5.226827999999999,6.313735555318204,0.14171997745383316
5.229224,6.3090344015489395,0.1417074597399863
5.231612,6.299258111100202,0.1417929165864879
5.233991999999999,6.285849706210968,0.14197442765357818
5.236383999999999,6.264013589455486,0.14233202554725294
5.238771999999999,6.240966767886505,0.14272275495632275
5.241164,6.21484691038447,0.1431723569138988
5.243568,6.193941959188765,0.1435137698524376
5.245951999999999,6.1719660728064225,0.14387685554437787
5.248332,6.154413696797494,0.14413880029840181
5.250736,6.139142960788704,0.14434764202785916
5.253119999999999,6.128947361459385,0.14445675382894035
5.2555,6.1176808269434275,0.14458682288703534
5.257895999999999,6.1122808250398615,0.1446151951901619
5.26028,6.107672219069213,0.1446387667588143
5.26266,6.100921742725287,0.14470714543774124
5.265063999999999,6.098035698247335,0.14471101552841625
5.267451999999999,6.101807582314692,0.14460857171455715
5.269831999999999,6.114099726046913,0.1443692740982871
5.272224,6.127043496085192,0.1441355875943188
5.274611999999999,6.139847496496611,0.14391199922589115
5.277007999999999,6.156236389520283,0.14364108313492557
5.279408,6.172066204036516,0.14340209559483175
5.281796,6.189898119299164,0.14312372841983073
5.284175999999999,6.216669603107258,0.14268365300533897
5.286579999999999,6.246374353221547,0.14219306843002189
5.288967999999999,6.2798037655749495,0.1416487143676872
5.291347999999999,6.307226875689101,0.1412156177847343
5.293744,6.336931625803391,0.14073267051928479
5.296132,6.363283800730904,0.1403281450119432
5.298511999999999,6.392709011591473,0.13987073250903792
5.300908,6.417990251332348,0.1394993170766312
5.303291999999999,6.441129620699945,0.1391717469757278
5.305672,6.459473392641791,0.13892306811813562
5.308076,6.480098804583774,0.1386229933705376
5.310464,6.500491899100282,0.13829443746536177
5.312844,6.519162432124091,0.13798830636640821
5.315247999999999,6.539602748468839,0.13762527461140514
5.317632,6.557808646641694,0.13727168711164678
5.320012,6.5714984866425175,0.1369727872545552
5.322415999999999,6.584816239591004,0.13665553300290442
5.3248,6.596970509554234,0.136324810054989
5.327183999999999,6.609451540599429,0.1359314877304363
5.32958,6.623842124592423,0.13547091721968973
5.331963999999999,6.6315747800401095,0.13510814274524202
5.334344,6.635070916569483,0.13478248422973702
5.336736,6.6324682030609905,0.1345183491136487
5.339124,6.634288999925912,0.13416406549038698
5.341515999999999,6.630243264178443,0.1338991346330293
5.343919999999999,6.627827542125053,0.1335811512004228
5.346307999999999,6.62154738820569,0.13332085129103602
5.348687999999999,6.615686543166907,0.13303637039014485
5.35108,6.612386877381983,0.1326875667396492
5.353468,6.6102979164105555,0.1323103538516058
5.355848,6.606486393946434,0.1319493699150931
5.358243999999999,6.605328598534786,0.1315614512901611
5.360631999999999,6.601377306443801,0.13120877503002845
5.363012,6.590488546553791,0.13096211202485297
5.365407999999999,6.57932024741006,0.1307308658186108
5.367792,6.57215614975916,0.13043632586025383
5.370187999999999,6.564712512854541,0.13015751870556702
5.372584,6.554987235949785,0.12992509889975357
5.374972,6.54977801721706,0.12964285837024972
5.377355999999999,6.542938784790255,0.12941157723204524
5.379752,6.539312357923366,0.12912244676824491
5.382135999999999,6.542483629228647,0.12874002390381442
5.38452,6.552312829079236,0.12827223093437043
5.386911999999999,6.561071093743186,0.12782552587861234
5.389299999999999,6.576766826206166,0.1272788914949857
5.391696,6.591112084228786,0.12676701615683333
5.394091999999999,6.606668047064905,0.12622939290703017
5.396476,6.619011204341107,0.12574587196008807
5.398856,6.629212491244033,0.12530110440407538
5.401247999999999,6.6380633037066,0.12489037933138676
5.403635999999999,6.645703411355669,0.12450474386947283
5.406032,6.647197447138627,0.12421483209049934
5.408436,6.647341008481226,0.12395752549597756
5.410819999999999,6.651069462436078,0.12366235361329002
5.4132,6.651724880457874,0.12341545415482809
5.415595999999999,6.649307262546615,0.12321786764917578
5.41798,6.645539170194997,0.123055173288483
5.420359999999999,6.643633408962935,0.12286968156875001
5.422763999999999,6.636652511051402,0.12276399895522129
5.425151999999999,6.627949051647172,0.12267235350317186
5.427531999999999,6.616963952242805,0.12262632832741001
5.429928,6.596619975412412,0.12273554425221442
5.432312,6.568127825969491,0.12297393211441017
5.434695999999999,6.540287302832628,0.1232147939435665
5.437087999999999,6.509094204508989,0.12351608301718393
