Time,Force,Position
5.5257,0.17379071167445823,0.0
5.52808,0.17486164686109676,0.0
5.530475999999999,0.17299931574154015,0.0
5.532863999999999,0.17136930204746076,0.0
5.535244,0.16829626611440537,0.0
5.537648,0.166666252420326,0.0
5.540031999999999,0.15823854055407793,0.0
5.542416,0.15381503018066361,0.0
5.544811999999999,0.15218501648658425,0.0
5.547199999999999,0.14948406760586633,0.0
5.54958,0.14319822611289534,0.0
5.551976000000001,0.13473449343777402,0.0
5.5543640000000005,0.1262707607626527,0.0
5.556743999999999,0.11854189703070572,0.0
5.559148,0.1089507021792021,0.0
5.561532000000001,0.10494650068636838,0.0
5.563911999999999,0.1026648606862311,0.0
5.566316,0.10210578217879025,0.0
5.568700000000001,0.09647156699187717,0.0
5.571079999999999,0.08990618624518579,0.0
5.573484,0.08544665506289817,0.0
5.575872,0.07698292238777683,0.0
5.578252,0.06959012489929402,0.0
5.580652,0.06061453554497498,0.0
5.58304,0.05229057249671385,0.0
5.58542,0.042244047955756286,0.0
5.587815999999999,0.0391710120227009,0.0
5.590203999999999,0.03744845053000447,0.0
5.592584,0.03572588903730805,0.0
5.5949800000000005,0.03814729866430552,0.0
5.597364,0.04601593202311272,0.0
5.599744,0.05899572287026545,0.0
5.60214,0.07011318259786153,0.0
5.604527999999999,0.07970437744936516,0.0
5.606908,0.0895751115545892,0.0
5.609312,0.0975835145402566,0.0
5.611695999999999,0.10400912566008778,0.0
5.61408,0.11150567196655752,0.0
5.616476,0.12328595901958134,0.0
5.618863999999999,0.13865113868485823,0.0
5.621244,0.1599188717713988,0.0
5.623648,0.17718240336510568,0.0
5.626036,0.19523733089173065,0.0
5.6284160000000005,0.21836739509782785,0.0
5.630812,0.23842442337086966,0.0
5.633196000000001,0.25876099089763194,0.0
5.63558,0.2787819983618004,0.0
5.637975999999999,0.2951708913854727,0.0
5.640363999999999,0.3098372229164486,0.0
5.642744,0.3214305185143691,0.0
5.6451400000000005,0.3262261159401209,0.0
5.647524,0.3260863463132607,0.0
5.649920000000001,0.329811008552374,0.0
5.6523200000000005,0.3315335700450704,0.0
5.654708,0.33469915377674286,0.0
5.657087999999999,0.3330691400826635,0.0
5.659484,0.3340928534410588,0.0
5.661867999999999,0.3332542356798975,0.0
5.664243999999999,0.3270609419855436,0.0
5.66664,0.3192848564253534,0.0
5.669023999999999,0.3044315334392742,0.0
5.67142,0.29879731825236117,0.0
5.673824000000001,0.29050937601297333,0.0
5.676208,0.27421303078791814,0.0
5.678588,0.25991878630927984,0.0
5.680979999999999,0.2450654633232006,0.0
5.683368000000001,0.22890888772500556,0.0
5.685759999999999,0.21745536175394525,0.0
5.688164,0.2077243972755814,0.0
5.690548000000001,0.19892459835699586,0.0
5.692932,0.19333760499832595,0.0
5.695332,0.18775061163965603,0.0
5.69772,0.17909058234793077,0.0
5.7001,0.17350358898926085,0.0
5.702504,0.16218983264506082,0.0
5.704888,0.1547405081668342,0.0
5.707268,0.14463745663613292,0.0
5.709672,0.13546557066520992,0.0
5.71206,0.13164836062747956,0.0
5.714440000000001,0.12955371208244568,0.0
5.716843999999999,0.13267396984374422,0.0
5.719228,0.12843745092543324,0.0
5.721608000000001,0.12899652943287407,0.0
5.724011999999999,0.13155770868673175,0.0
5.726396,0.13840262868714356,0.0
5.728776000000001,0.14673779275477455,0.0
5.731179999999999,0.15944924536757668,0.0
5.733564,0.16638671316660558,0.0
5.735943999999999,0.17118231059235742,0.0
5.73834,0.17476720320461048,0.0
5.740723999999999,0.1771413910033648,0.0
5.743104,0.18072628361561785,0.0
5.745508,0.1844509458547311,0.0
5.747891999999999,0.18710467290720587,0.0
5.750272,0.19590447182579135,0.0
5.752676,0.20298170925168044,0.0
5.755059999999999,0.20870847223721056,0.0
5.75744,0.21629756634229733,0.0
5.759844,0.22188455970096727,0.0
5.762228,0.2237468908205239,0.0
5.764608,0.22239641638016497,0.0
5.767003999999999,0.22304804268622289,0.0
5.769388,0.21890407156652897,0.0
5.771768000000001,0.21448056119311465,0.0
5.774171999999999,0.2019088782071727,0.0
5.776556,0.18809046959885872,0.0
5.778936000000001,0.17147856431120975,0.0
5.781332,0.15728806865055825,0.0
5.783715999999999,0.14430827780340552,0.0
5.786116000000001,0.13253919176975154,0.0
5.788516,0.12215660098532984,0.0
5.790904,0.11131868051145416,0.0
5.793284000000001,0.10141192559735682,0.0
5.7956840000000005,0.09150517068325946,0.0
5.798068,0.07945654539588505,0.0
5.800451999999999,0.06819931604142876,0.0
5.802855999999999,0.0590839570602495,0.0
5.80524,0.048106266959513616,0.0
5.807619999999999,0.03698880723191752,0.0
5.810016,0.027733678623878072,0.0
5.812399999999999,0.01954948520247715,0.0
5.81478,0.011505061407936433,0.0
5.817175999999999,0.005322968732952363,0.0
5.81956,0.0003515808714670335,0.0
5.8219520000000005,0.001282746431245354,0.0
5.824356000000001,0.0042520335463138315,0.0
5.826744000000001,0.00829225584802084,0.0
5.8291200000000005,0.014334578896144699,0.0
5.831523999999999,0.021447837130907088,0.0
5.833912000000001,0.027769699432751364,0.0
5.836291999999999,0.03377600167200192,0.0
5.838696,0.04317089990690158,0.0
5.841080000000001,0.054987207768798715,0.0
5.843464,0.06359071007078027,0.0
5.845868,0.0752672483058172,0.0
5.848252,0.08787495210063245,0.0
5.850632,0.10099451257464541,0.0
5.853027999999999,0.11411407304865835,0.0
5.855412,0.1273734031495315,0.0
5.857791999999999,0.1418434380639034,0.0
5.860195999999999,0.15645324260513552,0.0
5.86258,0.16948025528053137,0.0
5.864959999999999,0.18236749832906707,0.0
5.867356,0.19697730287029916,0.0
5.869744,0.2118306258563784,0.0
5.872124,0.22389045216312264,0.0
5.874528000000001,0.23166653772331275,0.0
5.8769160000000005,0.23930285365664267,0.0
5.879292,0.24479729921669552,0.0
5.881688,0.2509433710828063,0.0
5.884072000000001,0.2542959462695821,0.0
5.886451999999999,0.2544357158964423,0.0
5.888848,0.25308524145608335,0.0
5.891232,0.25708944294891706,0.0
5.8936280000000005,0.2578808388818352,0.0
5.896031999999999,0.25974317000139185,0.0
5.898416,0.26230434925524954,0.0
5.900799999999999,0.2648655285091073,0.0
5.903196,0.2631429670164109,0.0
5.90558,0.2580678303369386,0.0
5.907964000000001,0.2528529240306062,0.0
5.91036,0.2521540758963051,0.0
5.912743999999999,0.24973266626930768,0.0
5.915136,0.2426554288434186,0.0
5.9175320000000005,0.22901281067083806,0.0
5.919916,0.21788414992387214,0.0
5.922296,0.21010806436368198,0.0
5.9247000000000005,0.19939871249729668,0.0
5.927084,0.18868936063091135,0.0
5.929464,0.1762214264629563,0.0
5.93186,0.17137860720896134,0.0
5.9342440000000005,0.16467345683540974,0.0
5.93664,0.15420762341387148,0.0
5.939036000000001,0.14159991961905624,0.0
5.94142,0.12913198545110124,0.0
5.9438,0.11466195053672935,0.0
5.946204000000001,0.09898121080885873,0.0
5.9485920000000005,0.08338181786023531,0.0
5.950971999999999,0.08002734681559026,0.0
5.953368,0.08062985543553576,0.0
5.955752,0.08369909965285266,0.0
5.958148,0.08667390021368325,0.0
5.960544,0.09658427271567346,0.0
5.962928000000001,0.11538509607699704,0.0
5.965307999999999,0.15401803958951646,0.0
5.967716,0.19967910284181262,0.007747982160320762
5.9701,0.25530155214008066,0.015309599523112024
5.97248,0.3185111996855662,0.022980472691305882
5.974884,0.38968013253060674,0.030825597075515875
5.977272,0.47200995521574807,0.03872818571209705
5.979652000000001,0.5595620935108532,0.04665119316771394
5.982055999999999,0.6637335463972386,0.05423967908763051
5.98444,0.7831173124448016,0.061597963935045935
5.986820000000001,0.911950607859139,0.06889385676989503
5.989216,1.0438078215204192,0.07646494364051938
5.991599999999999,1.1844157164141724,0.08406295302949159
5.993984,1.3297700910475652,0.09185675544554855
5.996379999999999,1.483841021962427,0.09956800734581976
5.998764,1.6330219117950509,0.10739164731743739
6.001143999999999,1.7857404724116843,0.11522521997841341
6.003547999999999,1.9418569341854672,0.12308793282732243
6.005935999999999,2.101278749317783,0.1309456448199761
6.008316,2.2582338288527275,0.13881531409877765
6.010712000000001,2.4115133638346715,0.14658133880536592
6.0131000000000006,2.5475691797475206,0.15434982172163145
6.015491999999999,2.672080817748561,0.15445650628122218
6.017896,2.786863387129107,0.1547847826399459
6.020283999999999,2.8990866731136644,0.15493927644653144
6.022664,3.006843018612303,0.15480162915316129
6.025068,3.1043131128408756,0.15456854235414355
6.027451999999999,3.192428121359159,0.15423800937639298
6.029832,3.2617819449128866,0.15439882488423584
6.032227999999999,3.3199164557788996,0.15481233666395824
6.034616000000001,3.370835855450033,0.155266924069874
6.036995999999999,3.4225957687401967,0.15532253823616857
6.039388,3.461088942625856,0.15547165916232833
6.041776,3.4952549456524564,0.155378337447586
6.044152,3.522345607111037,0.15532844812809346
6.046556,3.5507414170396028,0.15504921518569803
6.048944,3.5756467780124015,0.15470896676433105
6.051324,3.596457285551619,0.15422721379965695
6.053728,3.607678494097202,0.15382079920082772
6.056116,3.6202973989113874,0.15327438332531548
6.058495999999999,3.6331486211510495,0.1527885183229554
6.0608960000000005,3.6493977445478616,0.1523048889195919
6.063284,3.6737950405572013,0.15155174036875305
6.06566,3.6942353569019506,0.1508393968665607
6.068064000000001,3.7089961320894127,0.15022362094377884
6.070452,3.72464085100841,0.14967599557539524
6.072831999999999,3.7470360462713326,0.14902136871314156
6.075228,3.7651475007877018,0.14851681148390897
6.077611999999999,3.7879620049312055,0.14780121451545883
6.079992,3.8068195294101184,0.1471290657339681
6.082396,3.8233028660902773,0.14649199747969616
6.084784,3.8369927060911007,0.14594275568526743
6.0871640000000005,3.857480244264093,0.1451888695515938
6.08956,3.8776882431833655,0.1444681840245117
6.091944000000001,3.893240414303745,0.14386529417517407
6.09434,3.9042765272520947,0.14337935987739286
6.096735999999999,3.915452409827303,0.1428872916931226
6.09912,3.9248585090815724,0.14250758786422638
6.101500000000001,3.9429246376275673,0.14189980683888312
6.103908,3.952842593561034,0.14154291841262875
6.106292000000001,3.9621089231884437,0.1411869500126298
6.108676,3.9713752528158524,0.1408319128411921
6.111071999999999,3.9740762016965703,0.14070780421513682
6.113456,3.9852974102421537,0.14037817443785358
6.115836000000001,4.000103511399989,0.13997665592586522
6.118232,4.010533324012655,0.13965758234146045
6.12062,4.013885899199431,0.13954250553192724
6.123,4.023197554797214,0.13933247265979903
6.125395999999999,4.032601758193614,0.13918225531019313
6.12778,4.046522019762046,0.13893907285373133
6.130176,4.060442281330477,0.1386948169582663
6.132572000000001,4.077156039578243,0.13839623206123955
6.13496,4.094241884878349,0.13813764089608296
6.137339999999999,4.1109084212978715,0.1379169910439314
6.139736,4.134232886262704,0.13754386916604325
6.142124,4.157277811973816,0.13719479308338442
6.144504,4.178041097684789,0.1369270407011375
6.1469,4.197593678582265,0.13670204867215746
6.149287999999999,4.211651813919688,0.1366591538121954
6.151684,4.233858121869638,0.13639562087439255
6.15408,4.255273033886669,0.13614444238534634
6.156467999999999,4.2786900466501185,0.1358464486860664
6.158852,4.300244728294011,0.13557763005158888
6.161248,4.316724273258431,0.13545018967015843
6.163632000000001,4.332691961543653,0.13530914920224021
6.166016,4.3487994194557364,0.1351532283780197
6.16842,4.364534790315481,0.1349624213637236
6.170804,4.377104577443554,0.13479973146392377
6.173184,4.390093673452208,0.13460134683071687
6.175588,4.400429042408387,0.13444807724038194
6.177976,4.4121148858049235,0.13424019515423904
6.180356000000001,4.4159320958426544,0.13421972467081303
6.182752,4.41695580920105,0.13425566360655186
6.18514,4.419469766626664,0.13422425396861426
6.18752,4.417467665880247,0.13427297765784407
6.189915999999999,4.41602464364127,0.13427338851365886
6.192303999999999,4.415932095842654,0.1342193394272821
6.194688,4.420123288790591,0.13404504012770643
6.197083999999999,4.421940293939773,0.13388782350272943
6.199468,4.41602843535701,0.13390154736090662
6.201852,4.410396116027965,0.1338900883632793
6.204248000000001,4.400527277780611,0.1339321405506821
6.206632,4.396804511399368,0.13381876117375843
6.209027999999999,4.392569888338926,0.13368729723241765
6.211424,4.386333164532068,0.13360304877866166
6.213812,4.380375979978929,0.13349470515960293
6.216192,4.376281126545347,0.13335012804896704
6.218596000000001,4.373257208298404,0.1331751949649731
6.2209840000000005,4.368510728558764,0.1330239494417345
6.22336,4.366325428072982,0.13277696755949384
6.225756,4.362557335721364,0.13254134203192416
6.228144,4.366425559303076,0.13208729106590028
6.2305280000000005,4.37085286139223,0.13158607363937808
6.232931999999999,4.375280163481383,0.13108842287197042
6.235316,4.381709566316951,0.13054556731810266
6.237696000000001,4.3872078035927435,0.13001976100345652
6.240099999999999,4.394987680868672,0.12943247744232575
6.242488000000001,4.401696622957962,0.12888150648802257
6.244867999999999,4.412921623219283,0.12825965950487733
6.247264,4.432015256839412,0.12747477078924357
6.249652,4.4476165456459045,0.1267948866913531
6.252032000000001,4.46694249669151,0.1260526790435416
6.254428,4.483335181430921,0.1253783538300866
6.256816,4.50051926210325,0.12469945596034135
6.259196,4.516492637962081,0.12405478108146227
6.261591999999999,4.533257409753829,0.12340551843112571
6.263979999999999,4.546017980052744,0.12283655426193495
6.26636,4.559430176657716,0.12227723401025348
6.268759999999999,4.572562834008967,0.1217388269286493
6.2711440000000005,4.582854772852642,0.12131497474947037
6.273523999999999,4.590305993188738,0.12100065023313135
6.275928,4.590772523897561,0.12090045246200469
6.278315999999999,4.590819745725804,0.12083523306137324
6.2807,4.5877939316209915,0.12084147709952302
6.283091999999999,4.581974620836846,0.12089567342407484
6.285480000000001,4.5749446052391995,0.12099012681337071
6.287876,4.557484777028888,0.12134628692847034
6.290272000000001,4.536951912885522,0.12177419902931536
6.292660000000001,4.51469648724946,0.12221903000925892
6.295039999999999,4.488436860120563,0.1227412514566946
6.297436,4.462596541872248,0.12323731585902843
6.299824,4.434614353250655,0.123783382799252
6.302204000000001,4.408494495748618,0.12429143469943288
6.304607999999999,4.3831660341795,0.12479239884611143
6.306992,4.359420364476219,0.12529018846573592
6.309372000000001,4.336605860332716,0.12576865477165908
6.311775999999999,4.321659989548019,0.12608527110988457
6.31416,4.304712018016906,0.12644554347032197
6.316544,4.290557543165128,0.12675727711838827
6.31894,4.280686809059905,0.1269585353088581
6.321328,4.274960046074375,0.12706458207212143
6.323707999999999,4.273656793462258,0.12705002504325544
6.326104,4.270351440103726,0.12707948984626913
6.328492,4.270491209730586,0.1270677849103546
6.330872,4.270863296782922,0.12709856526205932
6.333268,4.275751442007291,0.1270591134076226
6.335655999999999,4.290929630217464,0.1267676754356764
6.338036,4.306527127308219,0.12643835870892053
6.340432000000001,4.323055789958751,0.12609466489717205
6.342820000000001,4.339444682982424,0.1257634713365527
6.345216,4.360768943058709,0.12532926196672198
6.34762,4.38423507350827,0.12484349723085797
6.350008,4.401694901718581,0.12448802643805305
6.352388,4.419294499555752,0.12412416110567208
6.354784,4.439315507019921,0.1236837126182455
6.357171999999999,4.457334413737672,0.12328807185262203
6.359552,4.473490989335867,0.12293493030266102
6.361956,4.493931305680616,0.12247766656686586
6.364344,4.513859765346169,0.12200844973527926
6.3667240000000005,4.531134497959244,0.12158072246877928
6.369127999999999,4.548828539452902,0.12112404785502374
6.371516000000001,4.570806321693113,0.12057891938224856
6.373895999999999,4.598790406172575,0.11992054898615477
6.376292,4.628963582853557,0.11916627129795565
6.37868,4.658904442109063,0.1183635340918821
6.381060000000001,4.684748552073118,0.11759114905970476
6.383463999999999,4.7084507916638945,0.11687943894869879
6.385848,4.7317337223740905,0.11619646749476233
6.388228000000001,4.751291990845174,0.11556529077847262
6.390624,4.771129798569977,0.11491391816160904
6.393012,4.786823635175087,0.11435343021880255
6.395392,4.79464883842139,0.11392712014386941
6.3977960000000005,4.808899652787523,0.11335355905072184
6.400184,4.822359071220739,0.1127857114696093
6.402563999999999,4.835306632974757,0.11220688006445116
6.404967999999999,4.851606769915551,0.11155030091162588
6.407352,4.86390270536351,0.11096748160842715
6.409736,4.870052568945359,0.1105044534847203
6.412132000000001,4.876062662900348,0.11005535832731891
6.41452,4.881793217601617,0.10962815867467636
6.416899999999999,4.887244233049165,0.1092246034259857
6.419296,4.88841150775016,0.10891591169446693
6.421684,4.8859938898389,0.10864631551873632
6.424064,4.879664618233424,0.10849165256568563
6.426468000000001,4.8790621096134785,0.10826053030088316
6.428852,4.882044493605788,0.10799562362482112
6.4312320000000005,4.8842354816651765,0.10773273236856741
6.433628,4.89098974972484,0.10736999958320485
6.436012000000001,4.902539615210255,0.10694383376890068
6.438392,4.914741107001729,0.10652821559939649
6.440796,4.9289446995396204,0.10608196571802461
6.443184,4.951808321369236,0.10551566826692985
6.44556,4.972110763944994,0.10502433758514419
6.447964,4.991062732080393,0.1045721419213497
6.450352,5.009176082454632,0.10418255629013554
6.452732,5.02579918876165,0.10384674600249484
6.455127999999999,5.04842859730792,0.10342448596760526
6.457512,5.076133142533662,0.10292176091417168
6.459908,5.100485112572628,0.1024867347052695
6.4623040000000005,5.123486608171234,0.10208900206201094
6.464692,5.146627873396701,0.10168570652204748
6.467071999999999,5.164694001942696,0.1013584200336467
6.469468,5.181130116794611,0.10108904293875509
6.471851999999999,5.19570390052697,0.1008379354952322
6.474232,5.206133713139635,0.10066017523513501
6.476628000000001,5.21521305131194,0.10052278444076651
6.4790160000000006,5.226806346909862,0.10037643358879252
6.481412,5.231694492134231,0.10036483385080382
6.483804,5.234440766985323,0.10039176648208711
6.486192,5.237326811463275,0.10040941142677275
6.4885720000000005,5.239281690381448,0.10043669056298313
6.490975999999999,5.238303302993427,0.10050139476707638
6.493364000000001,5.2385356204189035,0.10053815245929937
6.495743999999999,5.241980743404297,0.10051930306638546
6.49814,5.244634470456772,0.10050059465710368
6.500528,5.244354931203051,0.10051901561110271
6.502908000000001,5.241002356016275,0.10058274594978586
6.505311999999999,5.236578845642861,0.10066374305254945
6.507700000000001,5.235368140829362,0.10069085809621899
6.510079999999999,5.235647680083082,0.10067271848436686
6.512479999999999,5.233645579336666,0.10069983437987041
6.514867999999999,5.2347165145233046,0.10068144386225578
6.517248,5.237137924150301,0.10062612967535955
6.519652,5.241561434523716,0.10054251581544967
6.52204,5.247055880083768,0.10044070718301695
6.52442,5.249896598591347,0.10035734989722536
6.526824,5.246079388553616,0.10034886732226465
6.529212,5.245614753702662,0.1002747220511516
6.531592000000001,5.25036502515804,0.10011785005538351
6.533988,5.252182030307223,0.09999794112311756
6.536376,5.254138805083266,0.09986901521490037
6.538756,5.257585823926528,0.09969478233337449
6.541151999999999,5.259310281277092,0.09952992192415892
6.543539999999999,5.259172407508103,0.0993839253432429
6.54592,5.256380806686637,0.09925516190422594
6.548316000000001,5.256941781051947,0.09906245136591471
6.5507040000000005,5.252567388364645,0.09893276101198573
6.553083999999999,5.2484725349310635,0.09878489585477317
6.555488,5.247590487057398,0.09858448641117956
6.557875999999999,5.24763960474351,0.09837592626284983
6.560256,5.251181067243258,0.09809735862609528
6.56266,5.259937436049338,0.09774328058310233
6.565043999999999,5.2720463800421955,0.09733285422695712
6.567424,5.286716503288909,0.0968656447293267
6.569819999999999,5.29859312985629,0.09642242407612117
6.572208000000001,5.314753497170223,0.0959132344538911
6.574587999999999,5.335197605230709,0.09533246275220776
6.576992,5.355781482918058,0.09474432693737785
6.57938,5.366354856873321,0.09428185258345907
6.58176,5.38028080601536,0.09376053438993381
