Time,Force,Position
5.562568000000001,0.05465019596176317,0.0
5.5649560000000005,0.06426074269414762,0.0
5.567335999999999,0.07186918868011524,0.0
5.569728,0.07654436835988769,0.0
5.572115999999999,0.08308187915921679,0.0
5.574496,0.09162149070496273,0.0
5.5769,0.10016110225070866,0.0
5.579288,0.10991141860995335,0.0
5.5816680000000005,0.12273477090225339,0.0
5.584071999999999,0.1335560224481366,0.0
5.586460000000001,0.14623960511357645,0.0
5.588836000000001,0.15785225259237776,0.0
5.591244,0.1677229866976018,0.0
5.593628000000001,0.1771744119222452,0.0
5.596012,0.18913979457250316,0.0
5.598407999999999,0.19817191091656594,0.0
5.600792,0.2085545017009877,0.0
5.603172000000001,0.2190768621122696,0.0
5.605575999999999,0.22987876177727198,0.0
5.60796,0.2388183303227177,0.0
5.610340000000001,0.25190186998785735,0.0
5.612743999999999,0.26112097778702353,0.0
5.615131999999999,0.27355289114610526,0.0
5.617512,0.2918513371175773,0.0
5.619916,0.3074960560365746,0.0
5.622299999999999,0.32020750864937675,0.0
5.62468,0.3309168605157621,0.0
5.627076000000001,0.3373424716355933,0.0
5.6294640000000005,0.33468874458311854,0.0
5.631848,0.3351080534636992,0.0
5.634252,0.32952106010502924,0.0
5.63664,0.3272866419331351,0.0
5.63902,0.32076848301468686,0.0
5.641416,0.3126675322304024,0.0
5.643800000000001,0.3007021495801444,0.0
5.646184,0.2860358180491686,0.0
5.648579999999999,0.26934803389089507,0.0
5.650964,0.25252048010576134,0.0
5.653344000000001,0.23462199113398904,0.0
5.65574,0.21795355885659637,0.0
5.658132,0.1981927387652674,0.0
5.660512000000001,0.1793630842337168,0.0
5.662908,0.15932272488866742,0.0
5.665296,0.13634909923742292,0.0
5.667676,0.11416686951909648,0.0
5.6700800000000005,0.0929158053605484,0.0
5.672468,0.07366684194841715,0.0
5.674848000000001,0.05749091446934129,0.0
5.677244,0.051624381856950945,0.0
5.679632,0.04668901480433893,0.0
5.682015999999999,0.04696855405805933,0.0
5.684419999999999,0.04375574849814375,0.0
5.686804,0.042033187005447316,0.0
5.689183999999999,0.040310625512750886,0.0
5.691587999999999,0.03965899920669298,0.0
5.693975999999999,0.045712523274186685,0.0
5.696356,0.05630145739459262,0.0
5.69876,0.06661085226127814,0.0
5.701148,0.07771164306088177,0.0
5.703528,0.09023610421858055,0.0
5.705932000000001,0.10385085244379871,0.0
5.708316,0.11639466548237835,0.0
5.710699999999999,0.12693637777454114,0.0
5.713104,0.13840925562648224,0.0
5.715488000000001,0.15174446459797997,0.0
5.717867999999999,0.16214640726328255,0.0
5.720264,0.1726881195554453,0.0
5.722652,0.18108796147433107,0.0
5.725032000000001,0.18304284039250476,0.0
5.727428,0.17992258263120625,0.0
5.729816,0.17372928893685236,0.0
5.732196,0.16767576486935867,0.0
5.734591999999999,0.16613829897389637,0.0
5.736979999999999,0.16339012826493532,0.0
5.739364,0.16171289274261277,0.0
5.741759999999999,0.15575191647373612,0.0
5.744147999999999,0.14699744352552452,0.0
5.746528,0.13866227945789353,0.0
5.748924000000001,0.12967548908420465,0.0
5.751312,0.11699190641876481,0.0
5.753696,0.10623533272413632,0.0
5.756092000000001,0.10162293503774938,0.0
5.7584800000000005,0.10641284488989347,0.0
5.760859999999999,0.11990621414626755,0.0
5.763264,0.1457351572473678,0.0
5.765651999999999,0.18501783120807594,0.007707278805408838
5.768032,0.22681256673652933,0.015965651514077382
5.770436,0.27228284681798365,0.02515746723005595
5.772824,0.32794683037088707,0.034423089508616
5.775204,0.39967105000763004,0.04323475150797419
5.7776,0.4901564546089303,0.05131978596487381
5.779988,0.5922332589502818,0.05917935634383262
5.782368,0.694959793739822,0.06728658006274876
5.784763999999999,0.800570477149445,0.07581106604505872
5.787152000000001,0.9131620584706014,0.08442164496668908
5.789532,1.0411622495695394,0.0927239848929699
5.791928,1.1821968626475048,0.10077377603988023
5.794312,1.327466098785912,0.10896104303518539
5.796708000000001,1.4794839154103752,0.11720783675197521
5.799111999999999,1.647022241492118,0.12527939820484613
5.801500000000001,1.8211519224100454,0.13326746072622883
5.80388,1.9957481340367964,0.14116424811370148
5.806276,2.1651332310729536,0.14889628505789299
5.808664,2.322696506801451,0.15656906473273333
5.811044000000001,2.4626167545802735,0.16432049074890107
5.81344,2.593831647096996,0.16439001224674793
5.815828,2.7323579903229547,0.16364907946164625
5.818211999999999,2.874984874556102,0.16175510285236658
5.820608,3.0072329597205667,0.1597407771989218
5.822996,3.127052923241688,0.15812449381322294
5.825376,3.226481688104172,0.15739019218633876
5.827780000000001,3.3144116010252227,0.15698209596063736
5.830164,3.4047648194311404,0.15615422193920508
5.832547999999999,3.4977283347770274,0.15475035060332115
5.834948000000001,3.5785432677332913,0.15331729395087929
5.8373360000000005,3.640085159045801,0.15233709281290353
5.83972,3.687381923565784,0.15166228579008778
5.842116000000001,3.734168727264439,0.15074034527340802
5.8445,3.7747660289844784,0.14968893017027757
5.846883999999999,3.7918537701424517,0.14906419491419376
5.849288,3.7939049885749805,0.14868050788020498
5.851672000000001,3.7892057306635847,0.14844652919294887
5.854051999999999,3.7817583020432273,0.14844002434915124
5.856451999999999,3.7754271345798824,0.1485367571389072
5.858836,3.7701669023031763,0.14859293507556895
5.861216000000001,3.7592271288691825,0.14875876324953394
5.863619999999999,3.7369735990909896,0.14926472702766053
5.866008000000001,3.712670746738136,0.1498850475785665
5.868388,3.6921378825947695,0.15054134834767793
5.870792,3.6649470899060943,0.1514175311868895
5.87318,3.639014223859162,0.15218279041273597
5.87556,3.614990910760029,0.15281525231741613
5.877955999999999,3.5881268791533176,0.1535785367086141
5.880343999999999,3.560424229785445,0.15439522485443105
5.882724,3.5397515960152184,0.15505086020160525
5.885120000000001,3.525504573364824,0.1554699962310812
5.887508,3.5100468459009297,0.15595713795492264
5.889887999999999,3.4928193351160965,0.156547003498611
5.892291999999999,3.4751252936224386,0.15725738095350478
5.894679999999999,3.4727492099658153,0.15751385434434442
5.897055999999999,3.478893385974057,0.1575177072668354
5.89946,3.4891815331019926,0.15737102065360822
5.901847999999999,3.50426527765568,0.1570807636195081
5.904228,3.5266585770607333,0.1566088690181507
5.906632,3.555150726503655,0.15600868142787452
5.90902,3.588857782252908,0.15521147311997582
5.9114,3.6199111109496873,0.15444917067904188
5.913796,3.645889302966994,0.1538699367255357
5.916180000000001,3.6720072646111612,0.1532825790666314
5.918564,3.7078089689054488,0.1524545304902066
5.920968,3.7471955658119898,0.15153338766347457
5.923352,3.7867219323453902,0.15060937776032227
5.925732,3.8204289880946436,0.14979225383767691
5.928132,3.8493404464181458,0.14912972474464742
5.930515999999999,3.875598177689173,0.1485443419365231
5.932896,3.8995742689600625,0.14805976347156416
5.9353,3.927462013925169,0.14737824116586407
5.937683999999999,3.9513927792256847,0.1467480234419213
5.940064,3.9780244934069184,0.1459876875426901
5.9424600000000005,4.0023745675880145,0.14535251298256763
5.944844,4.021137648410442,0.14486315444368464
5.947227999999999,4.0363158366206155,0.1444609264503091
5.949624,4.044464009233143,0.14420524929540246
5.952007999999999,4.045582166248024,0.144095943075494
5.954404,4.043255200277513,0.14404970278258242
5.956799999999999,4.04185939986678,0.14398141609088608
5.959187999999999,4.047960145762517,0.14366836616674275
5.961568,4.056901610165832,0.14321821859144307
5.963972,4.066541922703449,0.14270854198876792
5.966355999999999,4.072597342628811,0.1422755922449691
5.968736,4.076231352927177,0.14193660250521342
5.97114,4.080936298412181,0.14156770424620418
5.973528,4.087643344643602,0.14114005951398104
5.975908,4.095049239009323,0.14064459081383446
5.978312000000001,4.104037925240881,0.14013743015106137
5.980700000000001,4.1144696337114155,0.13962729502940302
5.983079999999999,4.123411098114731,0.13919325271833088
5.985484,4.138778173637878,0.13856626647245565
5.987871999999999,4.1507001261756304,0.1380003645923529
5.990252,4.158478107593689,0.13755444078664586
5.992656,4.173705413489976,0.13695602080970817
5.995044,4.190795050505818,0.1363213814465469
5.9974240000000005,4.210166327521798,0.13560265193812177
5.99982,4.230748309351276,0.13483964125731987
6.002208,4.252633543792871,0.13409346059649613
6.004588,4.27116620304769,0.1334600619437993
6.006983999999999,4.285275351929094,0.13297287901014507
6.009368,4.299524270437358,0.13248068515521128
6.011748000000001,4.309629217825929,0.13210063149606074
6.014151999999999,4.318663230027862,0.1317497056957148
6.016544,4.331049817416569,0.13129551066874914
6.01892,4.338640807379525,0.1309455227606883
6.021319999999999,4.345580171036423,0.13058732295025627
6.023704,4.352891621745658,0.1302597425440151
6.026083999999999,4.360203072454894,0.12993625453528623
6.02848,4.366351040178874,0.12958810228970793
6.030868,4.3719871512236566,0.129221144663965
6.033248,4.36905578077533,0.12909672641678077
6.035648,4.364494396632925,0.12905151410823457
6.038031999999999,4.359001846930742,0.1290256005958599
6.0404160000000005,4.348062073496748,0.12909494533916815
6.042820000000001,4.334049264129699,0.1292433122487066
6.045204,4.3216192466284875,0.1293783772929331
6.047587999999999,4.303415244313501,0.12971080928201573
6.049984,4.281766119013123,0.1300940969787432
6.052372,4.260396532966464,0.13045585790272296
6.054752000000001,4.23716461580025,0.13086309788865363
6.057155999999999,4.20815871382026,0.1314766709807054
6.059544000000001,4.180735603706109,0.13208431294117187
6.061923999999999,4.15852739989829,0.13253358474811766
6.064323999999999,4.134317095344053,0.1330272098135432
6.066708,4.110758417095875,0.13353830164311592
6.069092,4.091296488139148,0.1339997994851014
6.071488,4.072905494369059,0.13442805485129838
6.073876,4.048787737613439,0.1349906822400916
6.07626,4.025973233469935,0.1355639082632541
6.0786560000000005,4.006464082684965,0.1360913033323169
6.081044,3.992681694885524,0.13649602889546422
6.083423999999999,3.9830432782057774,0.13678532917159159
6.08582,3.978759537459224,0.1369131857579419
6.088208,3.977269293392004,0.1369829448240463
6.090591999999999,3.980574646750537,0.13694551299459673
6.092995999999999,3.9857423312286264,0.13687231941661404
6.095383999999999,3.9991979579461034,0.13657171220527764
6.097759999999999,4.015586850969775,0.13620105131568175
6.100164,4.032347831045785,0.1358593547212385
6.102551999999999,4.055906509293964,0.13536254817436597
6.104932,4.084028467542416,0.13470011469279705
6.107336,4.113500900231229,0.13398136968679009
6.109724,4.137758426613709,0.13342018443189096
6.112104,4.160945017809549,0.13288937050860813
6.114508000000001,4.190277680871501,0.132200823634312
6.116892,4.218027552067616,0.13153573333181862
6.1192720000000005,4.246708588823511,0.1308602868799132
6.121675999999999,4.282187323751573,0.1300275245300285
6.124064000000001,4.318876763493133,0.12916164029058586
6.126443999999999,4.351841540995582,0.12837536223910131
6.128848,4.383363296259053,0.1275955778737899
6.131236,4.414745281895666,0.1268408763298752
6.133616,4.4438456275321405,0.1261710105473691
6.136011999999999,4.468662232422061,0.1256172076131975
6.138400000000001,4.490405801378926,0.12514383977897162
6.14078,4.510147269589374,0.12472301864421861
6.143176,4.532310147426819,0.12424138496685436
6.14556,4.55153975895807,0.12381750392203156
6.14794,4.572259614556539,0.12333251993634889
6.1503440000000005,4.5900462038488135,0.12291533159456393
6.152728,4.6066220883275895,0.12253568965016157
6.155108,4.624548447246724,0.12211412838117391
6.1575120000000005,4.645687611725774,0.1216163067476117
6.159896,4.671762143257435,0.12102881785481003
6.162276,4.6949034084829036,0.12050908523989676
6.164672,4.7191156088950095,0.11997166289144277
6.167059999999999,4.73974291669486,0.11948050851493885
6.16944,4.756505792628739,0.1190594293855578
6.171844,4.770335402256423,0.1186922186939202
6.174232,4.784956407817026,0.11832027577631642
6.176612,4.800508578937405,0.11793749664409611
6.179016000000001,4.811404922258895,0.11762235900156529
6.181404000000001,4.821370100020605,0.11732184755865326
6.183783999999999,4.83426854408851,0.11696736110108652
6.186188,4.849448628156552,0.1165561023603142
6.188575999999999,4.862906150731899,0.11616208067500138
6.190956,4.871800393306971,0.11589215184763406
6.19336,4.884559067748017,0.11555911565571912
6.195748,4.897597281442783,0.11520879244403533
6.1981280000000005,4.9084936247642705,0.11490528366846835
6.200524,4.9212522992053165,0.11457568273356705
6.202912,4.932380959952283,0.11431424126811734
6.205292,4.940296815139333,0.11412283168884092
6.207687999999999,4.942346137713994,0.11402885409275079
6.210072,4.944255690661794,0.11394565096939457
6.212452000000001,4.943231977303398,0.11390981965911029
6.214848,4.946072695810976,0.11381495460282606
6.217236,4.953057385438247,0.11364250335722831
6.219616,4.961113010252159,0.11344761956287931
6.2220200000000006,4.96972771357351,0.11321314936531408
6.224408,4.979925208760697,0.11297780731390866
6.226787999999999,4.996129006187135,0.11264272793537022
6.229188000000001,5.015685378800349,0.1122381166794567
6.231576,5.035800829921004,0.11179776924777134
6.23396,5.052051849175685,0.11141443616941513
6.236356000000001,5.070025429923063,0.11101844678242008
6.23874,5.087347384364382,0.11061550382856732
6.24112,5.105600504365481,0.11020783310907967
6.24352,5.1222236106725,0.10986071401358977
6.245904,5.141128356979656,0.10946318124494289
6.248284,5.1591019377270335,0.10907777219591977
6.250688,5.175492726608576,0.10869524786130878
6.253076,5.192954450676756,0.10829063454870733
6.255459999999999,5.213069901797411,0.10786069738906914
6.257864,5.231043482544788,0.10747224693994055
6.260248000000001,5.2496686895982245,0.10709080029741443
6.262627999999999,5.266291795905243,0.10674448497867903
6.265032,5.280773031838985,0.10644409613403412
6.26742,5.297535907772863,0.10609767083166295
6.2698,5.312948309266384,0.10579027392573202
6.272195999999999,5.323704882961013,0.10553635618253836
6.274583999999999,5.331388420722585,0.10533502389615308
6.276964,5.33679031848402,0.10518437504437372
6.2793600000000005,5.3391191803124,0.105082381194692
6.281744,5.34731457475317,0.10490347725547866
6.284127999999999,5.352996011768327,0.10473585119349864
6.286524,5.355883952104149,0.10459716642588801
6.288907999999999,5.352905359827579,0.1045365589173141
6.291288,5.35169655087195,0.1044110557522984
6.293692,5.3496963459834035,0.10428643294415053
6.29608,5.353190586654909,0.1040613044180494
6.29846,5.35961809363261,0.10379981680117349
6.300851999999999,5.367396075050669,0.10350326309799548
6.303240000000001,5.376943839789667,0.10314703333361222
6.305636,5.386771143782386,0.10277143685848328
6.308032000000001,5.396226360722769,0.10236908589304293
6.310420000000001,5.404750412103372,0.10197561674789118
6.312799999999999,5.410341197177781,0.10161817353735546
6.315204,5.413650342252052,0.10130782244438775
6.317588000000001,5.420963688819156,0.10094536069024153
6.319967999999999,5.429208200946038,0.1005716012929278
6.322372,5.434239907513005,0.1002496277161749
6.324756000000001,5.437269513333557,0.09995506280792042
6.327135999999999,5.443092615833443,0.09963274748784894
6.329544,5.4437008120269965,0.09939336332428265
6.331928,5.443749929713108,0.09918810574416768
6.334308,5.448454875198112,0.09893692993384004
6.336712,5.456372626243032,0.09862963665664576
6.3391,5.464662464340289,0.0983519069274325
6.341480000000001,5.471322288743467,0.09812762272915379
6.343876,5.47434999870615,0.09798682979439863
6.346264,5.472442341616219,0.09790719775611877
6.348648000000001,5.471186310832346,0.09783675198836866
6.351044,5.467229331167756,0.09783553854221622
6.353427999999999,5.464203517062944,0.09782581614973132
6.355812,5.463551890756885,0.09781684275022831
6.358207999999999,5.466624926689939,0.09777476432071183
6.3605920000000005,5.474912868929327,0.09765773525819693
6.362976,5.483061041541855,0.09754945505318781
6.365372000000001,5.4872050126615495,0.0974915019111057
6.3677600000000005,5.494701558968019,0.09737598727230293
6.370139999999999,5.505550680461265,0.09720107430070318
6.372544,5.514537470834953,0.09704071835162045
6.374931999999999,5.525526361955059,0.09685788328119119
6.377312,5.534932461209329,0.09667221205442068
6.379712,5.549833006023651,0.09639536371925372
6.382099999999999,5.560729349345141,0.09616806799550306
6.38448,5.572556858226407,0.09593422148987868
6.386875999999999,5.580799474495421,0.09572394772436249
6.389264000000001,5.5905323348316545,0.09547091401207491
6.391648,5.596540532928774,0.0952498634582317
6.394052,5.606552932518728,0.0949789300748104
6.39644,5.612840669869568,0.09474038518811022
6.398823999999999,5.617405845727712,0.09450816927464471
6.401228,5.621971021585855,0.09427621370393438
6.403612000000001,5.6258845711379415,0.09403667015343721
6.405992,5.627284163264412,0.09380525610503126
6.4084,5.62440001464433,0.09363926583938527
6.410784,5.621515866024247,0.09347327557373927
6.413168000000001,5.618911256657883,0.09328988043844
6.415564,5.613885237664524,0.09315578296860004
6.417952,5.615796686470192,0.0929468304874097
6.420332,5.622783271955335,0.09267667757806491
6.422727999999999,5.6289784615075575,0.09240885439586781
6.425115999999999,5.639177852552614,0.09209603192358391
6.427496,5.646304207664615,0.09182335857152159
6.4299,5.655712202776755,0.09151148145176072
6.432283999999999,5.664189032329116,0.09120789633333326
6.434664,5.677880768187808,0.09084000646101467
6.437060000000001,5.691572504046501,0.09047323859868384
6.4394480000000005,5.707266340651611,0.09008370661317752
6.441827999999999,5.721889242070082,0.08971066018766656
6.444232,5.739445409794748,0.08930974164389965
6.446616000000001,5.763287419012386,0.08883277438901102
6.449,5.7892712986033,0.0883307105182388
6.451395999999999,5.814463782261296,0.0878305117778519
6.453784000000001,5.835372525172738,0.08738464752946479
6.456163999999999,5.857212433643959,0.08693141099627244
6.45856,5.878540485435981,0.08646074717881846
6.460948,5.901591098720701,0.08598660504916263
6.463328000000001,5.925992186445778,0.08548446847264789
6.465731999999999,5.938520439319216,0.08510053286162354
6.468119999999999,5.947835886632737,0.08476010394348414
6.4705,5.953286902080285,0.08445261623002993
6.472892,5.957527212714335,0.08416789448703561
6.47528,5.961627753721524,0.08389139094856672
6.47766,5.966938999542213,0.08359468678298065
6.4800640000000005,5.9722502453629005,0.08329854517202714
6.482452,5.972067045623536,0.08307832218246883
6.484831999999999,5.973885946630588,0.08284022536716591
6.487235999999999,5.974122055771803,0.08259725472536966
6.489623999999999,5.976639804913157,0.08232143896056247
6.492004,5.9783661581215926,0.08204424948870082
6.494408,5.975017374650556,0.0818177664298571
6.496796,5.970737425619739,0.08159737907172074
6.499176,5.966177937335203,0.08139201628741735
6.501572,5.967624751289918,0.0811332275351724
6.503959999999999,5.968559708565435,0.08085665584803388
6.50634,5.970286061773869,0.08058259338629431
6.508744,5.972152184609165,0.08030215705670529
6.511127999999999,5.969082940391848,0.08006025377284853
6.513508,5.971880228786921,0.07977225533616222
6.515908,5.978821488301687,0.0794434154017094
6.518295999999999,5.989487410055568,0.07909591915924313
6.520676,6.000293101436309,0.07874155066446419
6.523071999999999,6.0121697280036885,0.07837623014111897
6.525460000000001,6.024697980877126,0.07802448969057645
6.527839999999999,6.036295068190785,0.07767764155906859
6.530236,6.052036126624138,0.0772903991658048
6.532624,6.064564379497575,0.07694052906661722
6.535004000000001,6.078675424236848,0.07659615794924209
6.5374,6.088223188975847,0.07631465535519764
6.539792,6.096700018528207,0.07604538184820371
6.542171999999999,6.102103812147514,0.07580234462566371
6.544568,6.104155030580042,0.07560231642983745
6.546956,6.104343917893014,0.07541066656639939
6.549352000000001,6.104952114086567,0.07519831401836384
6.551748,6.109145202892374,0.07497740737088125
6.554136,6.116131788377515,0.07474560589790649
