Time,Force,Position
6.336444,0.11069024317882649,0.0
6.338839999999999,0.10645372426051551,0.0
6.341224,0.10342791015570328,0.0
6.34362,0.0942560241847803,0.0
6.346019999999999,0.08570780283499968,0.0
6.348407999999999,0.07501771111194201,0.0
6.350788,0.062325518642467465,0.0
6.353192,0.0527063621060483,0.0
6.35558,0.04618820318760005,0.0
6.35796,0.0393905050154314,0.0
6.360364000000001,0.04446564169490362,0.0
6.362748,0.05394502860446256,0.0
6.365132000000001,0.06195343159012997,0.0
6.367528,0.06460715864260472,0.0
6.369911999999999,0.06297714494852535,0.0
6.372296,0.06521156312041947,0.0
6.374692,0.06637504610567507,0.0
6.377076000000001,0.06097314834423927,0.0
6.37946,0.058644286515858846,0.0
6.381856000000001,0.061250791740090446,0.0
6.384244000000001,0.06571962808387867,0.0
6.386623999999999,0.06883798998730797,0.0
6.38902,0.07474984857007222,0.0
6.391404,0.0855970742054485,0.0
6.393784,0.0951690089136245,0.0
6.396188,0.10688281399507756,0.0
6.398576,0.11752568388989208,0.0
6.400956000000001,0.12844809303842705,0.0
6.403352,0.13440717344943445,0.0
6.40574,0.13878346199460564,0.0
6.408136000000001,0.14129741942022017,0.0
6.410532,0.14008671460672145,0.0
6.41292,0.139807175353001,0.0
6.4153,0.14581347759225152,0.0
6.417695999999999,0.15703468613783453,0.0
6.420083999999999,0.16625379393700065,0.0
6.422464,0.1802684991619186,0.0
6.424860000000001,0.19284018214786053,0.0
6.4272480000000005,0.19768300140185555,0.0
6.429627999999999,0.1947969569239035,0.0
6.432028000000001,0.1951237180058671,0.0
6.434412,0.19437954390119216,0.0
6.436795999999999,0.1888397723707654,0.0
6.439192,0.1815774393476422,0.0
6.44158,0.18269559636252392,0.0
6.443975999999999,0.17953001263085147,0.0
6.446372,0.17822676001873566,0.0
6.44876,0.17291930591378615,0.0
6.4511400000000005,0.17347838442122698,0.0
6.453536,0.17669118998114255,0.0
6.455924,0.17268698848830882,0.0
6.458304,0.1698934918089739,0.0
6.460699999999999,0.16495812475636187,0.0
6.463084,0.15722926102441487,0.0
6.46548,0.1464273613594125,0.0
6.467876,0.13762756244082697,0.0
6.470264,0.12041931179932108,0.0
6.472644000000001,0.10961741213431872,0.0
6.475047999999999,0.1062648369475429,0.0
6.477432,0.10863902474629723,0.0
6.479812000000001,0.10179410474588543,0.0
6.482215999999999,0.09615988955897235,0.0
6.484603999999999,0.09226749600808332,0.0
6.486984,0.08823533283033408,0.0
6.489388,0.07754524110727641,0.0
6.491776,0.0689970197574958,0.0
6.494156,0.059657402474797075,0.0
6.496560000000001,0.05404244743121163,0.0
6.498944,0.04656516126806953,0.0
6.501328000000001,0.037225543985370806,0.0
6.503724,0.03202989782236598,0.0
6.506107999999999,0.026554712405640744,0.0
6.508492,0.023221397362192565,0.0
6.510888,0.020679478251662498,0.0
6.513272000000001,0.01813755914113243,0.0
6.515651999999999,0.01359353928418551,0.0
6.518044,0.01359353928418551,0.0
6.520432,0.010911850546795233,0.0
6.522812,0.006507600316708524,0.0
6.525207999999999,0.00024101896706517288,0.0
6.527596000000001,0.00012050948353258644,0.0
6.529992,0.0,0.0
6.532387999999999,0.0,0.0
6.534772,0.0008193576178336375,0.0
6.537156,0.0017784848625274846,0.0
6.5395520000000005,0.0038085472938598625,0.0
6.541936,0.006909544911830772,0.0
6.544316,0.014014744022635382,0.0
6.5467200000000005,0.0172555112674665,0.0
6.549108,0.0172555112674665,0.0
6.551488000000001,0.01770278183296266,0.0
6.553891999999999,0.021874714637572103,0.0
6.556276,0.0281885178154586,0.0
6.55866,0.03729581767268006,0.0
6.561056000000001,0.046403117529901526,0.0
6.5634440000000005,0.05537064776026278,0.0
6.565823999999999,0.06554888280412277,0.0
6.56822,0.0735852474747057,0.0
6.570604,0.08162161214528862,0.0
6.572984,0.08872681125609323,0.0
6.575392000000001,0.09676317592667616,0.0
6.577776,0.1057307061570374,0.0
6.580156000000001,0.11041449564084455,0.0
6.582552,0.1132079923201795,0.0
6.58494,0.11465101455915552,0.0
6.5873360000000005,0.11595426717127132,0.0
6.589740000000001,0.11297377903683298,0.0
6.592128000000001,0.10586857992602837,0.0
6.594507999999999,0.10675252365756356,0.0
6.596904,0.1139502705669852,0.0
6.599288,0.12177168209754925,0.0
6.601668,0.12307493470966505,0.0
6.604075999999999,0.12102561213500505,0.0
6.60646,0.11525162732123179,0.0
6.608840000000001,0.10961741213431872,0.0
6.611236,0.10412296657426585,0.0
6.613624,0.09394473153040589,0.0
6.616004,0.08590836685982296,0.0
6.618399999999999,0.07787200218924002,0.0
6.620787999999999,0.07209801737546673,0.0
6.623168,0.06406165270488379,0.0
6.625564000000001,0.055214631958055115,0.0
6.6279520000000005,0.05053084247424799,0.0
6.630331999999999,0.04691798817707939,0.0
6.632728,0.044515838693409526,0.0
6.635116,0.04118252364996135,0.0
6.637511999999999,0.04225345883659988,0.0
6.639908,0.04225345883659989,0.0
6.642291999999999,0.0381287478602336,0.0
6.644672,0.030931000950811933,0.0
6.647076,0.02266231885475173,0.0
6.649464,0.017187133438026487,0.0
6.6518440000000005,0.012922652834799986,0.0
6.65424,0.00958933779135181,0.0
6.656624000000001,0.00611625312104342,0.0
6.659008,0.002643168450735031,0.0
6.661403999999999,0.002643168450735031,0.0
6.663792000000001,0.002643168450735031,0.0
6.666183999999999,0.005836713867322999,0.0
6.66858,0.005696944240462788,0.0
6.670968,0.009030259283910966,0.0
6.673348000000001,0.011451668910908448,0.0
6.675751999999999,0.016275228021575786,0.0
6.678136,0.020307391199325016,0.0
6.680516000000001,0.024339554377074246,0.0
6.682919999999999,0.029442652741462003,0.0
6.685307999999999,0.03042104012948348,0.0
6.687688,0.030421040129483476,0.0
6.690084000000001,0.030421040129483476,0.0
6.692472,0.030421040129483476,0.0
6.694851999999999,0.04184772252573914,0.0
6.697248,0.0701260369387524,0.0
6.699636,0.10864527665145794,0.0
6.702016,0.1491647212527111,0.0
6.704416,0.19471018484732408,0.01004526522550977
6.706804,0.2492386470998874,0.01991773244037915
6.7091840000000005,0.31661453987637467,0.02921434945464376
6.711588000000001,0.3948829842586121,0.03812540059027875
6.713976000000001,0.47302902329944774,0.047242839523210636
6.71636,0.5583901735351634,0.05633340268357906
6.718764,0.6444936020176847,0.0658023189789764
6.721148,0.7403714250910746,0.07522810299175836
6.723528,0.846815038688251,0.08435676711588232
6.725928,0.9650823694509559,0.09322923376753232
6.728312000000001,1.091356207341459,0.1019548508032498
6.730696,1.219071171613069,0.11089933955819498
6.733091999999999,1.3589819401025451,0.1198054565549043
6.735480000000001,1.5170302289354358,0.12829976859407105
6.73786,1.6841106341123897,0.13648899166520315
6.7402560000000005,1.8550101451849428,0.144381365317915
6.742644,2.00698832341264,0.15236313409464383
6.745028,2.132431126973459,0.16064346807213778
6.7474240000000005,2.2458632219136456,0.16907301855336554
6.749812,2.3641853579360705,0.17729240364501017
6.752196,2.4800426542189937,0.17531083297831876
6.754588,2.582867424380759,0.17350498689320587
6.756976,2.661298690248923,0.17266779902821086
6.759356,2.724413894137922,0.1724781024696817
6.761752,2.789857959855302,0.17196078650323401
6.764139999999999,2.856187865162086,0.171263037601739
6.766524,2.9226141099832255,0.16996739427106433
6.768924,2.9758680590563467,0.168739642472236
6.771312,3.0081736268212595,0.16810779716122304
6.7736920000000005,3.0266061548459837,0.16795691724419212
6.776088,3.039778450594002,0.1679315665667984
6.778476,3.058447087759943,0.16730020650335997
6.7808720000000005,3.066177847349759,0.1666642223100389
6.783268,3.0518420686164855,0.16664657563705634
6.785656,3.0276355557779877,0.167055530080671
6.788036,3.0025885293204597,0.16780287526941848
6.79044,2.990995233722539,0.16826967331417364
6.792828,2.9882942848418206,0.16845607905928917
6.795208000000001,2.986199636296787,0.16847219095093438
6.797604,2.976935202527247,0.1687370991646175
6.799988000000001,2.966784929168303,0.1691983882412783
6.802372,2.965432558870074,0.16954886862948076
6.804776,2.9836346653271906,0.16916278901972473
6.80716,3.0081698351055213,0.16836323731680067
6.80954,3.023720110368032,0.16779431013801896
6.811935999999999,3.0334038530181524,0.16748750452919173
6.814323999999999,3.044715713504484,0.16732901896531066
6.816708,3.067246886678528,0.16695430927988505
6.819103999999999,3.102162751383411,0.16610480187024929
6.821488,3.1407579523570335,0.16493759361796267
6.823867999999999,3.176467108852705,0.1638071341542879
6.826272,3.205051806094243,0.16311787767095406
6.828659999999999,3.2375462611721284,0.16245241224189347
6.83104,3.280423307034436,0.16141706470962033
6.833436000000001,3.3269796891654826,0.16010904828797032
6.83582,3.3663209601016493,0.15883829385423276
6.838215999999999,3.3983526761864495,0.15782855927674025
6.84062,3.436343472682257,0.1566952741408708
6.8430040000000005,3.478151479215795,0.15552539617714434
6.845383999999999,3.519866937950716,0.15428363676729662
6.847788,3.5583242651553477,0.15302005821812464
6.850172000000001,3.5948267134418055,0.15179378759086232
6.852551999999999,3.622621910608295,0.1509820119520964
6.85496,3.6533031522527377,0.15019275258802217
6.857343999999999,3.6870574298302343,0.1492751891407171
6.859724,3.7179256629297788,0.14835693962810964
6.862128,3.7432541244988973,0.14753298311796467
6.864516,3.759270930470232,0.14699021332921128
6.8668960000000006,3.7728663268145692,0.14657611685121294
6.869292,3.7865542709575237,0.14623162694585057
6.87168,3.802663624727476,0.14578409571202536
6.87406,3.8170976388329745,0.14529121282030386
6.876464,3.830088630699497,0.1448088211067999
6.878852,3.8413098392450795,0.1444504042182248
6.881228,3.849690329283084,0.14424314407046396
6.883628,3.8624471078662603,0.14394344750683888
6.886011999999999,3.8776252960764332,0.14353847762339775
6.888396,3.8857734686889613,0.14328267447897344
6.890791999999999,3.893270014995431,0.1430272366198625
6.893179999999999,3.9000677131675996,0.14284035670587428
6.89556,3.9097986776459632,0.14257232338047482
6.897964,3.913011483205879,0.14246231755699773
6.900352,3.922138043206428,0.14211934513013932
6.902732,3.9235357394750303,0.14198269619784082
6.905128,3.926096918728888,0.14187045396268286
6.9075120000000005,3.93131182503522,0.14170408493048367
6.909896,3.9377374361550515,0.1414876265860718
6.912292000000001,3.9497972624617956,0.14106518274507712
6.914676,3.9592033617160656,0.14069745074153875
6.9170560000000005,3.965815964291,0.14039472185006258
6.919456,3.9642803942534073,0.14033722562931356
6.921844,3.963955529029313,0.14022936152609314
6.924224000000001,3.964981138245578,0.14005893001215722
6.92662,3.9637723292899487,0.13990060632407028
6.929008,3.9614925851476803,0.13977752766822368
6.931388,3.960935402498109,0.13962504352882543
6.933792,3.9583761191021205,0.13952938217106473
6.93618,3.95660823163905,0.1394252766471332
6.938560000000001,3.948042646003811,0.13950432419635347
6.9409600000000005,3.944412427421184,0.13944412574114393
6.943348,3.9400833607042562,0.13945180614251002
6.945728000000001,3.9425519921594963,0.13928003347022816
6.948124,3.9379433861888486,0.1393132761432267
6.950512,3.9381303776439514,0.13922643396035547
6.952892,3.9396678435394143,0.13907877113170913
6.955288,3.9452095109277097,0.13882371285528594
6.957675999999999,3.948469538315868,0.13864883813999884
6.960056,3.9433018538377786,0.13873465930869328
6.96246,3.9378546301059694,0.13884836518347443
6.964848,3.9350611334266334,0.138912359033441
6.967228,3.9415792923450823,0.1387604787864811
6.969628,3.9475383727560893,0.13866361802860563
6.972016,3.948562086114485,0.1387021366402241
6.9743960000000005,3.945953685032384,0.13888942923527794
6.976800000000001,3.9472097158162565,0.138974561622385
6.979188000000001,3.9455324802939344,0.13913860298490616
6.981567999999999,3.946928280704667,0.13920987457552358
6.983964,3.949674555555759,0.13921866437568275
6.986352,3.958799219698439,0.13908574275892624
6.988732000000001,3.9647110782812027,0.13906230368162756
6.991128,3.971693872050606,0.13900439504740933
6.993512000000001,3.975743399513813,0.13902523844677023
6.995908,3.9817950277234373,0.1389900606595177
6.998303999999999,3.9858445551866453,0.13901090405887853
7.000692000000001,3.989754313022993,0.13904572060303988
7.003072,3.988588934179868,0.13922168649227715
7.005471999999999,3.9946405623894927,0.13919192702893932
7.007860000000001,4.008048967278726,0.13894122911197013
7.01024,4.022388537727739,0.1386678410799231
7.0126360000000005,4.041803244856223,0.13826672202741686
7.015024,4.062056569745868,0.1378057468661733
7.017404000000001,4.082868973142956,0.137295962256895
7.0198,4.105683477286459,0.13672724052706972
7.022188,4.134923592549793,0.13596331135422135
7.024584000000001,4.161370211133793,0.13526629735707937
7.026987999999999,4.191169404904569,0.13446626068595297
7.029372,4.215893461995872,0.13379792720386247
7.031751999999999,4.24341101576651,0.1330849173931411
7.034155999999999,4.271347878417728,0.13234474751393294
7.036543999999999,4.296910553270193,0.13161917454237015
7.038924,4.319447414017845,0.13090840659721498
7.041328,4.34105310920572,0.13021531182363202
7.043711999999999,4.360516934020317,0.12957930484900915
7.046092,4.378118427715357,0.12897472566277218
7.048492,4.394137129544561,0.12838793995778125
7.050876000000001,4.4115063058141235,0.12774390162433047
7.053255999999999,4.4187252087247435,0.12736027594695348
7.055656000000001,4.425804342008501,0.12699511607058925
7.05804,4.434233949732618,0.1265769608472476
7.060420000000001,4.43521423297851,0.1263040948425663
7.06282,4.430327983612009,0.12615900201792235
7.065208,4.426744986857625,0.12602778068252504
7.067588000000001,4.427957587528994,0.12580262082983054
7.069984,4.426376691521026,0.12562792872639514
7.072376,4.422933464393503,0.1254852246826191
7.074756000000001,4.419350467639119,0.12535451078874313
7.077159999999999,4.420982377191067,0.1250979176592209
7.079548000000001,4.418470315623322,0.12493998992030324
7.081928,4.417168958869077,0.12474529118335956
7.0843240000000005,4.418800868421025,0.12449315733208353
7.086708,4.423738131331507,0.12421482475035699
7.089092000000001,4.4303979557346835,0.12391770134614716
7.091488,4.441993147190474,0.12352346055460903
7.093876,4.459734410512374,0.12299790711734537
7.096256,4.475333803460998,0.12252278837601432
7.098652,4.4918643619694,0.12203639468150246
7.101039999999999,4.5174742586501075,0.12135837298586034
7.10342,4.538009018651342,0.12078774630237413
7.10582,4.5574728434659395,0.12024699798536068
7.108207999999999,4.574515258653539,0.11977141445623572
7.110588,4.593280235333834,0.11927540769125358
7.112992,4.6075291538420995,0.1188421343964572
7.11538,4.617773870857531,0.11849763843635414
7.1177600000000005,4.629880918992518,0.11812724070819024
7.120156,4.6469233341801175,0.11766341566276843
7.122540000000001,4.6607529438077995,0.11727860903476657
7.124924,4.675234179741542,0.11690938929830902
7.127328,4.69213682530228,0.11646911105147881
7.129712,4.706106204556825,0.11608781068397331
7.132092,4.718073483064952,0.11574601693911221
7.134492,4.726176329707106,0.11546999095718627
7.13688,4.7334877804163416,0.11519780806705625
7.13926,4.736934799259603,0.11499173624869752
7.141655999999999,4.738379717356448,0.11482580523866044
7.144043999999999,4.745551398438825,0.11457310030908703
7.146428,4.749230734707565,0.1144107700644541
7.148823999999999,4.747043538363913,0.11434696049834743
7.151211999999999,4.749931478699734,0.1141879885983889
7.153608,4.755473146088031,0.11400289677305911
7.156003999999999,4.767812511648495,0.1137072796543361
7.158388,4.781874438701656,0.11339897900667148
7.160772,4.799800797620791,0.11302800409136185
7.163168000000001,4.816656221353288,0.11267854267005888
7.165552,4.831230005085645,0.11238819328751333
7.167935999999999,4.841659817698311,0.11218103838933043
7.170328,4.852369169564696,0.11195180470202318
7.172715999999999,4.858143154378469,0.11180657190824371
7.1751000000000005,4.863497830311662,0.11169350919676345
7.177496,4.866431096617857,0.11164589068850424
7.179880000000001,4.874159960349804,0.11152763149929416
7.182276,4.885753255947725,0.1113504814495196
7.184672000000001,4.899208882665201,0.11115099607031353
7.187060000000001,4.913735444569316,0.11092882212070243
7.189439999999999,4.925188970540377,0.11076453907277646
7.191836,4.931846899085685,0.1106716149284912
7.194224,4.94213694207149,0.11048205625433705
7.196604000000001,4.954149546549991,0.11027775159710693
7.199007999999999,4.961878410281939,0.11016187999713656
7.201396000000001,4.967093316588272,0.11006279970929689
7.203776,4.970725431028768,0.10996839459356637
7.206172,4.971703818416788,0.10989886396988319
7.20856,4.973892910618308,0.10979898130701671
7.210940000000001,4.980365743566383,0.10961594199826398
7.213343999999999,4.98511601502176,0.10944442254924588
7.215731999999999,4.993358631290775,0.1091912604115259
7.218116,5.004534513865984,0.1088964877474691
7.220511999999999,5.018923202001109,0.10853856630442583
7.222896,5.030658163083759,0.10820358438322555
7.22528,5.045466160099464,0.10781378131481388
7.227676000000001,5.056269955622335,0.10749240654491131
7.230064,5.065211420025651,0.10719498211359929
7.232448,5.073221718869187,0.10691094473812844
7.234844000000001,5.0813717873395845,0.10661799447824355
7.237232,5.091663726183258,0.10628514447169266
7.239611999999999,5.1011642690940135,0.1059511543150708
7.242008,5.112247603870605,0.105619616827156
7.244396,5.125193269766755,0.10526894791987634
7.246779999999999,5.145495712342513,0.10479310496764309
7.249176,5.166449781224328,0.10432814173067309
7.251564,5.187403850106145,0.10386766199171844
7.253959999999999,5.20956862380146,0.1033792050513368
7.256356,5.2314538582430545,0.102916510883516
7.258739999999999,5.247984416751455,0.10255040243156285
7.261124000000001,5.26945034231247,0.10211930573009724
7.26352,5.290496958992903,0.1017225214463315
7.265908,5.311264036419615,0.1013489394356518
7.268292000000001,5.331891344219468,0.10098767076133916
7.270688,5.35917658056463,0.10055856377844141
7.273076,5.3879520609770095,0.10009092291402873
7.275460000000001,5.417658706949167,0.09961568709586667
7.277856,5.447365352921327,0.09914165593367594
7.280248,5.475209667773927,0.09868640277433761
7.282628000000001,5.507709810425421,0.09819651740878915
7.285031999999999,5.539650874569474,0.09774405110878046
7.287416,5.577318701699058,0.09723663441386404
7.289796000000001,5.611122096962666,0.09677485533345587
7.292199999999999,5.645065261853135,0.09631022585868662
7.294587999999999,5.671651650063994,0.09595810335833867
7.296968,5.698517577528575,0.0955920043523039
7.299364000000001,5.724172800179657,0.0952525842447076
7.301748,5.749129174696437,0.09495559952863357
7.304128,5.7691501821606055,0.09471414911270734
7.306532000000001,5.79252376481155,0.0944145346075647
7.30892,5.814826412275857,0.09413631216088221
7.311299999999999,5.832193692687549,0.09391290974020693
7.313696,5.845976080486991,0.09371248322998152
7.316084,5.859898237913291,0.09350553731519082
7.318464,5.868885028286979,0.0933555264281059
7.320868000000001,5.873448308287254,0.09327668718036372
7.323256000000001,5.876289026794832,0.0932045870585307
7.325635999999999,5.880852306795107,0.09312628346810155
7.328032,5.8844844212356024,0.09305499102436544
7.33042,5.87545230489154,0.09311322255404639
7.332800000000001,5.864185770375583,0.09316116877862729
7.335196,5.847052703247237,0.0932692924223385
7.337584,5.833272211305666,0.09332119264666915
7.339964,5.81683799231162,0.09338587371779097
7.342368,5.804687514064128,0.0933888655891851
7.344756,5.790395165443358,0.0934222775815581
7.347136000000001,5.775311420889672,0.09345480315345796
7.349532,5.758784654097007,0.09347808070971957
7.35192,5.747193254356956,0.0934485469940947
7.3543,5.731877192377792,0.09344784103747096
7.356704000000001,5.709623662599598,0.093524649253613
7.359088,5.692445269500877,0.09353955961431361
7.361468,5.6772689771485725,0.09353107017130777
7.363872000000001,5.6591594184900735,0.09355259753611098
7.36626,5.641189629458434,0.09356555381676171
7.368639999999999,5.6273638115464895,0.09352390931273465
7.371036,5.611675662514988,0.09349717968549802
7.373424,5.594544491244508,0.09345920697180304
7.375807999999999,5.582208917399782,0.09337578460374704
