Time,Force,Position
6.2502,0.13029447504495065,0.0
6.252588,0.12020945272499284,0.0
6.254967999999999,0.11119536559167359,0.0
6.2573680000000005,0.10097057364485557,0.0
6.259752,0.08981461613825925,0.0
6.262135999999999,0.07786726269874482,0.0
6.264532,0.06591990925923037,0.0
6.266915999999999,0.0558348869392726,0.0
6.269296,0.045749864619314795,0.0
6.2717,0.038737878232412384,0.0
6.274088,0.033727992591926825,0.0
6.276468,0.030580438070997907,0.0
6.27888,0.026641487617150874,0.0
6.281268,0.02256276753644364,0.0
6.283648,0.021696853015651992,0.0
6.286044,0.021696853015651992,0.0
6.288431999999999,0.017897672188665174,0.0
6.290812,0.014889887294596468,0.0
6.293207999999999,0.008809066467472378,0.0
6.295596000000001,0.0028680152672084978,0.0
6.297975999999999,0.0,0.0
6.300384,0.0,0.0
6.302772,0.0,0.0
6.3051520000000005,0.0003540578415939565,0.0
6.307564,0.0027102164296047638,0.0
6.309952,0.005066375017615571,0.0
6.3123320000000005,0.007422533605626378,0.0
6.314748000000001,0.007422533605626378,0.0
6.317132,0.007422533605626378,0.0
6.3195120000000005,0.007422533605626378,0.0
6.321912,0.007422533605626378,0.0
6.324296,0.007422533605626378,0.0
6.3266800000000005,0.007422533605626378,0.0
6.329076,0.007422533605626378,0.0
6.331464,0.007422533605626378,0.0
6.333844,0.007422533605626378,0.0
6.336244,0.007422533605626378,0.0
6.338632,0.007422533605626378,0.0
6.341012,0.007422533605626378,0.0
6.343407999999999,0.007422533605626379,0.0
6.3458,0.007422533605626379,0.0
6.34818,0.007422533605626379,0.0
6.350575999999999,0.007422533605626379,0.0
6.352963999999999,0.0070684757640324235,0.0
6.355348,0.004712317176021615,0.0
6.357743999999999,0.0023561585880108077,0.0
6.360136,0.0,0.0
6.362516,0.0023561585880108073,0.0
6.364912,0.0028499860564649743,0.0
6.367299999999999,0.0033438135249191413,0.0
6.369684,0.003977410620233518,0.0
6.372096,0.007404504394882857,0.0
6.374484,0.009900432609753873,0.0
6.376864,0.01118565601112615,0.0
6.379276,0.014472980158915278,0.0
6.381664,0.017900073933564617,0.0
6.384044,0.02440020364126934,0.0
6.38644,0.025825196669501824,0.0
6.388827999999999,0.02631902413795599,0.0
6.391208,0.02631902413795599,0.0
6.393603999999999,0.026319024137955994,0.0
6.395992000000001,0.026319024137955994,0.0
6.398371999999999,0.026319024137955994,0.0
6.400768,0.026319024137955994,0.0
6.403156,0.026319024137955994,0.0
6.405536000000001,0.026319024137955994,0.0
6.407932,0.026673081979549953,0.0
6.41032,0.02453121160627289,0.0
6.412704000000001,0.03090960089786092,0.0
6.4151,0.03835892537608748,0.0
6.417488,0.04459754504081531,0.0
6.419864,0.043386840227316564,0.0
6.42228,0.04096543060031909,0.0
6.424663999999999,0.04310730097359615,0.0
6.427048,0.04031380429426119,0.0
6.42946,0.038311703547844335,0.0
6.431843999999999,0.03181157384013961,0.0
6.43424,0.033022278653638354,0.0
6.436644,0.03781787607939016,0.0
6.439032,0.043479388025933624,0.0
6.441412000000001,0.049605534823431614,0.0
6.443808,0.056381412069118265,0.0
6.446196,0.0704177264800589,0.0
6.448576,0.09143493880253305,0.0
6.4509680000000005,0.12185445866353822,0.0
6.453356,0.1574397671447635,0.0
6.455735999999999,0.20025821603161226,0.00984678411046158
6.458139999999999,0.2435866257397895,0.02075679263556844
6.460527999999999,0.28658637850813395,0.031734056116422237
6.462903999999999,0.33922075624048664,0.04220735563546897
6.465312,0.4046100166981462,0.052025512773264886
6.467695999999999,0.49011093656072213,0.0609090556295626
6.470076,0.5826871979913179,0.06984433948874647
6.472476,0.6775885295345555,0.07894259534460976
6.474863999999999,0.785337291601717,0.08797475497281423
6.477244,0.901417426020771,0.09695360682307222
6.479639999999999,1.029954874700668,0.10570155286022026
6.482028000000001,1.1642352197189691,0.11435947580255883
6.484407999999999,1.3030297270514326,0.12301806001905917
6.486812,1.4487598063250555,0.13165796173628186
6.489196000000001,1.6057564201146355,0.14004944843984948
6.491575999999999,1.7736493772257045,0.14809155888907144
6.493972,1.9392644860523742,0.1558747404067428
6.49636,2.100507098049611,0.16344628372786518
6.498755999999999,2.25197531545598,0.17098346228405864
6.50116,2.401583097600661,0.1784620263617888
6.503544000000001,2.5454187907894386,0.176121000165055
6.505923999999999,2.6938196598363593,0.1725641204584597
6.508328,2.83528685279999,0.16885950020076476
6.510716,2.9572959085226325,0.165847739127815
6.513096,3.0622663407734128,0.16370176387414465
6.515496,3.1493123099629274,0.16269354950183335
6.517884,3.238315053928486,0.16147084321411878
6.520268000000001,3.3229906270349847,0.1600124409828518
6.522664,3.393934825886025,0.15866336242173074
6.525052,3.4511004286533633,0.15749253316659245
6.527432,3.4953241572402916,0.15669522155513982
6.529827999999999,3.5332639401921173,0.15597986173825018
6.532215999999999,3.5623132722846105,0.1553071996460109
6.534596,3.5859644983314056,0.15451052641555704
6.536992000000001,3.5937878057198387,0.15404493761642934
6.53938,3.586200607472621,0.15406881151047366
6.541759999999999,3.5746545337029434,0.15439004820352698
6.544163999999999,3.562734477023059,0.15489606563245426
6.546551999999999,3.5511865073955122,0.15543644782631053
6.548932,3.531025730304483,0.15619332862737406
6.551336,3.505325181683028,0.15705780352162488
6.553724,3.4758527489942166,0.15809503949300394
6.556104,3.4501503045148914,0.1591475964324198
6.5585,3.438415343432242,0.15978249209453915
6.560887999999999,3.436226251230722,0.15995353869718243
6.563268,3.4344111419394086,0.15992829818963172
6.565672,3.423424146677172,0.16017462446774858
6.568056,3.413740404027052,0.16042032430195444
6.5704400000000005,3.4117383032806354,0.16049157788834548
6.572843999999999,3.4188155407065244,0.1602359316748488
6.575232000000001,3.430503279960931,0.15969571101376928
6.577611999999999,3.439025435483665,0.15920397979078194
6.580016,3.454298067350325,0.1585774410617892
6.582404,3.4708267300008573,0.1580542895084296
6.584784,3.490660746009923,0.1574581728642576
6.587188,3.5119850060862063,0.1567515719162596
6.589572,3.5317736961248976,0.15598741915653833
6.591952,3.5453237664988606,0.15537996999990045
6.594347999999999,3.557663132059326,0.15482851261864336
6.596735999999999,3.579174383590713,0.15400198190061626
6.599116,3.6086940381077683,0.1528853355760078
6.60152,3.638400684079927,0.15168253029535217
6.603908,3.663731041506914,0.15059666004170977
6.606288,3.6862206804263242,0.14971182007516523
6.608683999999999,3.7070330838234105,0.14903927139853326
6.611071999999999,3.73101107095217,0.1483235295264894
6.613452,3.7596921077080636,0.14740043016052734
6.615848000000001,3.7880010574116203,0.14646778979314165
6.618232,3.8144476759956194,0.14561154770861184
6.620612,3.834189144206068,0.1450253879015734
6.623008,3.8513694331626582,0.14456788722837416
6.625395999999999,3.8680378654400505,0.1440855729992225
6.627776,3.8782353606272384,0.14369704181486093
6.630171999999999,3.88140284021678,0.1434490560146277
6.632560000000001,3.8860133420452976,0.1431966989563993
6.634939999999999,3.8956517587250445,0.1428623580413487
6.637339999999999,3.9058020320839892,0.1425471350705631
6.639724,3.923029542868823,0.14201104112102125
6.642108,3.9434698592135717,0.1413641829750718
6.644507999999999,3.9580436429459307,0.14088928645817525
6.646895999999999,3.967262750745097,0.1406042176481151
6.649276,3.9782044200369597,0.14029590336172326
6.65168,3.992638434142458,0.13985618855431312
6.654072,4.005908965262701,0.13939863246619313
6.656451999999999,4.0154548341438305,0.13902756775757838
6.658848,4.0256523293310185,0.1386660986843819
6.661236,4.03207794045085,0.13846168095463332
6.663619999999999,4.0355230634362425,0.13840509511080237
6.666016,4.03561561123486,0.1384632464247247
6.668404,4.041434922019007,0.1383843101412424
6.670784,4.048045628736071,0.13829860329943947
6.67318,4.05810145843853,0.1381576775973303
6.675567999999999,4.069320771126244,0.1380398006472364
6.677948,4.086127077172627,0.13779407107170819
6.680343999999999,4.105215023219149,0.13747291611197496
6.682732000000001,4.121789011840055,0.13719178126993842
6.685111999999999,4.137292065274322,0.13694201188925412
6.687516,4.149722082775535,0.13678326734491755
6.689903999999999,4.161081165090109,0.13666029136438063
6.692284,4.1778874711364935,0.13643240227621992
6.694679999999999,4.199489374608629,0.13609761857547653
6.697067999999999,4.218809638080627,0.13584622607653454
6.699447999999999,4.23356662155235,0.13574615094745446
6.701844,4.248835461703272,0.13566747003851085
6.704232,4.26638594185433,0.13551349890874062
6.706627999999999,4.280491299019995,0.13541010025533404
6.709024,4.299020166559076,0.135171447092707
6.711412,4.317456486299539,0.13487356133324435
6.713792000000001,4.3381744460401395,0.13449833232878913
6.716188,4.353165642795209,0.13425075846569579
6.718576,4.365875199550142,0.13407693556876654
6.720956,4.376582655558659,0.1339547021349986
6.72336,4.388361046753813,0.133800926116002
6.725748,4.400558746829548,0.13361431941182028
6.728127999999999,4.409823180599088,0.13349780502298006
6.7305280000000005,4.4188080751149075,0.13340544429381446
6.732916,4.430866005563782,0.13323491153761616
6.735295999999999,4.441061604893101,0.13309939329154877
6.737692,4.448463707543084,0.13301848119385057
6.740075999999999,4.451769060901617,0.13298183101593006
6.742456,4.450418586461257,0.13303563010089273
6.744856,4.446554154595284,0.13311976433665754
6.747240000000001,4.446973463475865,0.13308378924126013
6.749624,4.446880915677248,0.13303028130204686
6.752019999999999,4.443575562318716,0.13306628538042792
6.754404,4.444646497505355,0.13303651343064804
6.756784000000001,4.441992770452879,0.13307751381196614
6.75918,4.438407877840626,0.13313668865747547
6.761568,4.4329606541088165,0.13323140179969653
6.763948,4.431005775190643,0.13321337845933962
6.766348,4.433753945899605,0.13304183106701262
6.768731999999999,4.437061195116007,0.13282323403645596
6.771112,4.440136126906931,0.13256423401323394
6.7735080000000005,4.441208957951439,0.13235307399143598
6.775896,4.445215055302141,0.1320810287964013
6.778275999999999,4.451642562279842,0.131731161344292
6.780672,4.455416342205068,0.13142136901580415
6.783055999999999,4.463985719556045,0.13101856044005658
6.785436,4.477490463959635,0.1305126652379655
6.787852,4.4924382306022,0.13000866534466918
6.79024,4.506594601311847,0.12950557288524328
6.79262,4.521542367954413,0.12899312463307136
6.795016,4.5350471123580025,0.12848509318208295
6.797403999999999,4.544547655268758,0.12806416016751979
6.799784,4.556609377433372,0.12755008368038
6.802179999999999,4.564434580679674,0.12708611223639
6.804568000000001,4.573982345418673,0.12660177397976688
6.806947999999999,4.5863236068370075,0.1260674569838399
6.809344,4.601877673815256,0.12545264756722144
6.811732,4.616081266353146,0.12489188308358384
6.814112000000001,4.6249301829578435,0.1244712901763339
6.816512,4.6332200210551004,0.12409679323253049
6.818896,4.638157283965583,0.12381404605744727
6.821276,4.643234316502925,0.12352055085374625
6.823688,4.6428641253084555,0.12331128082850348
6.826076,4.637279027807655,0.1232262916619326
6.828456,4.634627196613051,0.12308256142743508
6.830851999999999,4.630532343179469,0.12293650164143426
6.833239999999999,4.622712827506775,0.12285053751563117
6.83562,4.615592159968381,0.12270888703105816
6.8380160000000005,4.6123359242959605,0.12249700362936455
6.840404,4.608288292690622,0.1222879474748023
6.842783999999999,4.600608546644787,0.12218971318687709
6.845199999999999,4.594930901345369,0.12204987270154669
6.847584,4.589904882352009,0.12191705474949067
6.849968,4.585530489664707,0.121791073871842
6.852364000000001,4.57808306104435,0.1217332423879917
6.854748,4.569984006117934,0.12166724563920017
6.857131999999999,4.558811915258465,0.12166744398040095
6.859528,4.546988198092936,0.12166000595709656
6.861911999999999,4.534373084994489,0.12165867355873394
6.864292,4.523387985590123,0.12158448200810297
6.866692,4.517058713984648,0.12143474286356935
6.869079999999999,4.509518737565673,0.12132247262052405
6.87146,4.502490617825896,0.12122907259041857
6.87386,4.500537634765592,0.12102374832124006
6.876248,4.492019270958596,0.12099229741220288
6.878628,4.480939727897741,0.12104894630233914
6.881044,4.470511811142947,0.12111298386747915
6.883432,4.457662484761153,0.12125283964050251
6.885827999999999,4.4437422231927215,0.12141599910830549
6.888224,4.434477789423181,0.12150216508705852
6.890612,4.43350129789303,0.12140014835868693
6.892995999999999,4.432245267109156,0.12132044517179293
6.895392,4.431920401885062,0.12122634057507752
6.897776,4.435599738153802,0.12105196813434242
6.900156,4.44048977923604,0.12083888244672242
6.902563999999999,4.447893777743892,0.12060714654044401
6.904948,4.457299876998161,0.12033620931922148
6.907328000000001,4.470430638491544,0.12001137975636514
6.909724,4.48849676703754,0.11959297058272834
6.912112,4.506143586702954,0.11921314110077369
6.914492,4.525140880808726,0.11879513154177604
6.916887999999999,4.545209110101139,0.11835173421193294
6.919275999999999,4.569141771259525,0.11784187292223298
6.921656,4.593865828350827,0.11733995780669654
6.9240520000000005,4.623944561375323,0.1167079895788896
6.92644,4.654302833653539,0.1160498744196852
6.928824,4.685732041118393,0.11537021764943137
6.931223999999999,4.718092414143026,0.11467441248808859
6.933611999999999,4.749521621607881,0.11399663121166974
6.935992,4.780019663512958,0.11334533017572115
6.938396,4.804231863925064,0.11283656959142696
6.940779999999999,4.8327278050837235,0.1122387340049142
6.943164,4.857359314376409,0.11170377418797946
6.945568000000001,4.877195226243343,0.11124666652315542
6.947952,4.898893469229836,0.11076537702089623
6.950332,4.913654244417299,0.11040234561465102
6.952735999999999,4.928135480351039,0.11006316069093224
6.9551240000000005,4.939543680351726,0.10978550447335242
6.957503999999999,4.9497411755389145,0.10954354391033815
6.9599,4.959798901099242,0.1093134730387078
6.962288,4.965572885913014,0.1091732639936761
6.9646680000000005,4.973209201846344,0.10901072100463038
6.967064,4.980473430727336,0.10882204636659328
6.969452,4.982942062182578,0.108701239980869
6.971832,4.988623499197733,0.10851945196673374
6.974227999999999,4.996958663265365,0.108314873799394
6.976615999999999,5.0040831225194955,0.10814140879541789
6.979,5.012418286587127,0.10793838235724616
6.981395999999999,5.0194029762143995,0.1077748605770762
6.983783999999999,5.025736039535614,0.10760485486020158
6.98618,5.034350742856965,0.10738445113533376
6.988575999999999,5.040823575805039,0.10720747158916977
6.99096,5.04915873987267,0.10700833977781321
6.993344,5.061078796552554,0.10677659770395877
6.9957400000000005,5.071927918045799,0.10656594058870143
6.998124,5.0898542769649335,0.106242041575423
7.000507999999999,5.108711801443848,0.1059105042777836
7.002904,5.127848865176481,0.10556076697164024
7.005287999999999,5.148336403349473,0.10517670691187604
7.007672,5.166961610402909,0.10481325692195226
7.010068,5.188799623016259,0.10439217677537266
7.012455999999999,5.207704369323416,0.10401280836044952
7.014852,5.2249791019364915,0.10369280077077093
7.017248,5.245326870482624,0.10332363991997154
7.019635999999999,5.258317862349146,0.10308260111330274
7.022016,5.269586292722972,0.10285368319757304
7.024411999999999,5.2822051975371584,0.10258796534997916
7.026800000000001,5.293613397537845,0.1023518089365809
7.029179999999999,5.306651611232612,0.10205916928196837
7.031576,5.318339350487019,0.1018056014561182
7.033964,5.329095924181647,0.10156335606320763
7.036344000000001,5.335988066010302,0.10136780533141712
7.038747999999999,5.345161847839094,0.10112721334075052
7.041132,5.353823772988688,0.10087107291527439
7.043512000000001,5.3669092085116965,0.10053683017743457
7.045915999999999,5.37720114735537,0.10023309538598256
7.048303999999999,5.383908193586791,0.09995643349702546
7.050688,5.3891249957509935,0.09972391846445856
7.053083999999999,5.39005805716864,0.09956310754852551
7.055471999999999,5.393132988959566,0.09936680025396104
7.057856,5.392343488884517,0.09921501941067222
7.06026,5.394627024742524,0.09901948980324295
7.062648,5.4004029054141665,0.0987553739844369
7.065027999999999,5.405107850899171,0.09850961820597708
7.067431999999999,5.415167472317368,0.09817667297045458
7.069819999999999,5.426437798549062,0.09781942552228089
7.0722,5.436776959220979,0.09747242859422439
7.0745960000000006,5.450468695079672,0.0970692916055602
7.076984,5.464020661311505,0.0966763894258099
7.079363999999999,5.476921001237278,0.09627408793343699
7.08176,5.489821341163053,0.09587300453040734
7.084148,5.507796817768301,0.0954056711833692
7.086531999999999,5.52377019362713,0.09496690097464336
7.088928,5.537601699112684,0.09456243955955823
7.091316,5.546218298291904,0.09423480827831143
7.093696,5.556045602284624,0.09388467178831938
7.096092,5.568154546277481,0.09349385445935014
7.09848,5.5831042087779155,0.09302974599685218
7.1008640000000005,5.602617151278625,0.09248658967784587
7.10326,5.623340798592833,0.09192542226398165
7.105648,5.646997712213237,0.09133417867731326
7.108028,5.668792294714082,0.09076182748510911
7.110432,5.687374071655014,0.09024122339906178
7.11282,5.705164452663026,0.08971944937269889
7.115200000000001,5.720952732924622,0.08922364620741798
7.117596,5.732317502812803,0.0887947979066958
7.119984,5.7424715678874865,0.0883889624826476
7.122364,5.7464795610960575,0.08805760794990419
7.124764,5.749276849491132,0.0877491339020468
7.127147999999999,5.7508634330727055,0.08746256831877475
7.129532,5.748166275907727,0.0872347872670133
7.1319360000000005,5.74318747874261,0.08704612221280716
7.134324,5.737137746390855,0.08687215685465886
7.136703999999999,5.73094824441224,0.08670601754011742
7.1391,5.723548037620126,0.08656282642964054
7.141488,5.712655486014375,0.08648152163721194
7.143868,5.701203855901184,0.08643300354174291
7.146268,5.687982442467055,0.08644033241751972
7.148651999999999,5.669778440152069,0.08654895753382998
7.151036,5.651155128956501,0.08667923275712489
7.153432,5.631600652201158,0.0868143172989401
7.155819999999999,5.612977341005591,0.08694133277683051
7.1582,5.5912809938769685,0.0871053345648171
7.1606,5.571307208241044,0.08726369224639795
7.162988,5.55012271779162,0.08744467870190738
7.165368,5.532151032902111,0.08758350091049022
7.167763999999999,5.51632121838588,0.08769239569771518
7.170151999999999,5.500491403869647,0.0878034909743274
7.172536,5.489596956406028,0.08786417004119568
7.174931999999999,5.481496005621744,0.08790569583408278
7.177319999999999,5.481403457823128,0.08786240919537674
7.179704,5.480519514091593,0.08781722046015088
7.182099999999999,5.479356031106338,0.08778856631848124
7.184487999999999,5.481265584054137,0.08772395201569547
7.186884,5.485177237748354,0.08763766168737051
7.189276,5.494024258495182,0.0875024287187449
7.191664,5.502871279242011,0.0873671957501193
7.194043999999999,5.511997839242559,0.0872152990425018
7.196447999999999,5.525967218497103,0.08697070386262065
7.198832,5.532067964392839,0.08680158693968884
7.201211999999999,5.537889171034856,0.08664951894032989
7.203615999999999,5.543710377676873,0.08649860269125177
7.206003999999999,5.55581742581186,0.08626789206318697
7.208384,5.567133078013929,0.08603647816036691
7.210780000000001,5.582452931708833,0.08576484795647749
7.213168,5.60191675652343,0.08544799945984922
7.215547999999999,5.6184473150318315,0.08515806132520515
7.217944,5.6428465068990405,0.08479753435137218
7.220327999999999,5.663660806153997,0.08445810417011351
7.222712,5.6838234791028945,0.08410993731269711
7.225112,5.698259389066262,0.08380695589799471
7.2275,5.7168392701493245,0.08346015380717627
7.22988,5.738911496046022,0.08305862310695902
7.232283999999999,5.761123491569579,0.08265462570473026
7.234671999999999,5.785617127093275,0.08221924088359236
7.237051999999999,5.806525870004717,0.0818004661924697
7.239448,5.829716252916296,0.08135078315199572
7.241836,5.855328045454873,0.08086428147543412
7.244216000000001,5.877866802060395,0.0804119214749739
7.246612,5.9085537312784435,0.0798768442259629
7.249,5.939799739003934,0.07931301155268261
