Time,Force,Position
5.215748,0.07683752682383468,0.0
5.218151999999998,0.08100827299475151,0.0
5.220535999999999,0.08424785360589002,0.0
5.222916,0.08643694580741024,0.0
5.225319999999998,0.0882067291283498,0.0
5.227708,0.08969697319556896,0.0
5.230084,0.08490137576981717,0.0
5.232487999999998,0.08532068465039781,0.0
5.234875999999998,0.08494859759806031,0.0
5.237255999999999,0.08415720166514219,0.0
5.239659999999999,0.08133692993458436,0.0
5.242047999999999,0.0786564278308867,0.0
5.244427999999999,0.07690709128696735,0.0
5.246823999999998,0.07301588436977094,0.0
5.249207999999999,0.06605164151951914,0.0
5.251587999999998,0.0601583338559059,0.0
5.253983999999999,0.05333386063251432,0.0
5.256371999999999,0.045298682595624,0.0
5.258751999999999,0.03633233899895536,0.0
5.261144,0.028297160962065037,0.0
5.263532,0.022264083671591575,0.0
5.265911999999998,0.01809333750067475,0.0
5.268307999999999,0.014853756889536242,0.0
5.270691999999999,0.011474406651537528,0.0
5.273088,0.009445530853897766,0.0
5.275483999999999,0.007556424683118212,0.0
5.277871999999999,0.00673825369897719,0.0
5.280251999999999,0.002847046781780786,0.0
5.282647999999998,0.0008181709841410225,0.0
5.285031999999999,0.0,0.0
5.287427999999999,0.0,0.0
5.289831999999999,0.0,0.0
5.292216,0.0,0.0
5.294595999999999,0.0,0.0
5.296999999999999,0.0,0.0
5.299383999999998,0.0,0.0
5.301763999999999,0.0,0.0
5.304167999999999,0.0,0.0
5.306555999999999,0.0,0.0
5.308935999999999,0.0,0.0
5.31134,0.0,0.0
5.313723999999999,0.0003988621035603917,0.0
5.316103999999999,0.00039886210356039164,0.0
5.318499999999999,0.0027998249535376345,0.0
5.320884,0.005200787803514877,0.0
5.323263999999998,0.00960385139990897,0.0
5.325659999999999,0.014146684623163274,0.0
5.328047999999999,0.016687417100000726,0.0
5.330428,0.016687417100000726,0.0
5.332832,0.01815721439019965,0.0
5.335215999999999,0.01948724205353836,0.0
5.337596,0.02202797453037581,0.0
5.339999999999998,0.026570807753630115,0.0
5.342383999999999,0.028320144297549456,0.0
5.344764,0.0300694808414688,0.0
5.347167999999998,0.033401609251224366,0.0
5.349556,0.035523032847481185,0.0
5.351932,0.035523032847481185,0.0
5.354327999999999,0.035523032847481185,0.0
5.356711999999998,0.03552303284748119,0.0
5.359107999999999,0.03552303284748119,0.0
5.361503999999998,0.035124170743920796,0.0
5.363891999999998,0.035124170743920796,0.0
5.366271999999999,0.03272320789394356,0.0
5.36868,0.030322245043966314,0.0
5.371063999999999,0.025919181447572222,0.0
5.373443999999999,0.021376348224317915,0.0
5.375848,0.018835615747480463,0.0
5.378235999999999,0.021376348224317915,0.0
5.380616,0.022307513784096233,0.0
5.383019999999998,0.02566008897087204,0.0
5.385407999999998,0.024728923411093715,0.0
5.387787999999999,0.020724721918260015,0.0
5.390191999999999,0.024030075276792663,0.0
5.392579999999999,0.025473097515768674,0.0
5.394959999999999,0.023890305649932452,0.0
5.397355999999999,0.02365798822445519,0.0
5.399743999999998,0.02647825995501306,0.0
5.402123999999999,0.030509236499069673,0.0
5.40452,0.03654231378954313,0.0
5.406908,0.04550865738621177,0.0
5.409287999999998,0.05140196504982501,0.0
5.411691999999999,0.056503876780520164,0.0
5.4140799999999984,0.061605788511215315,0.0
5.416459999999999,0.06270349874907677,0.0
5.418851999999999,0.06566354010649485,0.0
5.421239999999999,0.0676924159041346,0.0
5.423615999999999,0.06958152207491415,0.0
5.426019999999999,0.06704078959807672,0.0
5.428407999999999,0.06463982674809947,0.0
5.430783999999999,0.059957223897984954,0.0
5.433179999999998,0.058347656980925824,0.0
5.435567999999998,0.05780902525050522,0.0
5.437947999999999,0.052754335348053225,0.0
5.440339999999999,0.04956197656515787,0.0
5.442727999999999,0.048211502124798924,0.0
5.445123999999998,0.047792193244218295,0.0
5.447527999999998,0.04844381955027619,0.0
5.449911999999999,0.04881590660261367,0.0
5.452291999999998,0.04518379216211745,0.0
5.454687999999999,0.03621744856544882,0.0
5.457075999999999,0.030723003005395946,0.0
5.459455999999999,0.025621091274700806,0.0
5.46186,0.020519179544005655,0.0
5.464243999999999,0.019421469306144214,0.0
5.466624,0.01646142794872613,0.0
5.469028,0.015343270933844449,0.0
5.471416,0.015620914329695625,0.0
5.473795999999998,0.022860904717929346,0.0
5.476191999999999,0.03955042447293725,0.0
5.478575999999999,0.07043784919222795,0.0
5.480955999999999,0.11179851663668822,0.007319460135890028
5.483351999999998,0.16218940456734207,0.014649317728003455
5.48574,0.21923632518543512,0.022084482384265754
5.488119999999999,0.2825199696103867,0.02973376654818179
5.490519999999998,0.3484286701787209,0.03791417704016873
5.492903999999999,0.42346013903186575,0.04604545222093868
5.495296,0.5055197276247873,0.05409714347225536
5.497691999999999,0.5940955792782877,0.06213563287466903
5.500079999999999,0.6902586291790057,0.07026924007720582
5.502455999999999,0.7949195961096994,0.07851788353803019
5.504864,0.9068614469826672,0.08682141291627993
5.507247999999999,1.0324688993637,0.09490800086023674
5.509627999999999,1.1689689033504829,0.1028700661892633
5.512023999999999,1.3141270407711219,0.11075370566575116
5.514408,1.4627284053192844,0.11881282956840686
5.516803999999999,1.6169353141452678,0.1268976665339839
5.519207999999999,1.778032468942037,0.1348865365222185
5.521591999999998,1.9406670896342686,0.1427300287387493
5.523975999999999,2.090127518720613,0.1506955940172378
5.52638,2.225856573551498,0.158522900373509
5.528763999999999,2.3468758667389027,0.1591346356931913
5.531143999999999,2.4564435298131158,0.15987084306348792
5.533548,2.562241204677842,0.160476597527682
5.535936,2.663384947601546,0.16083877432755797
5.538315999999998,2.7640659515321646,0.16052253117787282
5.540711999999999,2.8505962723267437,0.16032540926276811
5.543095999999999,2.9247437974483534,0.16037530543995054
5.545475999999999,2.9943299384275575,0.16041258374822284
5.547879999999999,3.066571702317106,0.16009278236431193
5.550267999999999,3.134718612773073,0.15958337191463812
5.552648,3.1917406541978126,0.159103588065088
5.555043999999999,3.232050833232654,0.15892876781266937
5.557431999999999,3.25797611584811,0.15905993947112
5.559811999999999,3.2771981439478832,0.15927641054767444
5.562211999999999,3.297632772719025,0.15916034300201376
5.564599999999999,3.3090371810039723,0.1590777266370466
5.566979999999999,3.3088501895488687,0.1591844031351736
5.569384,3.2988396858167857,0.1595893159059237
5.571771999999999,3.2973022199213227,0.1597778954240034
5.574155999999999,3.2955305407425146,0.16015861580582696
5.576559999999999,3.2989265460417942,0.16040281238034906
5.578943999999998,3.306094435408431,0.16042876669070685
5.581323999999999,3.3065118484311427,0.1606271628142328
5.583727999999999,3.306789491826994,0.16084106830227432
5.586115999999999,3.306740374140881,0.1611732440587879
5.588491999999999,3.313301963171834,0.1613567561540245
5.590895999999999,3.327779407389837,0.1611525523575968
5.593283999999999,3.332852648211441,0.16118799489968907
5.595663999999999,3.326332593435123,0.16165175169974563
5.598068,3.32246626571128,0.16202804894550132
5.600451999999999,3.32749228470464,0.1621529621843832
5.602831999999999,3.3371741314968917,0.16212830462445996
5.605236,3.3518385671699984,0.1618298202997373
5.607624,3.3626857928053746,0.16158181900904015
5.610003999999998,3.370320212880835,0.1614810304850091
5.612411999999999,3.3861953533674405,0.16113893879595034
5.614795999999998,3.407937026466436,0.16059034446656592
5.617179999999999,3.4313087132595115,0.15991105914378256
5.619587999999999,3.4503513333356586,0.1592808410673998
5.621975999999998,3.466879995986191,0.1586950302064301
5.624355999999999,3.4862021553160583,0.15803673006397703
5.626747999999999,3.503102905018928,0.1575026990370464
5.629135999999999,3.526149726587909,0.15672526944996926
5.631516,3.5469621299849954,0.1559723732081814
5.633911999999999,3.568473381516383,0.1551586704297425
5.636299999999999,3.5862599708086575,0.15446304160128133
5.638679999999999,3.5981328056602986,0.15405712660427742
5.641091999999999,3.616663569057248,0.15342258239252046
5.643476,3.639757612454472,0.15256705630627868
5.645859999999999,3.656193727306387,0.15193884772294364
5.648255999999998,3.6676019273070737,0.1514330232722855
5.650639999999999,3.6808724584273165,0.15088502234444612
5.653023999999999,3.6929322847340615,0.15040046536359625
5.655435999999998,3.705923276600584,0.14988285345236646
5.657831999999999,3.718542181414769,0.1493363565646205
5.660207999999999,3.7283675895496193,0.14888662777845976
5.662623999999999,3.7354920488037515,0.14857838102025597
5.665011999999999,3.748203501416554,0.14812818594836968
5.667392,3.756770982909662,0.14781465935357463
5.669787999999999,3.770693140335963,0.14730618867213977
5.672175999999999,3.7798197003365113,0.14693936711966135
5.674555999999999,3.792159065896976,0.14645899732840365
5.676951999999998,3.8003544603377466,0.14611953586734533
5.67934,3.808549854778518,0.14577823976781606
5.681719999999999,3.8110184862337584,0.14559602776261837
5.684135999999999,3.8184224847416113,0.14526864921214852
5.686523999999999,3.8242436913836277,0.14495430006923732
5.688903999999999,3.83178745951834,0.14460880813873236
5.691315999999999,3.837049587652916,0.14435486784641863
5.693707999999999,3.8452449820936865,0.14401269654023094
5.696083999999999,3.8538124635867947,0.14370619947657923
5.698487999999999,3.8590273698931274,0.14353131375758593
5.700875999999999,3.8658250680652957,0.14334004266829264
5.703259999999998,3.878489298849855,0.14298813651581138
5.705655999999999,3.890222364074636,0.14266160174193904
5.708043999999999,3.8950179615003875,0.14253409080142915
5.710424,3.9020951989262764,0.14232087641847352
5.712819999999999,3.904097299672693,0.14226280324725848
5.715207999999999,3.9107552282180023,0.14209142314294834
5.717604,3.9132691856436166,0.14205215660474413
5.719999999999999,3.9167143086290093,0.14199001143442264
5.722387999999999,3.918808957174043,0.14199211435305326
5.724767999999999,3.9243487287044694,0.14193280342506806
5.727172,3.9337529321008704,0.14177403789615428
5.729559999999999,3.946881797736383,0.14152514326527132
5.73194,3.9521420300130896,0.14149359855116225
5.734343999999998,3.965410665275464,0.14123427446832437
5.736731999999998,3.976816969418281,0.1410208957671264
5.739107999999998,3.990225374307515,0.14075016967462617
5.741511999999998,4.002842383263831,0.14048942690953967
5.743899999999998,4.0166700970336455,0.14018453647824827
5.746279999999999,4.03077735005718,0.1398517598154463
5.748676,4.042602963080578,0.13960274039822224
5.751064,4.049353439424504,0.13950290834411383
5.753443999999998,4.057826477261126,0.13937656403355392
5.755847999999999,4.0712348821503594,0.13911689769461766
5.758235999999998,4.084503517412733,0.13887580914174905
5.760615999999999,4.0967012174884685,0.13866351886718556
5.763012,4.109830083123982,0.13843396584786935
5.765395999999999,4.125100819132772,0.13813719048122308
5.767779999999998,4.139859698462366,0.13782096024712764
5.770179999999998,4.152756246672403,0.13754496601410404
5.772568,4.167143038949658,0.13720337824035692
5.774947999999998,4.175243989733943,0.1370472888122668
5.777343999999999,4.182553544585309,0.13689948226815749
5.779731999999999,4.198151041676063,0.1365146643531997
5.782112,4.209604567647123,0.13625676115631488
5.784507999999999,4.224922525484157,0.13591487264366509
5.786895999999999,4.240659792201772,0.13554032378186406
5.789275999999999,4.254394958172967,0.1352136661081457
5.791671999999998,4.262263591531775,0.13502382874220772
5.794059999999998,4.268130124144165,0.1348832298015033
5.796439999999999,4.277489001570192,0.13462459095025786
5.798836,4.28754672713052,0.1343047220058081
5.801224,4.292948624891955,0.13407886000268587
5.803619999999999,4.29956122746689,0.1338121974392748
5.806011999999999,4.304311498922269,0.1335843552588588
5.808399999999999,4.312414345564423,0.13325055603284122
5.810779999999999,4.321867666646935,0.13286844194632072
5.813175999999999,4.332671462169806,0.13243799606000922
5.815563999999998,4.342124783252318,0.13205820485078756
5.817943999999999,4.351717873961691,0.13166341379726706
5.820347999999999,4.3562358279915925,0.131396835514264
5.822735999999999,4.367319162768184,0.1309375038639266
5.825116,4.380125059037472,0.13045787373571993
5.827511999999999,4.390649315306624,0.13005988352320208
5.829896,4.3993112404562185,0.12969634648316689
5.832279999999999,4.40410873373984,0.12941679475889667
5.834675999999998,4.405693421463545,0.12922283015336694
5.837059999999999,4.410863001799504,0.128972936081785
5.83944,4.423901215494269,0.12855300398042088
5.841835999999999,4.443085501055146,0.12798961136792086
5.844223999999999,4.455192549190133,0.12758877514477587
5.846603999999999,4.467811454004318,0.12720971307776968
5.849003999999999,4.484434560311337,0.12673905798635843
5.851387999999998,4.497844861058439,0.12635516062841906
5.853767999999999,4.5104637658726245,0.12597537082661173
5.856183999999999,4.525084771433228,0.12555891559564814
5.858571999999999,4.536632741060774,0.12521887818557337
5.860951999999999,4.545619531434462,0.12496992747089675
5.863356,4.557539588114347,0.12466139339407883
5.865743999999999,4.573603615913924,0.12426019838765576
5.868123999999998,4.593020218900278,0.12376681761283073
5.870519999999999,4.60736168520716,0.12338869898095199
5.872907999999999,4.622262230021482,0.12297300379015319
5.875287999999999,4.635020904462528,0.12261170851313599
5.877683999999999,4.6505730755829084,0.1222071308377532
5.880071999999998,4.667475721143648,0.12175774456716187
5.882456,4.688242798570361,0.12123920164218045
5.884851999999999,4.708637788944736,0.12069791102550728
5.887239999999999,4.721955541893221,0.12030236297539512
5.889624,4.7314088629757345,0.11998024542032319
5.892019999999999,4.7460770903645795,0.119541480449567
5.894407999999999,4.760745317753425,0.11910622637670064
5.896804,4.7752737755154095,0.11868553560977248
5.899199999999999,4.795017139583726,0.11815893307309605
5.901584,4.815551899584962,0.11762822298028767
5.903963999999998,4.832873854026281,0.11717597667835343
5.906367999999999,4.848053938094324,0.11676915767004686
5.908755999999999,4.863653331042948,0.11633120288674619
5.911131999999999,4.881674133618569,0.1158320880237713
5.913528,4.8967616698879946,0.11538905385820056
5.915911999999999,4.912500832463477,0.11495920064416794
5.918296,4.931964657278074,0.11447956715582462
5.920699999999998,4.945282410226561,0.11411616812788943
5.923083999999999,4.957157140936072,0.11374572251983543
5.925467999999999,4.965586748660188,0.11340611597843085
5.927871999999999,4.971874486011028,0.1131131386169305
5.930255999999998,4.977650366682671,0.11280528435499666
5.932639999999999,4.97942204586148,0.11256623053104793
5.935044,4.986827940227203,0.11219462282498746
5.937427999999999,4.995025230525842,0.11182261381039516
5.939811999999998,5.00429345601112,0.11143270419701214
5.942207999999999,5.01249074630976,0.11106588565366629
5.944591999999998,5.0208278062352605,0.11069168762820877
5.946971999999999,5.0203650672421745,0.11045217541319181
5.949375999999999,5.020461406756531,0.11017327873360469
5.951763999999999,5.022839386271023,0.1098432831689162
5.954143999999999,5.028569940972291,0.10943918430894543
5.956539999999999,5.029085589367227,0.10912870190527954
5.9589279999999984,5.024526101082693,0.10890641448796796
5.961307999999999,5.018755907984658,0.10871507965982381
5.963711999999999,5.008329887087731,0.108580753007193
5.966099999999999,4.996041535071249,0.1084688020136951
5.968483999999998,4.989479946040296,0.10827842305936566
5.970879999999999,4.983569983315402,0.10809572470601264
5.973267999999999,4.980313747642981,0.10788818768137741
5.975648,4.975986576783922,0.10770131087704865
5.978051999999998,4.968958457044145,0.10759759571568787
5.98044,4.96658616510326,0.10743595020127503
5.982819999999999,4.958998966856043,0.10737136981322275
5.985223999999999,4.947687106369712,0.1073525909733516
5.987611999999999,4.934233375510104,0.10737510048609751
5.989991999999999,4.918265687224881,0.10741223742950626
5.992387999999998,4.900435667820102,0.10747068493842023
5.994775999999998,4.885399145094658,0.10749797002450937
5.997155999999999,4.870594939794691,0.10756311664700632
5.999552,4.850715597815251,0.10771578891045405
6.001939999999999,4.828554615835676,0.10792046575252252
6.004319999999998,4.812539705722211,0.10801810264010869
6.006723999999998,4.800249457847857,0.10806876025957378
6.009108,4.790380619600503,0.10805463923790669
6.011491999999999,4.785307378778899,0.10797279024149319
6.013888,4.780234137957297,0.1078907744948378
6.016276,4.774369501202777,0.10780971535271011
6.018655999999998,4.770506965194672,0.10769615770328722
6.021051999999999,4.763571393253512,0.10763629058283863
6.023439999999999,4.760500253178326,0.10752148409939968
6.02582,4.757848421983721,0.10737594284513693
6.028219999999999,4.755336360415975,0.10722118393957046
6.030603999999999,4.757200587393401,0.10703087169440617
6.032988,4.763301333289137,0.10681454021234411
6.035383999999999,4.768331143998235,0.10661914690542522
6.037771999999999,4.776806077692727,0.10639847282233733
6.040151999999999,4.787794968812833,0.10616569146772377
6.042547999999998,4.8035794573586905,0.1058683052724299
6.044935999999998,4.817641384411852,0.10558266012812993
6.047315999999999,4.836498908890764,0.1052305865828411
6.049715999999998,4.856287598929457,0.10486617564526904
6.052103999999998,4.8808718863939005,0.1044481264665105
6.054495999999999,4.903454073111927,0.10406475869433808
6.056899999999999,4.927339512442068,0.1037067303078252
6.059287999999999,4.949083081398933,0.10339241541296358
6.061667999999999,4.971757815915576,0.10306988687779718
6.064063999999998,4.994153011178498,0.10276988841401426
6.066447999999999,5.0166879760682805,0.10246380573126736
6.068827999999998,5.042575516144839,0.10208912840779841
6.071231999999998,5.069673761034897,0.10169394054543761
6.073616,5.097563401857872,0.10129785785785858
6.075995999999998,5.124382107494209,0.10092649585355867
6.078399999999999,5.14961802126471,0.10055775618303923
6.080787999999998,5.174621617609734,0.10015563725588718
6.083167999999999,5.200696149141397,0.09973408054007446
6.085571999999999,5.226770680673059,0.0993149904398455
6.087955999999998,5.2499119458985275,0.09893393776170482
6.090335999999999,5.271330649631298,0.09856787785568458
6.092739999999999,5.2959621589239845,0.09814949418422758
6.095127999999999,5.317520632283615,0.09777773347698467
6.097508,5.338427479337187,0.09739658229991172
6.099903999999999,5.3534677937783695,0.09709394110613145
6.102291999999999,5.3686478778464135,0.09678261247926039
6.104671999999999,5.380103299675342,0.09650746666977701
6.107075999999999,5.393700591877549,0.09619919722340894
6.109463999999999,5.4043646177735605,0.09592511826597247
6.111844,5.412374916617097,0.09566737504619226
6.114247999999998,5.419314280273994,0.09542821897592432
6.116636,5.423972003930755,0.09523317495337141
6.119015999999999,5.423414821281184,0.09511607590371604
6.121411999999999,5.425139278631749,0.09495645248052448
6.123799999999999,5.424070239302981,0.09482135427789004
6.12618,5.427936567026824,0.094629819652684
6.128583999999998,5.430592189937168,0.09446445143095242
6.130971999999998,5.4341789784072905,0.09429170609100221
6.133351999999999,5.43869693243719,0.09411220623036087
6.135755999999999,5.442423490534173,0.09393067644725618
6.138143999999999,5.447081214190933,0.09374291133986914
6.140523999999999,5.449597067474417,0.09358876157799673
6.142919999999998,5.454534330384898,0.09338536847445363
6.145307999999998,5.461054385161216,0.09318421140284588
6.147691999999999,5.468645375124172,0.09296793014457787
6.1500879999999984,5.479309401020183,0.0927147517454888
6.152472,5.489973426916195,0.09246043866419121
6.154855999999999,5.49849558243893,0.09223924921977834
6.157259999999999,5.510882169827637,0.09198057221147042
6.159643999999998,5.528995520201875,0.09167208099275435
6.162023999999999,5.548971201695669,0.09135145808387579
6.16442,5.573882250242075,0.09098194076151997
6.166808,5.6007953995349,0.0905874475631467
