Time,Force,Position
8.644379999999998,0.019054289369933346,0.0
8.646767999999998,0.016558361155062328,0.0
8.649148,0.013271037007273199,0.0
8.651551999999999,0.010914878419262392,0.0
8.653939999999999,0.007487784644613055,0.0
8.656320000000001,0.0049918564297420365,0.0
8.658715999999998,0.000493827468454167,0.0
8.661100000000001,0.0,0.0
8.66348,0.0,0.0
8.665883999999998,0.0,0.0
8.668271999999998,0.0002615100429768983,0.0
8.670652,0.0002615100429768983,0.0
8.673055999999999,0.0002615100429768983,0.0
8.675439999999998,0.0026648904592308583,0.0
8.67782,0.004276874942566705,0.0
8.680215999999998,0.009753291291876045,0.0
8.682604000000001,0.016300642827823914,0.0
8.684984,0.027503822162663387,0.0
8.687380000000001,0.043782138176975086,0.0
8.689768,0.061131389377925324,0.0
8.692163999999998,0.07726993576537683,0.0
8.69456,0.09433964771260664,0.0
8.696947999999999,0.11248029484647498,0.0
8.699324,0.13155210754012164,0.0
8.701723999999999,0.14755088430071292,0.0
8.704107999999998,0.1635496610613042,0.0
8.706492,0.18006029450109318,0.0
8.708887999999998,0.19657092794088216,0.0
8.711272000000001,0.2160148276868663,0.0
8.713656,0.23559849705971067,0.0
8.716052000000001,0.25277878601630105,0.0
8.718440000000001,0.27115175057564667,0.0
8.72082,0.293528916627826,0.0
8.723216,0.31150060151733455,0.0
8.7256,0.3262594808469274,0.0
8.727979999999999,0.3352915971909902,0.0
8.730376,0.3441839439081928,0.0
8.732764,0.34548719652030857,0.0
8.735143999999998,0.33850250689303657,0.0
8.73754,0.3265824502131526,0.0
8.739927999999999,0.31694403353340583,0.0
8.742308000000001,0.30437235054746375,0.0
8.744720000000001,0.2885878620016063,0.0
8.747108,0.2728033734557488,0.0
8.749483999999999,0.26181448233564303,0.0
8.7519,0.25082559121553727,0.0
8.754287999999999,0.23853344748331573,0.0
8.756668000000001,0.2220973326314003,0.0
8.759072,0.20265343288541612,0.0
8.761455999999999,0.1830697635125718,0.0
8.763836000000001,0.16562796451300446,0.0
8.76624,0.1505385323857095,0.0
8.768628,0.13153555070632866,0.0
8.771007999999998,0.12342512063269799,0.0
8.773404,0.13128237884428973,0.0
8.775792,0.1468666049299592,0.0
8.778172000000001,0.16487034478475693,0.0
8.780576,0.19246338363318904,0.0
8.782964,0.23122851334109173,0.010152672651042655
8.785343999999998,0.28381946096093974,0.019748962070412435
8.787748,0.3397138660814512,0.029561254859964525
8.790132,0.4029631520237029,0.03924027869214339
8.792511999999999,0.4744984843474732,0.04875644875417055
8.794920000000001,0.5511070574928465,0.05817256200312197
8.797304,0.635023289631717,0.06738165729939083
8.799684,0.7250364759505856,0.07664845020827941
8.80208,0.8255701268228671,0.08560899148109988
8.804468,0.9343898240766673,0.09463899120813977
8.806847999999999,1.0474261151801654,0.10373335895088355
8.809244,1.166466812665045,0.11278184779305984
8.811636,1.2894172679862719,0.12181833954478127
8.814015999999999,1.4143916449803982,0.13061199664047576
8.816412,1.5458407507804675,0.1389880941717716
8.8188,1.6619284686309983,0.14755410961486198
8.821179999999998,1.7598140800244126,0.15640176275696138
8.823576,1.84820294022281,0.16555063541174214
8.825963999999999,1.9375701878092284,0.1746113248325302
8.82834,2.0247974608802393,0.18345175426277546
8.830748,2.104904066412856,0.18200167370112252
8.833131999999999,2.175236277354605,0.1809713997248431
8.835512000000001,2.2413338652359114,0.17970250640807217
8.837916,2.3058958830796255,0.17848227115511003
8.8403,2.369201870139466,0.1772834412170469
8.842680000000001,2.4260841419373453,0.1762476434219974
8.84508,2.4698394439575804,0.17554195784987126
8.847463999999999,2.5072654743723395,0.17471212636605796
8.849847999999998,2.5351022057934647,0.17416676538271192
8.852248,2.5647559423637722,0.17335215198542495
8.854636,2.595015979269764,0.1723659827661458
8.857015999999998,2.6214134801676514,0.17131349250451489
8.859411999999999,2.642877509870796,0.17022776436899598
8.861799999999999,2.6555889624835984,0.16949157508029772
8.864196,2.6593136247227114,0.16933086387875482
8.866592,2.674257599649539,0.16887304695912908
8.86898,2.6999562524131244,0.16797295977300403
8.87136,2.733710529990621,0.16654327237553215
8.873764000000001,2.7601099267463782,0.16524118489891565
8.876152000000001,2.7771976679043506,0.16435151908487283
8.878532,2.7938188783535005,0.16364188669579235
8.880928,2.8091349403326644,0.16322618652729587
8.883316,2.826173563804526,0.16275949161171788
8.8857,2.8398142861192373,0.16231908113211532
8.888096,2.8451217402241866,0.16212730811302617
8.89048,2.851779668769495,0.16183537758490343
8.892864,2.862766664031732,0.1614822831353546
8.89526,2.87649993414506,0.16112467637438882
8.897644,2.890884830564446,0.16077216558385807
8.900023999999998,2.895725753960572,0.1607468168817572
8.902428,2.8942355098933525,0.16086447780088692
8.904816,2.893257122505331,0.16100143022232274
8.907195999999999,2.897538967394016,0.16106146007274708
8.909600000000001,2.9059175615741513,0.16101766724697136
8.911988000000001,2.916205708702087,0.16079407112541244
8.914368,2.921233623553316,0.16065562699144614
8.916771999999998,2.921885249859374,0.16065880317547013
8.919159999999998,2.9166231217247987,0.16100228741710487
8.92154,2.9158298299340113,0.1612925928328889
8.923936000000001,2.921042840382474,0.16131769331825588
8.926324000000001,2.9244407415396236,0.16131353612217392
8.928704,2.930167504525154,0.16107935359956194
8.931107999999998,2.9340319363911282,0.16091878179434072
8.933492000000001,2.937988916055718,0.16083859793237634
8.935876,2.9491156809448147,0.1605169092537089
8.938272000000001,2.9574489491545775,0.16029873657881238
8.940656,2.969042244752498,0.1598297262169679
8.94304,2.975979712551527,0.1595322761445957
8.945436,2.97956460516378,0.15941097343996197
8.947824,2.9913902181871777,0.15899602477635208
8.950204,3.007731889382607,0.15843259909755056
8.952604000000001,3.0206284375926433,0.1579755692843827
8.954988,3.028217531697729,0.15768994112398266
8.957372,3.0396710576687895,0.15726453169838644
8.959768,3.054150397744662,0.15680614253729092
8.962156,3.0687222856191516,0.15642064944352096
8.964535999999999,3.0850167349863375,0.15599554676836053
8.966932,3.106805629913576,0.1553126333942507
8.96932,3.130084768908034,0.15454647024649576
8.971699999999998,3.1557380957012464,0.153765107820432
8.9741,3.183625840666353,0.15296085645798818
8.976488,3.209371715258183,0.1522547230505263
8.97888,3.2360487554097905,0.1515231414403278
8.981276000000001,3.2622139388822005,0.1507694983444614
8.983664000000001,3.2865167912350546,0.15010007370646403
8.986044,3.316546406573438,0.149252392781958
8.988447999999998,3.346808339337298,0.14850077587570434
8.990835999999998,3.3810744735939924,0.14760352171226288
8.993212,3.4208350534107397,0.1464669170827105
8.995615999999998,3.4551484094956773,0.14550420697047073
8.998003999999998,3.486248960020699,0.14468227245713686
9.00038,3.520143007225056,0.14378965790429687
9.002787999999999,3.559112191108885,0.14273693265318166
9.005171999999998,3.593844856074403,0.14179409080033165
9.007552,3.6280656643607245,0.1408527179401143
9.009956,3.661634846340987,0.13989374952581132
9.012339999999998,3.6961351938810285,0.13893413936962196
9.01472,3.7264915703013757,0.13813360283759782
9.017124,3.754706076348446,0.13742374998025142
9.019512,3.778264754596624,0.13683490409670832
9.021892,3.8018234328448024,0.13624956684670927
9.024288,3.830037938891872,0.1355618328384035
9.026675999999998,3.857972905685222,0.13490641106756202
9.029056,3.8857681028517117,0.13426384706126915
9.031451999999998,3.91463423520484,0.13360271936322118
9.03384,3.9402875619980517,0.1330604178945114
9.03622,3.9570013202458183,0.13275664844843788
9.038616,3.975856948866862,0.1323960118392992
9.041004,3.9909879152487924,0.13212120844356576
9.043384,4.006910277563641,0.1318387883607874
9.04578,4.02325194875907,0.13151549728133882
9.048168,4.0345184832750265,0.13133208859336118
9.050564,4.038987319618815,0.13131831699430527
9.05296,4.044247551895522,0.13129865880456695
9.055348,4.042570316373199,0.1314597994457649
9.057728,4.047178922343847,0.13143406493882026
9.060123999999998,4.046060765328965,0.13154010826450363
9.062508,4.044290982008026,0.13163974402388565
9.064892,4.0390760757016935,0.1317935581654702
9.067296,4.037213744582137,0.13183333919811108
9.069684,4.034699787156523,0.1318661815686689
9.072064,4.031673973051711,0.13187746152073904
9.074459999999998,4.029347007081199,0.13182378289537935
9.076847999999998,4.027579119618129,0.13171844715826428
9.079228,4.018222138049971,0.13177700484233645
9.081632,4.0104951701758935,0.13175073394527617
9.08402,4.008262647861868,0.13155266725553255
9.0864,3.9972303266292593,0.1315659733972471
9.088804,3.988200106143066,0.13152700939671388
9.091192,3.9780989504702338,0.1315209462898475
9.093571999999998,3.9681375644242616,0.13150084273065296
9.095968,3.9643222502444004,0.13131408278587323
9.098356,3.9634402023707342,0.13105545110158356
9.100736,3.958833492257956,0.13087343714007482
9.103136,3.9625147243845644,0.13045507423251346
9.10552,3.9569768487120065,0.13029184435840477
9.107904,3.9555829441591435,0.13001047343302302
9.1103,3.958053471472253,0.1296404594180537
9.112688,3.963177725837837,0.12922259525883728
9.115068,3.9650891746435066,0.1289043094879078
9.117472,3.9680715586358137,0.12855520252466784
9.119856,3.961974604455815,0.12844299021409056
9.12224,3.9526648447159003,0.12842782169611658
9.124636,3.943075545722267,0.12843788619954336
9.127019999999998,3.939213009714162,0.12831976192555908
9.129404,3.9312065025863636,0.12831857053057272
9.131804,3.926924657697679,0.12823964731972656
9.134187999999998,3.927578179861606,0.1280380013700993
9.136568,3.927020997212035,0.12788268061285282
9.138976,3.925672418629545,0.12773225866222254
9.14136,3.924184070420195,0.12759523783691074
9.143743999999998,3.917620585531373,0.12759410600535664
9.14614,3.9117087269486093,0.12760020409700998
9.148523999999998,3.9092419913512377,0.12755676407203123
9.150908,3.902351745380452,0.12765512741253765
9.153312,3.9025387368355555,0.12756772757199802
9.155696,3.8984419875441048,0.12761019512407196
9.158076,3.8875475400804853,0.12781407540774495
9.16048,3.8798658981767815,0.1279172402421845
9.162868,3.8731154218328556,0.12800209536017254
9.165252,3.86608540623521,0.12811179308240664
9.167648,3.866924023996371,0.12803163128149092
9.170036,3.8706959080637278,0.127880570438956
9.172415999999998,3.876469892877501,0.1276802117058183
9.174812,3.880893403250915,0.12753888710464642
9.1772,3.8893211151171636,0.1272966688339977
9.17958,3.889088797691686,0.12724908835958668
9.181984,3.890998350639486,0.12713872783959188
9.184372,3.895049773960563,0.1269669146553781
9.186751999999998,3.9040365643342523,0.12668015293239002
9.189148,3.9138147506408587,0.12638993736496434
9.191536,3.925734807320743,0.1260352682399779
9.193915999999998,3.9362118417616507,0.1256780966922986
9.19632,3.946968415456279,0.12529763148269596
9.198704,3.959866859524185,0.12485549494682716
9.201088,3.9718341380323117,0.12444086327571044
9.203488,3.9898077187796894,0.12388303922797239
9.205876,4.013368292885737,0.12321518609334003
9.20826,4.030503255871954,0.12273026440516979
9.210656,4.043634017365337,0.12233409812250493
9.213044,4.055973382925801,0.12194487896826994
9.215428,4.066170878112989,0.12161954768047556
9.217824,4.076088834046456,0.12132219053065398
9.220212,4.0818628188602295,0.1211331704086649
9.222596,4.087124946994805,0.12092226441185068
9.224992,4.086241003263271,0.12086737642127107
9.22738,4.094668715129518,0.12063589645492805
9.229764,4.101745952555407,0.1204637605435772
9.23216,4.104539449234742,0.12041186424763076
9.234552,4.106122241100579,0.12040330666777364
9.236932,4.107844802593275,0.12038248857669029
9.239328,4.113431795951945,0.12028496946717745
9.241716,4.12046181154959,0.12019214179711381
9.244096,4.127352057520375,0.12011275623334589
9.246492,4.135964864983857,0.12001597743042798
9.24888,4.140293931700786,0.12003053397283495
9.251259999999998,4.143971372111656,0.1200376249922347
9.253656,4.1480681214031065,0.12001017481693001
9.256044,4.158590481814389,0.1198226298541669
9.258423999999998,4.181265216331033,0.11938205013699071
9.26082,4.2036604115939555,0.11896480393001985
9.263208,4.229408182043653,0.1184642655942537
9.265591999999998,4.254364556560434,0.11796770291223285
9.267992,4.281183262196771,0.11743640724094159
9.27038,4.3138685004454995,0.11680765235729783
9.272764,4.351489105746839,0.1160728358574109
9.27516,4.3856645880627845,0.11539127287982402
9.277548,4.420771235938511,0.11470319278763118
9.279927999999998,4.455877883814235,0.11400023726495223
9.282324,4.489401739824125,0.11331038809776153
9.284712,4.521854660647375,0.112649643211258
9.287095999999998,4.546159408858098,0.1121573063032104
9.289492,4.570743696322541,0.1116459684186666
9.29188,4.593465652667426,0.1111624248255805
9.29426,4.6113920115865605,0.11076028184247286
9.29666,4.632670945692471,0.1102699609791582
9.299044,4.6505973046116065,0.10986897227648376
9.301424,4.667173189090382,0.10952068732709304
9.303819999999998,4.6805362680092415,0.109250281167932
9.306207999999998,4.683749073569157,0.10917959571493771
9.308588,4.68896397987549,0.10907316082717829
9.311004,4.689895145435267,0.10906064647353932
9.313388,4.692037015808544,0.10901447828187597
9.315767999999998,4.699114253234434,0.10888708795094544
9.318164,4.698043318047795,0.10890962647111281
9.320552,4.698043318047795,0.10890962647111281
9.322944,4.698555174726993,0.10892890956444974
9.32534,4.698275635473272,0.10894942539174729
9.327728,4.704281937712523,0.10885010498208988
9.330108,4.708937765511415,0.10879275326861299
9.332512,4.713453823683446,0.10874551577526279
9.334896,4.724255723348449,0.10857664593036737
9.337276,4.73598878857323,0.10839864184529552
9.339672,4.749863724171288,0.1081780262668184
9.342056,4.76788263088904,0.10788156652259366
9.344435999999998,4.785621998353071,0.10760830800242993
9.346851999999998,4.8045720706306,0.10730244645309502
9.349236,4.824453308467909,0.1069884568648505
9.351616,4.846476416678494,0.1066353065572381
9.354012,4.86849952488908,0.10627628069083393
9.3564,4.88186260380794,0.1060344776742209
9.35878,4.897367553100076,0.10574908395903723
9.361183999999998,4.910590862392076,0.10551789435322781
9.363572,4.917296012765627,0.10536882779070436
9.365952,4.928145134258873,0.10514235467339916
9.368356,4.93913402537898,0.10490939694558526
9.37074,4.94881966388697,0.10466028893923121
9.37312,4.954501100902125,0.10447448719637883
9.375516,4.95417623567803,0.10438603890725039
9.3779,4.957064176013851,0.10423506708668918
9.38028,4.961302590790032,0.10404377684700923
9.382684,4.965541005566212,0.10385485484228694
9.385072,4.963912887730002,0.10374883767924487
9.387452,4.9590719643338765,0.103704470148701
9.389855999999998,4.952228940191334,0.10369074583149529
9.39224,4.942592419369457,0.10370887526254403
9.394624,4.934957999293996,0.1036952362715941
9.39702,4.921596816233005,0.10375513046675351
9.399404,4.904091662052321,0.10388651408679508
9.401784,4.889659543804691,0.10396699005260394
9.404188,4.888310965222202,0.10384081887531306
9.406576,4.886031221079934,0.10372531443669923
9.408956,4.886033116937804,0.10355938230756608
9.411359999999998,4.8861747824225334,0.10338239999367972
9.413747999999998,4.881660620108371,0.10325743803075518
9.416128,4.874352961114873,0.10316376542473443
9.418523999999998,4.862761561374822,0.10315215281301708
9.420912,4.854382967194685,0.10307871705381084
9.423292,4.851219279320882,0.10291177548081178
9.425688,4.846193260327523,0.1027660174837328
9.428076,4.839165140587745,0.10265064039026778
9.430456,4.828272588981996,0.10258584057997158
9.432852,4.821663778122799,0.10243959299096506
9.43524,4.822271974316354,0.10217266240567503
9.43762,4.820878069763489,0.10193519585947988
9.440016,4.821486265957042,0.10166633650549688
9.442404,4.8191611958444005,0.10143878238943556
9.444784,4.820840327224592,0.10114820024599973
9.44718,4.822938767485366,0.10082491827812338
9.449568,4.82452535106694,0.10048308464178779
9.451947999999998,4.820897028342182,0.10023600747335122
9.454348,4.817408475244284,0.09997904722452669
9.456732,4.813268295840329,0.0997125680279683
9.459112,4.811642073861989,0.09943627954972895
9.461528,4.818536111548512,0.09906453431055973
9.463916,4.825150609981316,0.09871124494836073
9.466296,4.837771410653371,0.09826877953843838
9.468692,4.849321276138786,0.09784592628949629
9.47108,4.855516465691009,0.09752216403321512
9.473475999999998,4.860780489683454,0.09720803311060822
9.475872,4.869117549608954,0.09684766718086019
9.478255999999998,4.881179271773568,0.09645042660291372
9.48064,4.896825886550434,0.09603202215638701
9.483035999999998,4.902601767222077,0.09574415934596481
9.48542,4.912521619013413,0.09539219745500721
9.487804,4.924443571551166,0.09501554395060427
9.490199999999998,4.938227855208476,0.09462195595065083
9.492588,4.948007937372953,0.09427941553506568
9.494968,4.961372912149683,0.0939118997875531
9.497372,4.9729681036054725,0.09361087665907625
9.499756,4.9827009639417055,0.09332809665850707
9.50214,4.992433824277939,0.09304639627234268
9.504535999999998,5.00146783647987,0.09281343055521932
9.50692,5.006777186442689,0.09261412983295801
9.5093,5.0054286078602,0.09248607800840113
9.511708,5.006082130024127,0.09233145356004997
9.514091999999998,5.003802385881859,0.09221208853174603
9.516472,5.004316138418926,0.09206781475015696
9.518868,5.010044797262326,0.09184469418222736
9.521256,5.016425082411782,0.09163201730686943
9.523651999999998,5.017730230881766,0.09148901954803523
9.526048,5.015170947485778,0.09138845080017646
9.528432,5.009026771477536,0.09131105074004163
9.530812,5.011682394387881,0.09113346789948004
9.533212,5.009123110991892,0.09103299056535616
9.535595999999998,5.005632662036126,0.09094067582386944
9.53798,5.000279881960803,0.0908638140468326
9.540384,5.005217144871283,0.09064611354130311
9.542772,5.010294177408625,0.09042161972934251
9.545151999999998,5.018863554759603,0.09013004910360178
9.547548,5.030226428789916,0.08981750278939268
9.549936,5.04051836763359,0.08952149251664097
9.552316,5.048016809797929,0.089245229510032
9.55472,5.062592489388156,0.08888252997842955
9.557104,5.081172370471218,0.08847386471221998
9.559487999999998,5.09896085562136,0.08806569818758911
9.561884,5.119682607077699,0.08762928956937843
9.564272,5.137331322600982,0.08723336294337383
9.566652,5.148833966258156,0.08691664987858452
9.569048,5.1624784802886055,0.08657012344329744
9.571436,5.181058361371669,0.08617063928832086
9.573816,5.19977801208159,0.0857586496119006
9.576211999999998,5.2159364835376545,0.08540457244064015
9.578599999999998,5.226088652754468,0.08512220397442705
9.580984,5.242526663464253,0.08475414710552004
9.583379999999998,5.257893738987399,0.08440393851707338
9.585767999999998,5.274983376003241,0.0840493677886651
9.588164,5.285787171526113,0.08378597054544791
9.59056,5.294728635929428,0.08353763049787934
9.592948,5.301667999586326,0.08331272131870522
9.595332,5.304882701004111,0.08311316581669066
9.597728,5.311030668728091,0.08288713236494447
9.600116,5.322253773131543,0.0826038386572874
9.602496,5.330264071975079,0.08236861484372926
9.604892,5.3369238963782575,0.08216680835874841
9.60728,5.345306282274131,0.08196316503737755
9.609664,5.3496844666771715,0.08179981518268173
9.61206,5.355552895147431,0.08159683357659424
9.614448,5.365565294737385,0.08134463101126813
9.616827999999998,5.373575593580922,0.08111399391927705
9.619236,5.379304252424323,0.08092094163013365
9.62162,5.392901544626529,0.08066132131855548
9.624,5.412784678321707,0.08032900542509237
9.626404,5.436532243882858,0.07996696431604008
9.628792,5.4537144286973165,0.07969592271175552
9.631176,5.470756843884916,0.07943347795461288
9.633572,5.487287402393318,0.07915322870489977
9.63596,5.50367819127486,0.0788815341627385
9.63834,5.5210001457161795,0.07860646253914376
9.640736,5.538042560903779,0.07834843776612366
9.643124,5.556807537584076,0.07808728764836967
9.645504,5.56956621202512,0.07788147589554179
9.647908,5.579391620159971,0.07770059969953
9.650296,5.589217028294819,0.0775209000267952
