Time,Force,Position
8.934371999999996,0.01424424112773438,0.0
8.936768,0.006252505925701643,0.0
8.939160000000001,0.0010542674030038649,0.0
8.941543999999993,0.0,0.0
8.943939999999998,0.0,0.0
8.946327999999994,0.0,0.0
8.948712,0.0002628714700857544,0.0
8.95110799999999,0.0035987788732268905,0.0
8.953499999999991,0.0070744559032282365,0.0
8.955879999999993,0.012412464052786225,0.0
8.958275999999998,0.02068373850853938,0.0
8.960663999999994,0.026021746658097367,0.0
8.963048,0.03443279074071074,0.0
8.96544399999999,0.043775000383102426,0.0
8.967832000000001,0.052977440398633904,0.0
8.970215999999994,0.06432175078744244,0.0
8.972616000000002,0.07580583080311121,0.0
8.975003999999998,0.08649851488586183,0.0
8.977384,0.09518909822219562,0.0
8.979783999999995,0.10387968155852942,0.0
8.982171999999991,0.11135956008136447,0.0
8.984551999999994,0.11963083453711762,0.0
8.986952000000002,0.1289730441795093,0.0
8.989339999999999,0.13710454900840224,0.0
8.99172,0.14523605383729518,0.0
8.994119999999995,0.15201708422582919,0.0
8.996507999999992,0.15639337277100038,0.0
8.998887999999994,0.15476335907692101,0.0
9.001283999999998,0.15128768204691967,0.0
9.003671999999995,0.1459496738973617,0.0
9.006051999999997,0.13767839944160853,0.0
9.008451999999991,0.13234039129205055,0.0
9.010840000000002,0.12392934720943719,0.0
9.013220000000004,0.1145871375670455,0.0
9.015619999999998,0.10538469755151403,0.0
9.018007999999996,0.09404038716270548,0.0
9.020392,0.08255630714703673,0.0
9.022787999999991,0.07186362306428609,0.0
9.025176000000002,0.06317303972795228,0.0
9.027559999999994,0.05448245639161851,0.0
9.029956,0.04700257786878346,0.0
9.032343999999997,0.03873130341303029,0.0
9.034728,0.029389093770638603,0.0
9.037123999999991,0.02125758894174565,0.0
9.039512000000002,0.013126084112852703,0.0
9.041895999999994,0.006345053724318703,0.0
9.044292,0.001705893709061765,0.0
9.046679999999997,0.0,0.0
9.049064,0.0,0.0
9.051459999999992,0.0,0.0
9.053848000000002,0.0,0.0
9.056231999999994,0.0,0.0
9.058632000000005,0.0,0.0
9.06102,0.0,0.0
9.0634,0.0,0.0
9.065795999999992,0.0,0.0
9.068187999999992,0.0,0.0
9.070567999999994,0.0,0.0
9.072964,0.0,0.0
9.075351999999995,0.0,0.0
9.077736000000002,0.0,0.0
9.080135999999996,0.0,0.0
9.082523999999992,0.0,0.0
9.084908,0.0021252025896423958,0.0
9.087304000000003,0.006392275552561852,0.0
9.089692,0.01294098851561858,0.0
9.092075999999992,0.018698305545757198,0.0
9.094476,0.02459539220275602,0.0
9.096859999999992,0.03263434923303191,0.0
9.099244,0.034107925516616414,0.0
9.101640000000003,0.03455589258393628,0.0
9.104028,0.04110081383125452,0.0
9.106411999999992,0.05411477631090862,0.0
9.108812,0.07988362151586953,0.0
9.111199999999997,0.11095802496791071,0.0
9.113584000000005,0.14696589961469467,0.0
9.115979999999992,0.19177167732219488,0.00884655142282518
9.118368000000004,0.24295394846341395,0.017728323027512698
9.120751999999996,0.30367829677002417,0.026432716412775517
9.123148,0.37594682298844245,0.0348084960021535
9.12554,0.45794441782735545,0.042898757647341565
9.127920000000003,0.5500903901673436,0.05067264740345749
9.130319999999998,0.6440967977690191,0.05877498492200003
9.132707999999994,0.7400728562146338,0.06713924459818044
9.135087999999996,0.8406556247730277,0.0756068286927759
9.13748799999999,0.9430516067648658,0.0842965370750323
9.139876,1.0527552477502011,0.09298520177088462
9.142259999999991,1.1711170221693925,0.1015080975111459
9.144660000000002,1.2959950596491627,0.10990881252294399
9.147047999999998,1.4402405824291744,0.11799255777359002
9.14943199999999,1.5967782489414077,0.12574636962978838
9.151827999999997,1.7544359683263917,0.13320254942648194
9.154212,1.9082330475611406,0.14043260397096297
9.156592000000003,2.0443870988462143,0.14774541482236667
9.158987999999994,2.176306527070846,0.15501339409911374
9.161376000000004,2.3065978374592673,0.162221450065488
9.163755999999992,2.4275321662795313,0.16064850718046272
9.166156,2.5425093105466576,0.1589911383289755
9.168539999999991,2.6470604339168577,0.15745039497745816
9.170924,2.735271781949498,0.15639341122545927
9.173320000000004,2.8122638172944243,0.15571949034235583
9.175708,2.8781290877502537,0.15548355921979318
9.178088000000002,2.947720916303066,0.15474364888608644
9.180492,3.016710236235933,0.15357689557291432
9.182879999999995,3.0757853919510705,0.15234962743038993
9.18526,3.1298345286728484,0.1509278983248806
9.187656000000004,3.1777394893863846,0.14954616522603056
9.190044,3.2164272381586243,0.14838046280387193
9.192424000000004,3.244454752750591,0.14741133062746573
9.194823999999995,3.2590285364829494,0.14675412882939334
9.197208000000003,3.2606132242066557,0.14646859591151135
9.199591999999996,3.2517680993176956,0.14662501571265874
9.201988,3.239475955585475,0.1471152258668487
9.204375999999996,3.2365880152496533,0.14738439847135437
9.206756,3.2298356430478585,0.1477910880423688
9.209155999999991,3.2199176871143917,0.14823991496013939
9.211544000000004,3.2125609104347825,0.14854380852153437
9.213923999999992,3.2063676167404283,0.14887121345798374
9.216319999999996,3.201570123456807,0.14928114141626617
9.218707999999992,3.2072024427858503,0.14927424984244236
9.221092,3.213813149502916,0.1491479749204329
9.223488000000003,3.220610847675084,0.14891117158378386
9.225880000000004,3.2204710780482237,0.1489279204803603
9.228259999999992,3.2172110506600653,0.1491481795006722
9.230655999999996,3.216697298122999,0.14937603213804374
9.233043999999992,3.2212586822654043,0.149414232674165
9.235423999999997,3.2255877489823326,0.14939720200566872
9.237824000000003,3.2287061108857618,0.14943946422490642
9.240212,3.2380630924539187,0.1493189236680704
9.242592000000002,3.2505856577537484,0.1491556067813701
9.244991999999996,3.2646910149194137,0.14896632897394432
9.247379999999993,3.281357551338937,0.1486274568057847
9.249759999999997,3.29993364070626,0.14813894596821806
9.252156,3.3127829670880535,0.14784654567573438
9.254543999999996,3.331870913134574,0.1473886588905805
9.256928000000002,3.35347281660671,0.14688819437235978
9.259323999999992,3.3692081874664552,0.146584457426447
9.261712000000005,3.381358665713947,0.1463750053267605
9.264091999999993,3.3928575176553815,0.14615968590154296
9.266492,3.396160975156045,0.14634134873236554
9.268879999999996,3.401698850828603,0.14650550481864766
9.271259999999998,3.4070969568742995,0.14668623265981165
9.273659999999992,3.4150562421738546,0.14672918639016683
9.276044,3.423714375607711,0.14669050832241834
9.278424,3.4378669546016196,0.1464245267997251
9.280819999999991,3.447875562475835,0.1463205340536061
9.283208000000002,3.457092774417132,0.14622740927315123
9.285588000000004,3.470501179306366,0.14589930851332172
9.287992000000004,3.476088172665036,0.14574325022796525
9.29038,3.4782300430383124,0.14566032521927422
9.292763999999991,3.479580517478672,0.14558721414404036
9.295168000000004,3.4825137837848663,0.14549378827154133
9.297556,3.484515884531284,0.14542684574245968
9.299936000000002,3.4858663589716423,0.14535331817706348
9.302335999999997,3.483911480053468,0.14533691876039956
9.304720000000003,3.4777200822169836,0.1454013341607656
9.307103999999995,3.4776747562466093,0.14524996442391047
9.309504000000004,3.4791196743434543,0.14500860865706308
9.311892,3.4809839013208803,0.1447202731425826
9.314272000000004,3.4828953501265496,0.14434132214879794
9.316667999999993,3.482432611133464,0.143995773342237
9.319056000000003,3.4870450088198512,0.1434758272122053
9.321435999999991,3.488724140200043,0.14304924388835397
9.323840000000004,3.486678609341122,0.14272529255216906
9.326228,3.4776956106831713,0.14262968881146673
9.328608000000004,3.467641676838583,0.142576389521125
9.331007999999995,3.462243570792886,0.14239375378765765
9.333395999999992,3.455634759933689,0.1422650062480241
9.335775999999996,3.453821546500245,0.14199753908900623
9.338176000000004,3.4581544049329116,0.14152857255467433
9.340559999999996,3.4657000689254938,0.14094604680414435
9.342944000000005,3.472314567358297,0.14038910955208886
9.345339999999991,3.4789290657911014,0.13983316454816347
9.347731999999992,3.4904789312765163,0.13913382610875877
9.350111999999996,3.503099731948571,0.13840137310675077
9.352508,3.5183742596731,0.13761424337345227
9.354895999999997,3.53243808258413,0.1368917160246242
9.357276,3.549807258853693,0.13613203388504008
9.359679999999996,3.5661054999366177,0.1354090917653046
9.362067999999994,3.5818446625121014,0.13472817969770304
9.364447999999996,3.597444055460725,0.1340593838558782
9.366844,3.6021017791174863,0.13371318427446643
9.369236,3.6075508987071654,0.13335537159064684
9.371616000000005,3.6147225797895404,0.13296019642974405
9.374011999999992,3.622825426431694,0.13253603522002108
9.376400000000004,3.629065941954291,0.13215366193453937
9.378783999999996,3.6294399248644975,0.1319533663879397
9.38118,3.6261817933342084,0.1319201599071012
9.383567999999997,3.62157318736356,0.1319578252794933
9.385952000000003,3.6048122072875506,0.13240263695482365
9.388347999999992,3.584558882397905,0.1329964688286912
9.390736000000004,3.564445327135119,0.13357347003660616
9.393119999999996,3.5421899014990568,0.1342380839836999
9.395516,3.513928173623743,0.1350992715373512
9.397903999999995,3.4855266761215704,0.1359624365151567
9.400288000000003,3.453120977126563,0.1369666016623937
9.402683999999994,3.4204357388778357,0.13799209336307602
9.405072000000004,3.381744198389857,0.13922250652007612
9.407455999999996,3.3477084857007706,0.1403060859558004
9.409852,3.318468370437436,0.14126096617445766
9.412239999999995,3.2934647740924126,0.14212841103221446
9.41462,3.2817770348380058,0.1426292839895363
9.417019999999994,3.271672087449435,0.14311417467047388
9.419404,3.264360636740199,0.1435251733509685
9.421787999999992,3.2589115171505205,0.14388829966829575
9.424183999999997,3.2594686998000917,0.14406194698097588
9.426575999999995,3.262539839875278,0.14419471113388482
9.428956,3.2686840158835198,0.14422306690326547
9.431352000000004,3.276038896705259,0.14419658709516295
9.43374,3.294335446818862,0.14381687437386903
9.436123999999992,3.313982471372824,0.14336143619951666
9.438519999999995,3.335212287792622,0.1428928712049545
9.440907999999991,3.360166766451533,0.14232179362189445
9.443287999999995,3.391779173655753,0.1415610749529673
9.445688000000004,3.4211099408598358,0.14089636208275144
9.448076,3.454305139929892,0.140103717339143
9.450456000000004,3.4876401086268083,0.1393026334036692
9.452855999999995,3.5292630195631123,0.13821291068006786
9.455243999999992,3.5671612682603033,0.13725088075660555
9.457623999999996,3.610414192890686,0.13614690290727555
9.46002,3.650361764162537,0.13511133001633996
9.462407999999996,3.6859330468892164,0.13420556861211821
9.464792000000005,3.7260676096161705,0.1331592667949142
9.467187999999991,3.765550546037067,0.13212391681377728
9.469576000000004,3.80717535283124,0.13104225866140448
9.471959999999996,3.845727123692358,0.13006598713907688
9.474360000000004,3.884837973060916,0.12904400583535128
9.476748,3.924507900936916,0.1279803052812957
9.479128000000005,3.9632466632531367,0.126943923300124
9.481527999999996,3.9990521592631625,0.12600324898775103
9.483915999999994,4.035928590459828,0.12503938002017786
9.4863,4.071501769044377,0.12407084387734929
9.48869599999999,4.105771695016809,0.12309721368151191
9.49108799999999,4.138738368377127,0.12213534731830208
9.493467999999991,4.174266220991301,0.12107694704552119
9.495868000000002,4.2110047784189755,0.1199908915587101
9.498255999999998,4.24695193991373,0.11891472401186559
9.500636,4.27503046804968,0.11802047297720923
9.503035999999994,4.298033859506155,0.11723108052386612
9.50542399999999,4.3113062864842675,0.11665669765339041
9.507807999999995,4.3205745119695464,0.11616569194417077
9.510207999999992,4.325978305588852,0.11575370748190798
9.512596000000002,4.324165092155407,0.115519064915448
9.514979999999994,4.320210008348686,0.11534071423116667
9.517376,4.309317456742937,0.11531039114747635
9.519763999999997,4.3027086458837385,0.11516699802097735
9.522148,4.294097734278126,0.11506610231548661
9.524543999999992,4.285347053045654,0.11497593098938376
9.526935999999992,4.275385666999682,0.11492507264538214
9.529315999999994,4.262351245020654,0.11494438022747465
9.531716000000005,4.247035183041489,0.1150299307173836
9.534104,4.230089107368245,0.1151913721927132
9.536484000000002,4.211513018000922,0.1154290712239221
9.538879999999992,4.185440382327129,0.11586452163302058
9.541268000000002,4.15601517146656,0.11639620011787918
9.543651999999994,4.122445989486297,0.11702660581832237
9.546048,4.087666102692537,0.11770020812313202
9.54844,4.0576818133245265,0.11828363329081833
9.550823999999992,4.033703826195768,0.11874415526290802
9.553219999999996,4.012519335746344,0.11916030348746315
9.555611999999996,3.999203478655727,0.11940948400091489
9.557992,3.9905434493640017,0.1195770910109554
9.560388000000003,3.9860273911919704,0.11964387962933495
9.562780000000004,3.9853757648859123,0.11963494283435831
9.565159999999992,3.992732541565522,0.11945210013422641
9.56756,3.9907304408191058,0.11949565475569592
9.569943999999992,3.9912422974983035,0.11951691105394285
9.572328,3.993197176416477,0.11954396624483175
9.574727999999991,3.997293925707927,0.11951626717860883
9.577116000000004,4.0041841716787125,0.1194419434675756
9.579495999999992,4.014147453582554,0.11929775654676449
9.581896,4.030256807352506,0.11901765979315522
9.584288,4.051441297801929,0.11862986553434726
9.586671999999991,4.0815653567968,0.11805410413375217
9.589067999999996,4.114622682097865,0.11741661516421235
9.591455999999994,4.154617475197959,0.11664520258291572
9.59384,4.196614369044469,0.11582952984877154
9.59623599999999,4.239682198077619,0.11500766185760807
9.598624,4.283401653416826,0.1142044760395525
9.601007999999991,4.3287039006218695,0.11340192381428806
9.603403999999998,4.3710728815207185,0.11267420626633987
9.605791999999994,4.407295790553455,0.1120753679764398
9.608176,4.441237059586055,0.11154494344382068
9.61057199999999,4.471174127125822,0.11109693224068133
9.61296,4.496967223545894,0.11074651857866942
9.615340000000003,4.530768722951635,0.11023719766397297
9.617739999999998,4.562056264931759,0.1097481879067985
9.620127999999994,4.587756813553216,0.10933897615381988
9.622512,4.612665966241753,0.108935938229103
9.62490799999999,4.637063262251092,0.10851496676602303
9.627296,4.660529392700654,0.10811338165480731
9.629679999999992,4.678268760164684,0.10780764143373614
9.632080000000002,4.691492069456684,0.10755857363409782
9.634467999999998,4.702341190949929,0.10732002134511602
9.636848,4.711327981323619,0.1071057087052952
9.63924399999999,4.711514972778723,0.10703254578528337
9.641632,4.711050337927768,0.10695028964857434
9.644015999999992,4.705650336024201,0.10694848580586429
9.646411999999998,4.702020117441574,0.10687149770248176
9.648799999999994,4.694944775873554,0.10681963264747693
9.651179999999997,4.686007103185977,0.10679038024955963
9.653579999999993,4.681912249752396,0.10663151746279566
9.655971999999991,4.676234604452978,0.10647438098463816
9.658355999999998,4.6739095343403365,0.106240970823891
9.660752000000002,4.671724233854555,0.10599712462386704
9.66314,4.666885206316298,0.10577802384678901
9.66552399999999,4.664048279524458,0.10552609910637689
9.667919999999995,4.665495093479173,0.1051869185305242
9.670311999999996,4.668804238553444,0.10482757158786479
9.672691999999998,4.674255254000992,0.1044287301615557
9.675088000000002,4.678914873515622,0.10403202703057539
9.677480000000005,4.683574493030253,0.10363399147305857
9.67985999999999,4.687023407731384,0.10326511564557758
9.682255999999995,4.686979977618879,0.10297979913562534
9.684643999999992,4.690289122693151,0.10262244462045399
9.687027999999998,4.699604570006673,0.10216840227193025
9.689424000000002,4.708920017320195,0.10171570780516821
9.691812,4.72345037094005,0.10117184143064523
9.694195999999993,4.730623947880294,0.10076319295287178
9.696591999999995,4.739659855940094,0.10033214921514422
9.698979999999992,4.751629030306091,0.09986168401082318
9.701363999999998,4.760897255791369,0.09947452818777461
9.703760000000004,4.773098747582843,0.09904630371246353
9.706148,4.7791541675082065,0.09871938757875556
9.708531999999993,4.783998882620071,0.09842250168880937
9.710932,4.787632892918436,0.09815612795108847
9.713319999999996,4.79084759433622,0.09792170154473329
9.715704000000002,4.793782756500285,0.09770913068270365
9.718099999999993,4.792573947544656,0.09756710279474383
9.720491999999991,4.783077196349638,0.0975662904618716
9.722876,4.772229970714262,0.09760628149613534
9.725272000000004,4.761382745078886,0.09764640454085466
9.72766,4.754539720936342,0.0976250034892302
9.730040000000002,4.748488092726718,0.09760435873904931
9.732439999999997,4.739875285263236,0.0976548102982126
9.734827999999991,4.729120607426477,0.09774480889602685
9.737212,4.719017555895776,0.09784425170750555
9.739608000000004,4.703420058805021,0.09805313022689624
9.74199999999999,4.693549324699797,0.09819368412365846
9.744379999999992,4.682467885781075,0.09836518605597623
9.74678,4.6680338716755765,0.09860690195062448
9.749167999999996,4.6554621886896355,0.09882927250097566
9.751552000000004,4.643402362382891,0.09906967529775021
9.753951999999998,4.6401423349947315,0.09919022342299955
9.756339999999994,4.641957444286045,0.09923129010137854
9.75872799999999,4.645495115070055,0.09926294265829516
9.761128,4.645587662868673,0.09931356562055255
9.763515999999996,4.643258801040292,0.09942418908085873
9.765895999999998,4.64786740701094,0.09943608986679778
9.768295999999992,4.664069308579508,0.09930115306280374
9.770684000000005,4.681062606080995,0.09916469437499541
9.773072,4.698847299515401,0.09902823472191867
9.775468000000004,4.714350352949669,0.09894307286293683
9.777860000000004,4.737210183063546,0.09873468348197849
9.780248,4.759558156498225,0.09850573023101422
9.782647999999996,4.781906129932905,0.09827677698004994
9.785035999999993,4.804393872994446,0.09804021963310772
9.787424,4.828232090496344,0.09776089624081881
9.789819999999992,4.850068207251825,0.09751210022845813
9.792208000000002,4.874977359940362,0.0972157827261178
9.794600000000004,4.898303720763063,0.09691342410502027
9.796995999999991,4.922189160093206,0.09657451159246488
9.799387999999992,4.943700411624594,0.09623624912641722
9.801772,4.958413964983813,0.0959876288914447
9.804171999999994,4.968331920917281,0.09579804343121243
9.80655999999999,4.979879890544828,0.09555351171163362
9.808948,4.997154623157904,0.09524639333431037
9.811343999999991,5.0152679735321435,0.09487928672380146
9.813732000000002,5.025931999428154,0.09458721020617039
9.816131999999996,5.030357405659438,0.09434130000764876
9.81853199999999,5.039625631144715,0.0939893001264206
9.82092,5.050895957376411,0.09361312808862435
9.823315999999991,5.064727462861963,0.09317664519314485
9.825716,5.068828003869153,0.09285245675888923
9.828103999999996,5.0737199408092595,0.09252930998104578
9.83050399999999,5.078891417003088,0.09218806883052962
9.832911999999991,5.085133828383554,0.09183248322204354
9.835300000000004,5.095240671629995,0.09143891562988418
9.837695999999994,5.107908694130292,0.09098734570491535
9.840099999999993,5.120064859951391,0.09052099997474393
9.842491999999991,5.137435932078824,0.08998181399689603
9.844892000000002,5.153736069019616,0.08946233735269908
9.847287999999992,5.170827601893328,0.08894459101010865
9.849688,5.18912983958054,0.08839885308950919
9.852087999999997,5.2065009117079715,0.08785772146794149
9.854475999999991,5.221590343835267,0.0873626907422937
9.856871999999996,5.232815344096589,0.08690846965577799
9.859272000000004,5.245902675477467,0.08644208473843946
9.86166,5.262574899470598,0.08595551818575689
9.864059999999997,5.280829915329566,0.08547446938117303
9.866456,5.2938700248822,0.08506912028226339
9.868848,5.306258508128777,0.08465683347757319
9.871228000000002,5.317436286561856,0.08427274459607818
9.873627999999997,5.333130123166965,0.08386283862108669
9.876015999999993,5.349894894958712,0.0834398551806811
9.8784,5.370524098616435,0.08298892921275568
