Time,Force,Position
8.754472,0.00038078859392538306,0.0
8.756855999999999,0.00038078859392538306,0.0
8.759236,0.0003807885939253831,0.0
8.76164,0.0014324636372362895,0.0
8.764028,0.001552973120768876,0.0
8.766408,0.0015529731207688758,0.0
8.768812,0.0015529731207688758,0.0
8.771196,0.0019530218580218826,0.0
8.773576,0.0034240057819134194,0.0
8.77598,0.0034240057819134194,0.0
8.778368,0.003163726671520623,0.0
8.780747999999999,0.0031637266715206233,0.0
8.783144,0.006497041714968802,0.0
8.785528,0.01290339269147236,0.0
8.787908,0.01930974366797592,0.0
8.790304,0.02357422427120242,0.0
8.792692,0.030911740807484295,0.0
8.795072,0.0359676173436289,0.0
8.797468,0.04102349387977351,0.0
8.799852,0.04395676018596869,0.0
8.802236,0.04994380228189162,0.0
8.804632,0.05513944844489643,0.0
8.807015999999999,0.06326836091409643,0.0
8.809412,0.06927466315334697,0.0
8.811808,0.07579282207179522,0.0
8.814195999999999,0.08028962010049898,0.0
8.816576,0.08385525256942443,0.0
8.818968,0.08345520383217142,0.0
8.821356,0.08198421990827989,0.0
8.823752,0.08198421990827989,0.0
8.826148,0.08424659976508955,0.0
8.828532,0.08744014518167752,0.0
8.830912,0.0874401451816775,0.0
8.833308,0.08143384294242696,0.0
8.835692,0.0752877710763162,0.0
8.838087999999999,0.07328567032989934,0.0
8.840484,0.07021263439684396,0.0
8.842868,0.07049217365056439,0.0
8.845248,0.07249427439698124,0.0
8.847644,0.07463614477025829,0.0
8.850032,0.07184264809092333,0.0
8.852412,0.07170287846406312,0.0
8.854808,0.06490518029189445,0.0
8.857196,0.062391222866279926,0.0
8.859592,0.058713782455409785,0.0
8.861988,0.061182413910650414,0.0
8.864376,0.06858641241850308,0.0
8.866756,0.08020766970133907,0.0
8.869152,0.09462242366351005,0.0
8.87154,0.11089950874523766,0.0
8.87392,0.12170140841024,0.0
8.87632,0.13078074658254596,0.0
8.878703999999999,0.1377182143815748,0.0
8.881084,0.14772871811365906,0.0
8.88348,0.15508549479326855,0.0
8.885868,0.15936923553982268,0.0
8.888264,0.16137133628623954,0.0
8.89066,0.160300401099601,0.0
8.893048,0.1556445733007094,0.0
8.895428,0.15378224218115275,0.0
8.897824,0.15285107662137443,0.0
8.900212,0.1492661840091214,0.0
8.902592,0.14833501844934308,0.0
8.904988,0.14379099859239614,0.0
8.907376,0.14082977060128543,0.0
8.90976,0.13386434111734102,0.0
8.912156,0.12289471014056295,0.0
8.914544,0.11127345285772697,0.0
8.916924,0.09685869889555598,0.0
8.919319999999999,0.08058161381382839,0.0
8.921704,0.06751733429201637,0.0
8.9241,0.055244450703122464,0.0
8.926496,0.04497366786064541,0.0
8.92888,0.03456311539130815,0.0
8.931264,0.026946059601305847,0.0
8.933664,0.02039993899794208,0.0
8.936052,0.014133357648298728,0.0
8.938432,0.00986887704507223,0.0
8.940836,0.007466727561402371,0.0
8.943224,0.004133412517954192,0.0
8.945604,0.0018710326611445442,0.0
8.948,0.0004000487372530067,0.0
8.950388,0.0,0.0
8.952768,0.0,0.0
8.955172,0.0,0.0
8.957559999999999,0.0,0.0
8.95994,0.0,0.0
8.962336,0.0,0.0
8.96472,0.0,0.0
8.9671,0.0,0.0
8.969508,0.0,0.0
8.971892,0.0,0.0
8.974272,0.0,0.0
8.976668,0.0,0.0
8.979052,0.0,0.0
8.981448,0.0,0.0
8.983844,0.0,0.0
8.986232,0.0,0.0
8.988612,0.0,0.0
8.991008,0.0,0.0
8.993396,0.0005398183641132169,0.0
8.995772,0.004944068594199926,0.0
8.998172,0.007485987704729993,0.0
9.000556,0.00974836756153964,0.0
9.00294,0.012010747418349288,0.0
9.005336,0.012131256901881875,0.0
9.00772,0.014253867131831313,0.0
9.010116,0.016516246988640963,0.0
9.01252,0.017847461285672286,0.0
9.014908,0.017847461285672286,0.0
9.017288,0.018107740396065084,0.0
9.019684,0.020789429133455366,0.0
9.022068,0.02253995231106732,0.0
9.024452,0.02253995231106732,0.0
9.026848,0.02253995231106732,0.0
9.029232,0.02253995231106732,0.0
9.031616,0.02253995231106732,0.0
9.034012,0.02253995231106732,0.0
9.0364,0.0245700147423997,0.0
9.03878,0.02767101236037061,0.0
9.041184,0.029301026054449984,0.0
9.043572,0.024896775824363268,0.0
9.045952,0.0223548567138332,0.0
9.048348,0.020092476857023554,0.0
9.050736,0.01783009700021391,0.0
9.053116,0.01770958751668132,0.0
9.055512,0.015586977286731881,0.0
9.0579,0.013324597429922235,0.0
9.060284,0.011993383132890908,0.0
9.06268,0.011993383132890908,0.0
9.065068,0.01173310402249811,0.0
9.067464,0.009051415285107833,0.0
9.069864,0.007300892107495875,0.0
9.072252,0.007300892107495875,0.0
9.074632,0.007300892107495875,0.0
9.077036,0.007300892107495875,0.0
9.07942,0.013656229540017798,0.0
9.0818,0.029833183391651367,0.0
9.084204,0.050868424924869045,0.0
9.086592,0.08079411731742005,0.0
9.088972,0.11965748239754753,0.008843974498896337
9.091372,0.16948858259658386,0.01724716679295752
9.09376,0.22797781622947627,0.025390422584856527
9.09614,0.29428656553506344,0.03359593846459332
9.098544,0.36855460014020563,0.04181203706252125
9.100932,0.44961843705964727,0.049994230632456935
9.103312,0.5360350540544124,0.05817291733752096
9.105716,0.6281765381768383,0.06641390322601137
9.1081,0.7299073212928986,0.07446576422841074
9.110484,0.8394576200816537,0.08256183370489573
9.112876,0.9621821104762962,0.09036266395104872
9.115264,1.0906314679985998,0.09822502441731001
9.117644,1.2249454622754243,0.10612270242805792
9.12004,1.3647047844261895,0.1141132128737003
9.122428,1.5106082825851963,0.12209235289670793
9.124808,1.662982717834408,0.12992837361120368
9.127204,1.8130060171439313,0.13759901054566923
9.129592,1.9512528211161695,0.14525698097203174
9.131972,2.0786542953109004,0.15298535896128346
9.134376,2.1923697212205466,0.1608490332917332
9.136764,2.300173288547428,0.15986047465947628
9.139144,2.4055573421051815,0.15910160206388205
9.14154,2.5022832622290787,0.15860266597045006
9.143924,2.5901659533218857,0.15799676819982922
9.146304,2.670508667995718,0.15732652234767114
9.148704,2.7454986025942274,0.15668187185934093
9.151088,2.819092736782004,0.15597749829341317
9.153468,2.8914780620141514,0.1550839111529571
9.155872,2.952551526759968,0.15441926160525493
9.15826,3.0017087265416387,0.15378767670887164
9.16064,3.035829403597866,0.1535114883236411
9.163036,3.066459631698326,0.1531531546859818
9.165424,3.095461741962575,0.15266459597427368
9.167804,3.1203689987932433,0.15200487101823557
9.170208,3.142903963683026,0.1511611165480726
9.172596,3.159247530736325,0.1504284040100977
9.174976,3.167954781856293,0.15003888157691853
9.17738,3.180991099693189,0.1496294108764887
9.179768,3.2035713905533454,0.14899293111417347
9.182148,3.2290849477196972,0.14823085461917174
9.184552,3.247568489288404,0.14764020563345964
9.186936,3.256460836005607,0.1473932942515753
9.189316,3.266935974588646,0.14712329651975173
9.191716,3.27815528727636,0.14693112290926116
9.1941,3.2889552910834934,0.1467927146621167
9.196484,3.293656444852759,0.14680769952289835
9.19888,3.2944006189574333,0.14688591432614914
9.201264,3.2871363900764408,0.14727049252383506
9.203648,3.2858312416064557,0.14751330300046284
9.206052,3.2922077350401744,0.14757760595871117
9.20844,3.2993756244068115,0.14762771484975845
9.21082,3.303517699668636,0.1477110163936835
9.213216,3.3011416160120124,0.14800089256165072
9.215604,3.299789245713784,0.14832958484680503
9.217984,3.2951768480273973,0.14887466605148467
9.220384,3.2874914144079552,0.14954346083870212
9.222772,3.284509030415648,0.14998633718740423
9.225152,3.277941753811087,0.15052731229764643
9.227556,3.266439110153914,0.15122844560873777
9.229944,3.2613148557883296,0.15173953185628017
9.232328,3.2674118099683285,0.15183950509789212
9.23472,3.2779322745217407,0.15174899419094579
9.237108,3.2859387816495387,0.1517078853154024
9.239488,3.2967387854566716,0.1515864432242686
9.241884,3.308190415569863,0.15147010476919115
9.244272,3.326160204601502,0.15115769668987689
9.246652,3.3425472017673052,0.15086547710765108
9.249056,3.361774917440686,0.15038859926031883
9.251444,3.3759747182628383,0.1500239210509769
9.253824,3.389383123152072,0.1496843016154443
9.25622,3.4038624632279446,0.14929871896629196
9.258608,3.417131098490318,0.1489664896921529
9.260988,3.431889977819911,0.14853283794712896
9.263384,3.444274669350749,0.1481387038943534
9.265772,3.4569389001353077,0.14771333623521707
9.268168,3.4750503546516764,0.14713579223802092
9.270564,3.4922306436082673,0.14659122074809156
9.272952,3.511692572564995,0.14594144124272165
9.275332,3.5286405440961084,0.14533757780751125
9.277728,3.5359973207757176,0.14504743682049245
9.280116,3.5358575511488577,0.1450632384818599
9.282496,3.535438242268277,0.14511025085716045
9.284892,3.5371608037609743,0.14507344054123034
9.28728,3.536369407828056,0.14508384090890866
9.289664,3.5359973207757185,0.1450478339637487
9.29206,3.53697570816374,0.1449418559448333
9.294448,3.539257348163877,0.14484585092553076
9.296828,3.5471259815226843,0.14460528770415096
9.299224,3.5605816082401613,0.14422663365859195
9.301612,3.569521176785607,0.14395450266009954
9.303996,3.579811219771411,0.14361756470180922
9.306392,3.5974580394368254,0.143039200762881
9.30878,3.6200402261548517,0.1423302459408563
9.311164,3.646626614365711,0.14151876964235743
9.31356,3.672421606643654,0.14071753796745357
9.315948,3.6947714759362027,0.13998263259287685
9.318328,3.7160504100421132,0.13928172389478896
9.320728,3.7354670130284666,0.13862647291104743
9.323116,3.756745947134377,0.13792174915529348
9.3255,3.7813774564270632,0.13707649412039083
9.327896,3.8074992097869687,0.13614702130731354
9.330284,3.830967236094399,0.13526915913278734
9.33268,3.8510826872150536,0.13451437951304202
9.335084,3.8736195479627065,0.1336676158829615
9.337468,3.893642451284745,0.1328607051051264
9.339848,3.910452549046867,0.13217475158152184
9.342252,3.9256798549431537,0.13149738644554393
9.344636,3.9353201674807687,0.1309624519793364
9.34702,3.933646723674185,0.1306972671009028
9.349416,3.9339753806140183,0.1303736757641761
9.351804,3.932022397553714,0.13013580140922645
9.354184,3.9227126378137998,0.13013015254177052
9.35658,3.9053944750882184,0.1303473943500071
9.358964,3.8803474486306895,0.13075911046734612
9.361348,3.8527864647475463,0.13121171059066505
9.363744,3.826156646424182,0.1316432325556835
9.366132,3.800318224033735,0.13207118944051544
9.368512,3.7732690968297904,0.13255730507131525
9.370908,3.747570444066204,0.13297272208709268
9.373292,3.722663187235536,0.13337995150080809
9.375676,3.6957538296584507,0.1338463546111241
9.378072,3.670287494320341,0.13431885221754924
9.38046,3.6491048997287865,0.1346464272497382
9.38284,3.622707398830899,0.13513879015531255
9.38524,3.5965422153584887,0.13568889537887785
9.387624,3.5691663270725806,0.13629609797819053
9.390024,3.5475172017722016,0.1367487029790893
9.39242,3.5243778324046042,0.13728950079449553
9.394808,3.5097587227018714,0.13762303504883464
9.397188,3.4956514696783363,0.13797563050758363
9.399584,3.483266778147498,0.13829839975845815
9.401972,3.4727444177362163,0.13857980412863294
9.404352,3.4670176547506864,0.1387344628089804
9.406756,3.4622220573249343,0.13887055657796685
9.409144,3.4588694821381587,0.13900646188802876
9.41152,3.453095497324385,0.13925659054620954
9.413924,3.4516052532571657,0.13934256764375993
9.416308,3.4542589803096404,0.1392850323048255
9.418688,3.4554224632948967,0.13931346033052688
9.421092,3.4590999037057664,0.1393011405849292
9.423476,3.4650117622885306,0.13927739918946264
9.425856,3.473764339378873,0.13910248468082176
9.42826,3.47944388053616,0.13902954870870002
9.430648,3.4911297239326973,0.13877323402423616
9.433028,3.503886502515873,0.1384750630842621
9.435432,3.52292912259202,0.13797118569160557
9.437816,3.5403889508023307,0.13750120589663792
9.440196,3.563063685318974,0.13686459903046516
9.442592,3.5845277150221184,0.13628763812354175
9.444976,3.6050605791654844,0.13573306511050398
9.44736,3.62680414812235,0.1351362375273227
9.449752,3.646825155586518,0.13456182501055014
9.45214,3.6681966374910457,0.13393423818532812
9.454536,3.6934325512615467,0.13320178118209605
9.456928,3.720670565778465,0.13241047896606076
9.459312,3.753403025855436,0.13142852796173338
9.461692,3.7810603492529347,0.13061287080509998
9.464088,3.808577903023573,0.12982927238466938
9.466476,3.8383770967943476,0.12897149311314687
9.468872,3.8647311675797305,0.1281740283440972
9.471268,3.8917840864994147,0.12731346846949523
9.473652,3.916927452471298,0.12658134902263574
9.476032,3.9450040847493764,0.12578172502768997
9.478436,3.9717302425870966,0.12506075827578927
9.480824,4.002879910798232,0.12421588733416947
9.483204,4.030025377516532,0.12349293879543062
9.485608,4.054889204234695,0.12285194037308891
9.487996,4.075888599086885,0.12229984078453175
9.490376,4.094513806140321,0.12175978071976798
9.49278,4.112627156514559,0.12119763445176032
9.495164,4.12873840614238,0.12068665893979155
9.497544,4.147782922076397,0.1201111017097698
9.49994,4.165476963570055,0.11959812724267645
9.502328,4.183962400996631,0.11908743173046135
9.504704,4.205660643983121,0.11850384356549518
9.507108,4.2253567862231955,0.1179756504904851
9.509496,4.249196899582964,0.11735651767169143
9.511876,4.272245617009814,0.1167497234122532
9.514284,4.294363168876885,0.11616719588029131
9.516668,4.31447861999754,0.11561891822364578
9.519048,4.335385467051112,0.11507550362193017
9.521456,4.356851392612126,0.11448933794047055
9.52384,4.375384051866945,0.11396060634444675
9.52622,4.391123214442429,0.11347645704043242
9.528624,4.399505600338302,0.11316268510671533
9.531012,4.403883784741343,0.11292687072844196
9.533392,4.408541508398104,0.11266841459567928
9.535788,4.412128296868227,0.11243391394834146
9.538176,4.420231143510381,0.1121413910640846
9.540556,4.4299167820183705,0.11184436166799752
9.54296,4.437740089406803,0.1115738492661322
9.545344,4.444492461608597,0.1113301378941845
9.547728,4.4503136682506135,0.11110121934139407
9.550124,4.454272543773074,0.11090150409046826
9.552508,4.452085347429422,0.11083121373874391
9.554888,4.448407907018552,0.1108201158004718
9.557284,4.441238121794047,0.11090545217281349
9.559672,4.432717862129182,0.1110372977865781
9.562052,4.421636423210459,0.1112525236952547
9.564448,4.418935474329741,0.11134596899620883
9.566836,4.414232424702607,0.11147611339129312
9.569216,4.407247735075335,0.11166557586679147
9.571612,4.404267246940896,0.11177959109343776
9.574,4.399936284366098,0.11194145366797982
9.576384,4.400680458470773,0.11200417958466896
9.578788,4.4062202300012,0.11198912585365388
9.581176,4.4141341893303805,0.11196865719860521
9.583556,4.424562106085176,0.11193000534964737
9.58596,4.430846051720279,0.11197786282369221
9.588344,4.434056961422325,0.11208746589113738
9.590728,4.439130202243929,0.11217055196436082
9.593124,4.44378413418495,0.1122869680427808
9.595508,4.449369231685751,0.1123898640278751
9.597888,4.45574572511947,0.11249038047490242
9.600292,4.467057585605801,0.1125019109474596
9.60268,4.480651086092269,0.11245396504723547
9.60506,4.49359296027268,0.11239591258198553
9.607456,4.505743438520171,0.11233929988040538
9.609844,4.522317427141078,0.11217411883021891
9.612224,4.5325130264703954,0.1120941480969666
9.61462,4.54471072654613,0.11197853904745192
9.617008,4.558119131435364,0.11182743245676154
9.619388,4.569525435578182,0.11171641378326286
9.621784,4.586426185281052,0.11147771780318212
9.624172,4.603326934983922,0.11124369957827492
9.626568,4.618505123194096,0.11102596102656424
9.628964,4.6302381884188755,0.11083753176038405
9.631352,4.640528231404682,0.11064146332775462
9.633736,4.652168748830845,0.11040029615305451
9.636132,4.6734476829367555,0.10996268883209985
9.638516,4.698730818535499,0.10946390078620076
9.640896,4.7279256078284595,0.10885379730045631
9.643296,4.7566085404422225,0.10822871459523306
9.64568,4.785990321190288,0.10755869400754797
9.648064,4.811647439699239,0.10693930358531639
9.650468,4.833859435222797,0.10634708759852292
9.652852,4.857282135559854,0.10572310884372829
9.655236,4.884848807016603,0.10503033609106517
9.65764,4.906688715487824,0.10441551232110863
9.660024,4.9316016598921,0.10375246735666319
9.662404,4.952789942057263,0.1031337888568864
9.6648,4.974117993849285,0.10250696687178316
9.667188,4.992652548961973,0.10191165302547034
9.669568,5.003318470715854,0.10142983986348386
9.671968,5.010259730230621,0.10099089528851013
9.674352,5.0174805289991085,0.10053313053486339
9.676732,5.02283899664804,0.10009289540930716
9.679132,5.031410269856886,0.09959366300810153
9.681516,5.040121312692594,0.09908543121243868
9.6839,5.037471377355858,0.09877224478386269
9.686296,5.029234448660452,0.09851965380933426
9.688684,5.016993318472212,0.09832496038608218
9.69108,5.003261944216753,0.09817826118958313
9.693476,4.986317764401377,0.09808828995231453
9.695864,4.968582188653085,0.09799774951613736
9.698244,4.952569174397489,0.09789649727562161
9.70064,4.9337626634625575,0.09782332281763677
9.703028,4.909089619915236,0.09782564558803329
9.705412,4.8873498426741095,0.09778927971905366
9.707812,4.860674698380371,0.09781905376011957
9.7102,4.836001654833049,0.09781931142003544
9.71258,4.810257676099089,0.09783797584741166
9.714976,4.784373927738269,0.09786827375979686
9.717364,4.765287877549617,0.09781108407817075
9.719744,4.748064158480521,0.09773419083895103
9.722148,4.7294899649710676,0.09769633176738911
9.724536,4.712498563327449,0.09766023944293975
9.726916,4.692014816870195,0.09770262642226409
9.72932,4.673393401532498,0.09772300722445926
9.731708,4.656494547687498,0.09773753177800064
9.734088,4.640247320148555,0.0977629735462871
9.736484,4.622230309288674,0.09786159164083431
9.738872,4.608357269548485,0.09788785221810255
9.741252,4.597929352793689,0.09789466431278794
9.743648,4.590806789397426,0.09789213109585447
9.746032,4.584196082680361,0.09791003072935806
9.748412,4.580890729321828,0.09791908027732599
9.750808,4.5821014341353274,0.09788858576019867
9.753192,4.583963765254884,0.09786882961982615
9.755588,4.590342154546471,0.09780980737646136
9.757992,4.5973721701441175,0.0977619652901294
9.76038,4.605053812047822,0.0977245018460219
9.76276,4.6155289506308605,0.09765711717748055
9.765164,4.6267954851468165,0.09759272051952111
9.767552,4.640995285968969,0.09749173912867187
9.769932,4.657057417910678,0.0973718257987318
9.772328,4.679265621718496,0.0971592635532555
9.774716,4.70561779664601,0.09688222517295468
9.777096,4.730759266760024,0.0966383082876791
9.779492,4.761255412807231,0.09630154346844041
9.78188,4.792682724414217,0.09595444670535357
9.78426,4.831746351954533,0.09547113632697804
9.786656,4.868947648375292,0.09501562931995004
9.789044,4.90656825367663,0.09453819974838466
9.791424,4.9404641967388585,0.09409378870438317
9.793828,4.975570844614584,0.09362595768948812
9.796216,5.011096801370889,0.0931333527149787
9.798596,5.045831362194276,0.09264504308545003
9.801,5.081636858204302,0.09214427599544686
9.803388,5.113717691975214,0.09167660326227342
9.805768,5.145146899440069,0.09120127203634071
9.808164,5.178857746905061,0.0906852741357701
9.810552,5.212848133623774,0.09015523289206819
9.812932,5.24511595884979,0.08963994379938348
9.815336,5.273519352209833,0.08916960541097768
9.817724,5.302202284823597,0.08868495034629746
9.820104,5.321945648891914,0.08830661783618635
9.8225,5.338755746654035,0.08796346994145048
9.824888,5.3558453836698785,0.08760500242419547
9.827268,5.370001754379525,0.0872811205516264
9.829664,5.387231161022228,0.08692169025019451
9.832052,5.398314495798821,0.08664315639464877
9.834432,5.4075354994558555,0.0863790347197485
9.836828,5.415173711247055,0.08611333775353129
9.839216,5.42737520303853,0.08577116851298448
9.841596,5.437854133337306,0.0854356221622245
9.843992,5.446470732516527,0.08511375227469549
9.846376,5.452433604643273,0.08480231943455785
9.848772,5.455742749717544,0.08450224615685979
9.851176,5.465058197031066,0.08414157800828742
9.85356,5.476096205837284,0.08377927549870176
9.855944,5.487413753897222,0.08340488192155804
9.85834,5.498591532330302,0.08304100208200661
9.860724,5.506696274830323,0.08271076576464706
9.863104,5.517594514009681,0.08236434553533109
9.8655,5.525419717255984,0.08205136273500735
9.867888,5.539390992368398,0.08167011501491907
9.870268,5.55415366341373,0.08129246442273166
9.872664,5.566914233712644,0.08093531479461516
9.875052,5.577393164011421,0.08061307706357249
9.877448,5.587872094310199,0.08029561874543772
