Time,Force,Position
8.067936,7.20416177466131e-05,0.0
8.070319999999999,0.00224993279989698,0.0
8.072703999999998,0.005219219914965458,0.0
8.075099999999999,0.009119672589812257,0.0
8.077483999999998,0.013811521197577163,0.0
8.079864,0.022787110551896195,0.0
8.082268,0.03576690139904893,0.0
8.084655999999999,0.04860692261934145,0.0
8.087036000000001,0.06144694383963397,0.0
8.08944,0.07321602987328797,0.0
8.091823999999999,0.08405395034716365,0.0
8.094204000000001,0.09582303638081764,0.0
8.096612,0.10479862573513668,0.0
8.098996,0.11512468952981465,0.0
8.101375999999998,0.128523789257548,0.0
8.10378,0.14006055786572477,0.0
8.106164,0.1474533553542076,0.0
8.108543999999998,0.1515973264739015,0.0
8.110944,0.15684825358910726,0.0
8.113328,0.162099180704313,0.0
8.115708000000001,0.1654517558910888,0.0
8.118103999999999,0.16759362626436586,0.0
8.120491999999999,0.16815270477180672,0.0
8.122868,0.16778061771946923,0.0
8.125271999999999,0.16661713473421366,0.0
8.127659999999999,0.16210107656218226,0.0
8.130040000000001,0.14943684577762326,0.0
8.132435999999998,0.13798331980656298,0.0
8.134823999999998,0.127460959395281,0.0
8.13722,0.11614720305108095,0.0
8.139616,0.10530928257720526,0.0
8.142,0.09354019654355128,0.0
8.144383999999999,0.08488016725182596,0.0
8.14678,0.074554103457148,0.0
8.149163999999999,0.06115500372941462,0.0
8.151544000000001,0.0503058822361691,0.0
8.153948,0.04453189742239582,0.0
8.156336,0.04211048779539834,0.0
8.158715999999998,0.03685956068019259,0.0
8.161112,0.03160863356498684,0.0
8.163499999999999,0.028907684684268933,0.0
8.165880000000001,0.024587923128841498,0.0
8.168275999999999,0.022538600554181498,0.0
8.170663999999999,0.019558112419743177,0.0
8.173048000000001,0.018579725031721703,0.0
8.175443999999999,0.01452830171064485,0.0
8.177827999999998,0.01569178469590044,0.0
8.180223999999999,0.017786433240934353,0.0
8.182624,0.020020851412828472,0.0
8.185008,0.02905296775689125,0.0
8.187392,0.041613449723463355,0.0
8.189788,0.05231160057047882,0.0
8.192172,0.06269419135490055,0.0
8.194555999999999,0.07446327738855454,0.0
8.196952,0.08530119786243022,0.0
8.19934,0.09344937047495784,0.0
8.201719999999998,0.10094591678142756,0.0
8.204115999999999,0.11030479420745391,0.0
8.206503999999999,0.1215620235619102,0.0
8.2089,0.13389018810300504,0.0
8.211300000000001,0.14646187108894698,0.0
8.213688000000001,0.15664816525676475,0.0
8.216068,0.1644242508169549,0.0
8.218464,0.17299173231006315,0.0
8.220848,0.17955711305675454,0.0
8.223232,0.188264364176723,0.0
8.225628,0.19389857936363605,0.0
8.228012,0.19338672268443838,0.0
8.230395999999999,0.19166416119174193,0.0
8.232792,0.18300413190001663,0.0
8.235176,0.1704436499334445,0.0
8.237559999999998,0.15974549908642904,0.0
8.239956,0.1490473482394136,0.0
8.242344,0.1372782622057596,0.0
8.24474,0.12644034173188393,0.0
8.247143999999999,0.11760452200442513,0.0
8.249528000000002,0.11657701693029127,0.0
8.251912,0.11885296935682081,0.0
8.254307999999998,0.13095053820246202,0.0
8.256695999999998,0.15114716197451844,0.0
8.259076,0.17893098399379237,0.007912174038038617
8.261475999999998,0.21793411870078003,0.015534420265486472
8.263860000000001,0.2623825812817082,0.02351676543078584
8.26624,0.3150698684159118,0.03149486874554708
8.268643999999998,0.3735745704763933,0.03974856349519759
8.271028000000001,0.4411094930230684,0.04789903086800021
8.273408,0.5214465201232935,0.055713032184064634
8.275808000000001,0.6111405287916757,0.0635752582694123
8.278196000000001,0.706699174214579,0.071514241903596
8.280576,0.8082150041906204,0.07973836538957929
8.282968,0.9213110328873433,0.08782422352104151
8.285352,1.04371682132398,0.09581143818775532
8.287748,1.1747807431944728,0.10371013194928004
8.290151999999999,1.307705100326653,0.11183936287584517
8.292535999999998,1.4482166557060505,0.1199355012243823
8.294916,1.5972937967206877,0.1278687647961636
8.297315999999999,1.7379563227463153,0.1359378506133607
8.299703999999998,1.8735928297785835,0.1439688700022961
8.302084,1.994519575167371,0.152100277668245
8.304488,2.1040419122712106,0.16026431675370595
8.306871999999998,2.201972849634999,0.16067309487274908
8.309252,2.2918500580427463,0.16145604190790658
8.311656,2.3807979967485844,0.16174225576291923
8.314043999999999,2.4602038582890313,0.1620492801278105
8.316424000000001,2.5304869515446673,0.16217735502831118
8.318815999999998,2.589225866888495,0.16248957260091984
8.321203999999998,2.6366056999177494,0.16322403918743217
8.323584,2.6844520636558276,0.16374895207633564
8.325987999999999,2.7272251865723023,0.16419841876520083
8.328371999999998,2.7704667360554702,0.16411053522078048
8.330752,2.800069459081796,0.1641910321686816
8.333155999999999,2.8185000912486515,0.1644464489735482
8.335543999999999,2.8287844466608485,0.16481260167913206
8.33792,2.8397223242369725,0.16487411078752345
8.340323999999999,2.8441439387525174,0.1649118071058107
8.342711999999999,2.8344129742741537,0.16534235071704959
8.345092000000001,2.8214238782655,0.16577954804132802
8.347496,2.8085273300554636,0.1662981716600631
8.349879999999999,2.8039168282269458,0.1666776640214177
8.352260000000001,2.804566558675134,0.16696652124086192
8.354664,2.807870016175798,0.1671594060671062
8.357047999999999,2.810289529944926,0.16728781235201218
8.359428000000001,2.8063306544224664,0.1676764328724306
8.361832,2.8061889889377376,0.16798660832484305
8.364215999999999,2.813868734983572,0.1680219390385308
8.366599999999998,2.8268559351343563,0.16786303321758655
8.368991999999999,2.8406817530463013,0.16757974091738903
8.371379999999998,2.8464538420022056,0.1675110857585306
8.373756,2.851574304652051,0.16744111925087446
8.376159999999999,2.849710077674626,0.16779997452707654
8.378547999999999,2.85562004039952,0.1679969334067665
8.380928,2.8680481620428635,0.16793640475850544
8.383332,2.879964427007009,0.16785366111471622
8.385715999999999,2.893231166411514,0.16768976318183812
8.388096,2.908220467308715,0.16748444789879033
8.3905,2.933592358990338,0.16687573780985626
8.392888,2.9644114744037697,0.16606466118979488
8.395264000000001,2.9954175812723056,0.16514359145973484
8.397672,3.0246558006777713,0.1641338580093661
8.400056,3.0490058748588678,0.16323902063377432
8.402435999999998,3.074706423480323,0.16225463871575313
8.40484,3.1038520950871713,0.16118266709289375
8.407228,3.1405868607991065,0.15983704337832813
8.409603999999998,3.17429581240623,0.15854822677800817
8.412008,3.2034887058413215,0.15743761294591424
8.414396,3.2278860018506608,0.15650902910184103
8.416775999999999,3.252655384912338,0.15562391843105106
8.419172,3.2777968550263523,0.15475560892750329
8.421555999999999,3.3061511307002824,0.15375924375732974
8.423936000000001,3.3385568296952894,0.15249818501818363
8.426344,3.3646313612269516,0.15137375514989537
8.428728,3.384187733840166,0.15048270160799015
8.431107999999998,3.4058859768266565,0.1495083850465503
8.433512,3.4230681616411163,0.1486838584783738
8.435896,3.4348031227237663,0.14802001912675566
8.438279999999999,3.443744587127081,0.14746172578273914
8.44068,3.452546281903536,0.14692784465397993
8.443068,3.46651566115808,0.14629869398038206
8.445443999999998,3.4797861922783233,0.14575868203303366
8.44784,3.4931964930254265,0.14519400890793346
8.450228,3.5060949370933314,0.14461338713307972
8.452604000000001,3.514756862242926,0.1441179672439884
8.454999999999998,3.5147587581007955,0.14388489952002737
8.457387999999998,3.51769392026486,0.1435623052670934
8.459768,3.519977456122866,0.14323350120784561
8.462171999999999,3.525334027913928,0.14279698116349052
8.464555999999998,3.531109908585571,0.1423170504585163
8.466940000000001,3.543683487429382,0.14163856214124745
8.469335999999998,3.55076262071314,0.14117678859020708
8.471720000000001,3.5554203443699013,0.14082608118496875
8.474115999999999,3.5596587591460813,0.14051721182186988
8.47652,3.5649681091089,0.1401648377764944
8.478904,3.5674839623923837,0.13988936559774484
8.481283999999999,3.56757840604887,0.13972269635532994
8.483688,3.568324476011414,0.13955937366275045
8.486072,3.5664168189214833,0.13945797121354825
8.488451999999999,3.563205909219437,0.13934499348410098
8.490848,3.54840170391947,0.1395825415443157
8.493231999999999,3.5302449234327273,0.13996305212253138
8.495612000000001,3.5167439707448764,0.14021223480504288
8.498016,3.5058967451095007,0.14039437078030712
8.500404,3.497283937646018,0.14056501236773764
8.502783999999998,3.494258123541206,0.14058788160511293
8.505188,3.4877399646227576,0.14076248736696673
8.507572,3.4838755327567847,0.1408764720034602
8.509955999999999,3.4800111008908114,0.14098889115255492
8.512356,3.4752155034650603,0.14112440321742692
8.514744,3.4636222078671395,0.1414540745624298
8.517123999999999,3.453519156336438,0.14170486641217236
8.519528000000001,3.4452784359252933,0.1419072391312571
8.521916000000001,3.439691442566623,0.14205331525795134
8.524291999999999,3.4347560755140107,0.14220630713090335
8.526699999999998,3.4317755873795726,0.1423774571325643
8.529084000000001,3.435453027790443,0.1423620299176003
8.531464,3.441644425626927,0.1423019770903758
8.53386,3.4502100112621665,0.14221485847701262
8.536244,3.458076748763104,0.1422046566576666
8.538623999999999,3.47246164518249,0.1420117212266066
8.541028,3.4900593471617927,0.14169027138390528
8.543412,3.5036528476482607,0.1415066550549054
8.545796,3.5138937729479527,0.14146454118961327
8.548196,3.5253454030611437,0.14136858282284506
8.550584,3.537076572428055,0.14124653509560786
8.552964,3.5537431088475793,0.14097651463688796
8.555368000000001,3.5682677748938256,0.14078755647250335
8.557756000000001,3.5823731320594914,0.1406452887686561
8.560136,3.592986144411521,0.1406443929050883
8.562532000000001,3.6063926534428856,0.140569037347166
8.56492,3.622313119899865,0.14045229140043441
8.5673,3.6362314856104265,0.1403983409073258
8.569696,3.649358455388071,0.14035400135232212
8.572084,3.6627649644194356,0.14027966158655925
8.574463999999999,3.6731456593459884,0.1402255085447102
8.57686,3.6780791305407314,0.14030193060166107
8.579248,3.6837114498697754,0.14030420032765897
8.581627999999998,3.688692142892761,0.14030161273609662
8.584032,3.694231914423188,0.14024019418941192
8.586416,3.7044747355807504,0.13999095412603543
8.588799999999999,3.7159282615518103,0.13969558665115614
8.591196,3.7335278593889814,0.13921971696104754
8.593584,3.7526177012933712,0.13866802411035364
8.595963999999999,3.768122650585508,0.13819002936416683
8.59836,3.7809738728251703,0.13776664197534377
8.600743999999999,3.7894488065196614,0.1374270660355926
8.60314,3.8012763154009286,0.13697570020534858
8.605532,3.810729636483441,0.13654317899927468
8.607916,3.827819273499284,0.1358578430952029
8.610299999999999,3.845467989022567,0.13512489130386657
8.612704,3.8646069486130696,0.13433333217716328
8.615088,3.890031749696544,0.1333721857855119
8.617467999999999,3.914525385220239,0.13242725020766344
8.619872,3.9410211214903508,0.13144047965423103
8.62226,3.9715210592532966,0.130354774924358
8.62464,4.005233802576158,0.12917123085474858
8.627040000000001,4.0397379418319375,0.1279992353619626
8.629428,4.07196044108758,0.12690324494330033
8.631808,4.105765732209058,0.12580641206350698
8.634208000000001,4.130351915531371,0.12496342730222236
8.636596,4.154006933293904,0.12415167647586546
8.638971999999999,4.169793317697631,0.12352758929998539
8.641368,4.185439932474497,0.12292217906992318
8.643752,4.2057423750502565,0.1222340964015362
8.646148,4.226836213558933,0.12154138755700154
8.648551999999999,4.247510743187027,0.12088221824269842
8.650936000000002,4.261899431322152,0.12038987042007249
8.653316,4.282014882442807,0.11978837878650948
8.655724,4.294121930577795,0.11937423023350124
8.658107999999999,4.304087108339505,0.11901998592309097
8.660488,4.307906214235105,0.11881501157094854
8.662883999999998,4.303437377891317,0.11881530570421373
8.665271999999998,4.302041577480584,0.118742343040389
8.667652,4.298364137069714,0.11873781227584158
8.670048000000001,4.290402955912289,0.11884510500374335
8.672432,4.279740825874147,0.11905673278169497
8.674816,4.268287299903088,0.11926839029867005
8.677219999999998,4.257253082812608,0.11944614764147758
8.679604000000001,4.244216764975711,0.11966611935802346
8.681984,4.235836274937706,0.1198098990830937
8.684387999999998,4.2258257712056215,0.12002955400041222
8.686772000000001,4.221262491205346,0.12016573650701798
8.689152,4.214417571204936,0.12037030253605098
8.691555999999999,4.203987758592271,0.1206238469234905
8.693943999999998,4.193278406725885,0.12090136221720375
8.696324,4.185642090792556,0.12110680768765496
8.698719999999998,4.184012077098476,0.12118228274579092
8.701104,4.177446696351785,0.1213579587269579
8.703484,4.179261805643098,0.12139446620326437
8.705887999999998,4.185453203479583,0.12137840489610202
8.708276000000001,4.193646702062485,0.12131830003625609
8.710656,4.203842301391803,0.12121196577684235
8.713052000000001,4.214969066280899,0.12109449115670348
8.715440000000001,4.227026996729774,0.12096157153162267
8.71782,4.242809589417763,0.12076596273356595
8.720223999999998,4.262084526919387,0.1204653368159647
8.722608000000001,4.280008989980652,0.12021740157209067
8.724988,4.299935553788334,0.11992880601985009
8.727384,4.3220039879692935,0.11958904947229489
8.729768,4.344351961403973,0.11922897297228302
8.732164000000001,4.366467617413176,0.11882337495310108
8.734556000000001,4.382204884130791,0.11851043441702727
8.736944000000001,4.400084021221682,0.11814241232061123
8.739324,4.420477115738187,0.11775481008435378
8.741727999999998,4.444083015814609,0.11729266645244496
8.744115999999998,4.466617980704392,0.11686290153805073
8.746496,4.484357348168423,0.11652029502105503
8.748899999999999,4.502888111565373,0.11617256157880405
8.751287999999999,4.513969550484096,0.11594419270547955
8.753668000000001,4.521745636044287,0.11574276360236913
8.756063999999999,4.532594757537531,0.11547750643404645
8.758448000000001,4.54865878533711,0.11510112919774451
8.760828,4.560578842016994,0.11481641277925596
8.763231999999999,4.571847272390821,0.11452425695959598
8.765616000000001,4.581672680525671,0.11422853296865693
8.767996,4.5905669231007415,0.1139501044553711
8.770399999999999,4.600671870489312,0.11363746232791506
8.772787999999998,4.611568213810801,0.1133262807318198
8.775168,4.620881765266453,0.11302261388177602
8.777572,4.6274018200427705,0.1127572053003812
8.779955999999999,4.636715371498423,0.11245536195580874
8.782336,4.654968491499521,0.11199997164664506
8.784728000000001,4.6736409203811995,0.11151730307942234
8.787116000000001,4.69273265814346,0.1110106755385171
8.789496,4.706889028853107,0.11058776531297966
8.791888,4.721464708443334,0.11013749388658749
8.794272,4.741115524713035,0.10959996793126565
8.796668,4.762396354676815,0.10900264920166085
8.799071999999999,4.789683486879845,0.10830638821850223
8.801459999999999,4.813757813522959,0.10767124522702325
8.803836,4.835550500165937,0.10709454934439154
8.806239999999999,4.852407819756302,0.10660252506216934
8.808627999999999,4.869404908973527,0.10609709183537061
8.811008000000001,4.88854386856403,0.10555349565069652
8.813412,4.907403288900813,0.1050312837945549
8.815795999999999,4.924120838864319,0.1045528351418933
8.818179999999998,4.937905122521628,0.10411735405362417
8.82058,4.948616370245881,0.10373669921307266
8.822968,4.9567664387162775,0.10342750976778502
8.825347999999998,4.97343676685154,0.10301451895101013
8.827744,4.988616850919583,0.10265561898698332
8.830127999999998,5.00016482054713,0.10239465034455478
8.832512000000001,5.011013942040376,0.10218409376189651
8.834907999999999,5.019301884279764,0.10204398046083712
8.837295999999998,5.033176819877822,0.10184355143169295
8.839676,5.050217339207553,0.1016458748204948
8.842071999999998,5.065767614470063,0.10149969638440605
8.844456000000001,5.080479271971413,0.10141139509515086
8.846851999999998,5.090907188726208,0.10139969700169127
8.849256,5.105479076600697,0.10132160240891397
8.851644,5.121541208542407,0.10119776662851585
8.854023999999999,5.1362528660437565,0.10110976280694901
8.856428000000001,5.152966624291523,0.10099352287268873
8.858816000000001,5.166327807352514,0.10094432791832136
8.861196,5.182622256719699,0.10085896305954062
8.863599999999998,5.203712303512638,0.10071965451982728
8.865987999999998,5.229597947731327,0.10052597019680823
8.868368,5.260558728629489,0.10026196426111111
8.870764000000001,5.297805351020621,0.09990029216319435
8.873152000000001,5.3262521744931695,0.0996530330220353
8.875532,5.351253874980324,0.09942068389291714
8.877928,5.372019056549168,0.09920490270475539
8.880312,5.391480985505895,0.09897087519628091
8.882696,5.4084289570370085,0.09874297241220631
8.885092,5.419929704836312,0.098561999589484
8.887476,5.420396235545135,0.09847994791663989
8.889859999999999,5.416346708081927,0.09843433873035132
8.892256,5.413787424685939,0.09834337136949896
8.894639999999999,5.415372112409645,0.09818958945067992
8.897020000000001,5.418679361626046,0.09802853952352034
8.899415999999999,5.422498467521645,0.09788678676320238
8.901803999999998,5.433534580469995,0.09764196769878211
8.904184,5.443639527858566,0.09740672918232296
8.906588,5.454024014500857,0.09715267140014382
8.908976,5.458821507784478,0.09695020034778826
8.911356000000001,5.456961072522789,0.09681632483918394
8.913751999999999,5.453378075768406,0.09669111835628418
8.916139999999999,5.444068316028492,0.0966239423027293
8.918524000000001,5.42675015330291,0.09665646804879642
8.920928,5.410642695390828,0.0966642344261249
8.923312,5.399610374158217,0.09660420162094012
8.925692000000002,5.391651088858663,0.09650150840294457
8.928087999999999,5.386625069865302,0.09636530542284738
8.930471999999998,5.3866741875514155,0.09616218371915686
8.932868,5.389796341170584,0.09591731457715717
8.935272000000001,5.400647358521698,0.09558660270371899
8.937660000000001,5.414711181432728,0.09520311655091873
8.94004,5.424119176544868,0.09486112708660882
8.942436,5.429802509417893,0.09455385521001528
8.94482,5.429759079305388,0.09430379461304746
8.947199999999999,5.427201691767269,0.0940606683722137
8.949596,5.41891754124362,0.09387448242893522
8.951984,5.413566657026165,0.09365710278296016
8.954363999999998,5.414222075047961,0.09337040132326951
8.956768,5.417670989749094,0.09305984275715976
8.959156,5.423122005196641,0.09272326702522993
8.961535999999999,5.424988128031935,0.09240789612585046
8.963940000000001,5.425643546053732,0.09211482190343283
8.966324,5.4315138703818615,0.09174655633450342
8.968703999999999,5.436453029150211,0.09138429736566814
8.9711,5.437527756052589,0.09106253298092255
8.973488,5.438322943701245,0.09075871224470258
8.975867999999998,5.434042994670429,0.09051895948077257
8.978264,5.427621175266337,0.09031228210667894
8.980652,5.4201284206756055,0.09012167010174182
8.983044,5.412635666084876,0.08993122897845365
8.985447999999998,5.409798739293036,0.08970635616328461
8.987836000000001,5.4105467051134495,0.08946123495812335
8.990216,5.412365606120502,0.08920054499391195
8.992619999999999,5.417257543060609,0.08890041825931305
8.995003999999998,5.420007609627439,0.08862971795525665
8.997384,5.42168674100763,0.08837362240561557
8.999787999999999,5.419501440521847,0.08815536918190661
9.002175999999999,5.4102389026101765,0.08802048476090162
9.004552,5.402047299885144,0.0878700696851542
9.006955999999999,5.397068502720028,0.0876738540433511
9.009344,5.396326224473223,0.08746945158799589
9.011724,5.400798852532749,0.08719751403031434
9.014128,5.4040607757787775,0.08695015343691406
9.016512,5.408253864584585,0.08669502525820769
9.018892,5.415100680442865,0.08642855619068668
9.021287999999998,5.41873469074123,0.08620597574208363
9.023675999999998,5.425162197718931,0.08596189061187773
9.026056,5.430378999883133,0.08574132188180059
9.02846,5.433174392420338,0.08556811052907723
9.030848,5.433827914584264,0.08542591950008219
9.033228,5.423399997829469,0.08541016321170813
9.035632,5.4068260092085625,0.08547173560570868
9.03802,5.389553172453355,0.0855767737804812
9.040399999999998,5.372000796444426,0.08569867326617805
9.042796,5.3601751834210285,0.08577032028899498
