Time,Force,Position
7.655623999999999,0.10424743761780868,0.0
7.658011999999999,0.10760001280458448,0.0
7.660392,0.11162356617829902,0.0
7.662792,0.11685782436551231,0.0
7.665176000000001,0.11715671550011357,0.0
7.66756,0.11597388063397715,0.0
7.669955999999999,0.11372011058120218,0.0
7.672343999999999,0.1105351749686489,0.0
7.674723999999999,0.11030285754317162,0.0
7.67712,0.10899960493105584,0.0
7.679508,0.1076770004380592,0.0
7.681887999999999,0.09992878482523138,0.0
7.684288,0.09297196514532167,0.0
7.686676,0.08322164878607699,0.0
7.689055999999999,0.07146923168041545,0.0
7.691459999999999,0.05864587938811542,0.0
7.693847999999999,0.04689346228245389,0.0
7.696228,0.03714314592320921,0.0
7.698624000000001,0.028463764750603065,0.0
7.701012,0.02352839769799104,0.0
7.703396,0.019524196205157336,0.0
7.705792000000001,0.020315592138075444,0.0
7.70818,0.024599332884629562,0.0
7.710559999999999,0.029674469564101795,0.0
7.712963999999999,0.043828944415879964,0.0
7.715351999999999,0.059353245588897915,0.0
7.717732,0.07487754676191587,0.0
7.720127999999999,0.08839974718851697,0.0
7.722516000000001,0.10097143017445892,0.0
7.7249,0.11354311316040086,0.0
7.727295999999999,0.12934695358713927,0.0
7.729684000000001,0.14207775808082226,0.0
7.732063999999999,0.1498731955218932,0.0
7.734456,0.15580630184340757,0.0
7.736839999999999,0.16066847297828338,0.0
7.739219999999999,0.16632204004607729,0.0
7.741631999999999,0.1699735063674543,0.0
7.744019999999999,0.17362497268883137,0.0
7.746399999999999,0.17806783494312659,0.0
7.748792,0.17755597826392888,0.0
7.751175999999999,0.17460336007685284,0.0
7.753556,0.16871747558358172,0.0
7.755967999999999,0.16041018146331307,0.0
7.758355999999999,0.15010078659662754,0.0
7.760731999999999,0.13564742061024812,0.0
7.763128,0.12012311943723014,0.0
7.765511999999999,0.10459881826421219,0.0
7.767892,0.09107661783761109,0.0
7.770308,0.0784855829707883,0.0
7.772691999999999,0.06589454810396549,0.0
7.775072,0.05009070767722712,0.0
7.777467999999999,0.03735990318354412,0.0
7.779852,0.029564465742473144,0.0
7.782232,0.023631359420958814,0.0
7.784635999999999,0.01876918828608301,0.0
7.787024000000001,0.013115621218289093,0.0
7.789403999999999,0.009464154896912028,0.0
7.791808,0.005812688575534965,0.0
7.794192000000001,0.0013698263212397913,0.0
7.796571999999999,0.0,0.0
7.798976,0.0,0.0
7.801359999999999,0.0,0.0
7.803739999999999,0.0,0.0
7.806144,0.0,0.0
7.808532,0.0,0.0
7.810912,0.0010902870675193706,0.0
7.813307999999999,0.002040804508178531,0.0
7.815695999999999,0.007135293068531604,0.0
7.818071999999999,0.013160947188662998,0.0
7.82048,0.01718450056237754,0.0
7.822863999999999,0.02120805393609208,0.0
7.825244,0.02523160730980662,0.0
7.827648,0.026321894377325992,0.0
7.830031999999999,0.028483116631483892,0.0
7.832412,0.029573403699003263,0.0
7.834804,0.032526021886079275,0.0
7.837192,0.03533887044629507,0.0
7.839568,0.042016150872484365,0.0
7.841984,0.05190623685858926,0.0
7.844367999999999,0.060865157284915816,0.0
7.846748,0.0707552432710207,0.0
7.849152,0.08064532925712559,0.0
7.85154,0.0868107530041172,0.0
7.85392,0.09404711193774734,0.0
7.856323999999999,0.09886206124437998,0.0
7.858708,0.10151578829685474,0.0
7.861088,0.10323834978955117,0.0
7.863484,0.10589207684202592,0.0
7.865867999999999,0.10868557352136088,0.0
7.868264,0.11534350206666932,0.0
7.870659999999999,0.12214120023883798,0.0
7.873047999999999,0.1309409991574235,0.0
7.875424000000001,0.142534294755344,0.0
7.877827999999999,0.15091478479334886,0.0
7.880215999999999,0.1607855188985729,0.0
7.882595999999999,0.16572088595118492,0.0
7.884992,0.17065625300379694,0.0
7.887376,0.16772298669760177,0.0
7.889756,0.16129737557777057,0.0
7.892151999999999,0.1538008292713009,0.0
7.894539999999999,0.143910743285196,0.0
7.896932,0.13402065729909116,0.0
7.899336,0.12824667248531785,0.0
7.901724,0.12233291804468432,0.0
7.904104,0.1220533787909639,0.0
7.906499999999999,0.12098244360432538,0.0
7.908884,0.11925988211162895,0.0
7.911263999999999,0.11151166649880113,0.0
7.91366,0.10269251569933478,0.0
7.916043999999999,0.09201103378031178,0.0
7.91844,0.08118978223442858,0.0
7.920844000000001,0.06836642994212853,0.0
7.923232,0.059194543971205535,0.0
7.925611999999999,0.055377333933475194,0.0
7.928015999999999,0.05179244132122213,0.0
7.930400000000001,0.0534224550153015,0.0
7.932779999999999,0.05346967684354464,0.0
7.935176,0.057660869791481696,0.0
7.937564,0.0582671701271657,0.0
7.93994,0.05887347046284969,0.0
7.942335999999999,0.06280447603794717,0.0
7.94472,0.06608385530698675,0.0
7.947099999999999,0.0719050619490032,0.0
7.949491999999999,0.07493277191168467,0.0
7.951879999999999,0.07395628038153243,0.0
7.95426,0.07884632146377053,0.0
7.956671999999999,0.08732125515826172,0.0
7.959059999999999,0.09553600147991331,0.0
7.96144,0.10361097817470473,0.0
7.963844,0.11112687636205529,0.0
7.966227999999999,0.11678044342984921,0.0
7.968612,0.12057167937808647,0.0
7.971007999999999,0.11964051381830815,0.0
7.973392,0.11321490269847699,0.0
7.975771999999999,0.1062774348994481,0.0
7.97818,0.09675943596568069,0.0
7.980563999999999,0.08896399852460972,0.0
7.982944,0.0813276825912798,0.0
7.985348,0.07725690738932209,0.0
7.987736,0.07590643294896313,0.0
7.990112,0.07497526738918481,0.0
7.992516,0.07748922481479936,0.0
7.994904,0.07399688000116335,0.0
7.997284,0.07236686630708399,0.0
7.999687999999999,0.07124870929220231,0.0
8.002072,0.06368558927660861,0.0
8.004452,0.05426013814145827,0.0
8.006852,0.04648405258126812,0.0
8.009236,0.03840907588647673,0.0
8.011616,0.030893177699126174,0.0
8.01402,0.02523961063133226,0.0
8.016408,0.021448374683094986,0.0
8.018787999999999,0.01886784354835645,0.0
8.021192,0.01856895241375519,0.0
8.023576,0.01813029165229372,0.0
8.025955999999999,0.01813029165229372,0.0
8.028352,0.01813029165229372,0.0
8.03074,0.017831400517692463,0.0
8.03312,0.017831400517692463,0.0
8.035524,0.01711320050251057,0.0
8.037908,0.014113360487191407,0.0
8.040288,0.00832002379253728,0.0
8.042696,0.005599723030938537,0.0
8.04508,0.0028794222693397935,0.0
8.04746,0.004413096449063621,0.0
8.049864,0.01732520482424225,0.0
8.052248,0.03726543293919757,0.0
8.054632,0.06630907745808265,0.0
8.057027999999999,0.10403020729170462,0.0
8.059412,0.1484073698127658,0.008250142008944009
8.061796,0.1985093994614879,0.016606692224054937
8.064192,0.25270628254379146,0.025418138160502993
8.066576,0.31379151573901154,0.0343093971452241
8.068956,0.3839069694204252,0.04300569549864581
8.071352,0.4638440395209504,0.051516225923172405
8.073736,0.5505769119357751,0.05997199773062243
8.076112,0.6421034859184823,0.06853478551515878
8.078528,0.7418688844544651,0.07701870109288274
8.080912,0.8534580001559763,0.08526072750921894
8.083292,0.9736580274631005,0.09350920176723618
8.085696,1.1020968793235,0.10171657364018943
8.08808,1.235189663124922,0.11002794369439968
8.09046,1.3758696451735613,0.1182964376038137
8.092856,1.519760536924247,0.12667540752157985
8.09524,1.6658683908238154,0.13493020998123345
8.09762,1.8011290190880076,0.14335704771625488
8.100036,1.929501297239283,0.1517644230250217
8.102424,2.047447554493632,0.16011078401584491
8.104804,2.158365692008205,0.16838119328437037
8.107204,2.2650019846340923,0.16834974035579678
8.109592,2.365726418677216,0.16832750513824615
8.111968,2.4660806615258712,0.16770731097711009
8.114376,2.562899129448385,0.16683252848666993
8.11676,2.6518980816982047,0.16608426520926423
8.11914,2.7273507552898,0.16565480193448717
8.121544,2.8001043758585453,0.1651853784264054
8.123928,2.872952440083778,0.1645049264560249
8.126312,2.9392842412484312,0.16385877556321407
8.128712,2.9899278933815827,0.16359668786285597
8.1311,3.0303778420432845,0.16335770233113975
8.13348,3.0643115276444077,0.1631128767114313
8.135876,3.096756865036181,0.16270703063951467
8.138264,3.125851523099048,0.16224274476617467
8.140648,3.154808307392924,0.16154821802570196
8.143048,3.176782297917397,0.16099029508251658
8.145436,3.2048098125093634,0.1601009169102503
8.147816,3.2330696445268075,0.15926647224380136
8.15022,3.26416829919396,0.15850506814980286
8.152604,3.2964304368463684,0.15778543665353098
8.154984,3.325247451513384,0.15715957671351646
8.157388,3.355741701702722,0.15633030712951929
8.159772,3.3823715200260858,0.15565932136758778
8.162151999999999,3.4072315550285106,0.1551411172334661
8.164556,3.4304615763368567,0.15473670938841544
8.166943999999999,3.4611409221234286,0.15409626720706135
8.169324,3.4878632882454106,0.15353578260941925
8.171728,3.507183551717409,0.15312586568118058
8.174112,3.5237103185100724,0.15280146850539775
8.176492,3.543821977914989,0.15236515702038497
8.178896,3.5691013217979943,0.15181107672227825
8.181284,3.5946602049347205,0.15123918537783776
8.183664,3.62026630989969,0.15060832060483817
8.186064,3.639773564826791,0.15012675238965623
8.188448,3.6560680141939765,0.14977939419125164
8.190832,3.67287432024036,0.14944855411135885
8.193236,3.6852571159133296,0.14930617428205037
8.19562,3.699689234160959,0.14902217205354
8.198,3.7096525160648004,0.14876968794298562
8.200403999999999,3.716589983863829,0.1485467387643407
8.202792,3.7232479124091378,0.14835031717216057
8.205172,3.730929554312841,0.14819682326023617
8.207568,3.737819800283627,0.14805263419544407
8.209952,3.7424756280825187,0.14792593580522045
8.212332,3.7458282032692947,0.14778901138840844
8.214732,3.7455958858438176,0.14774032392529712
8.217115999999999,3.7490882306574536,0.14759389228675315
8.219496,3.756305237710203,0.14734853747694923
8.2219,3.7640813232703927,0.14704301200978448
8.224288,3.7733476528978023,0.1466555021778336
8.226668,3.7775860676739823,0.14636007277986932
8.229072,3.778751446517107,0.14616717436331195
8.231456,3.7739105231209815,0.14616224011890652
8.233836,3.772002866031051,0.1460705732550446
8.23624,3.7687919563290047,0.14596899181129222
8.238624,3.7641380243879827,0.14587259617001289
8.241004,3.757901300581124,0.14579691457059918
8.243408,3.749103397520407,0.1458423768075262
8.245792,3.7429592215121654,0.14582930215528875
8.248175999999999,3.736815045503924,0.1458160235646584
8.25058,3.734582523189899,0.1456103629836102
8.252964,3.7283930212112835,0.1454538487868998
8.255344,3.7224830584863886,0.14526752856568273
8.25774,3.71829565725419,0.14504655069194503
8.260124,3.717972687887965,0.14471348013470234
8.262504,3.7125745818422673,0.14454571620228374
8.264908,3.699447612064623,0.14460765547656976
8.267292,3.684970167846621,0.1447374631447756
8.269672,3.6725873721736506,0.14486536555199991
8.272076,3.66113574206046,0.14496359977282147
8.27446,3.649125033439828,0.145124019069455
8.27684,3.6392561951924733,0.14520584475139584
8.279236,3.6309701488109547,0.14527186423569707
8.28162,3.6217529368696577,0.14536128960553038
8.283999999999999,3.613699207913616,0.14547690075875416
8.286404,3.607507810077131,0.14554300141264795
8.288791999999999,3.6013164122406467,0.14561154962915937
8.291172,3.5952647840310226,0.14566510532896923
8.293572,3.5912152565678146,0.14565078345960056
8.29596,3.587677585783805,0.14565663178348578
8.29834,3.5792970957457997,0.14588500455411638
8.300736,3.5722198583199107,0.14612471087073217
8.303124,3.567377039065916,0.14634779209743415
8.3055,3.560392349438644,0.14665210203463316
8.307896,3.553547429438232,0.14693440279708825
8.31028,3.556573243543044,0.14691050959576035
8.312676,3.5663967558200254,0.14668288271050117
8.315071999999999,3.5782223688434227,0.14639310620500762
8.31746,3.5873942548143463,0.14616208804818345
8.319844,3.5934931048522136,0.1460359929605448
8.322248,3.602525221196277,0.145820320926047
8.324636,3.6095552367939234,0.14566899528405644
8.327016,3.6210087627649834,0.14534893658969888
8.329419999999999,3.633253684668962,0.145021641352786
8.331808,3.6467093113864393,0.1446412668967138
8.334188,3.6606767947831145,0.1442820343591853
8.336584,3.6793001059786796,0.14380493592015847
8.338968,3.6989943523608853,0.14329272477771993
8.341352,3.715196253929454,0.1429259992502718
8.343748,3.7323293210578017,0.142536018356333
8.346136,3.7540256681864235,0.14196393939644913
8.348516,3.7777241160614623,0.14133469152381353
8.350912,3.8039837431903587,0.14060751336846258
8.353299999999999,3.83331640625231,0.13978656901361666
8.35568,3.8599481204335437,0.13910314204260982
8.358084,3.8816444675621655,0.13857536771943105
8.360472,3.8994763828248136,0.13815361828807524
8.362852,3.9137234054752086,0.1378049502521646
8.365248,3.9303918377526013,0.13735995234606144
8.367636,3.948922601149551,0.13687204653250437
8.370016,3.9666619686135816,0.13639480391263425
8.37242,3.9884055375704475,0.13581189242652
8.374808,4.005865365780758,0.1353728924845153
8.377188,4.02239402843129,0.13495647520739235
8.379592,4.038922691081822,0.13454370160911833
8.38198,4.059083468172852,0.13400262004606667
8.38436,4.080734489331099,0.1334095168698356
8.386764,4.099452244183151,0.1328855473414549
8.389152,4.119800012729284,0.13227479163577655
8.391528,4.140567090155997,0.13163102970588933
8.393936,4.161054628328989,0.13102556833901177
8.39632,4.1790282090763675,0.13045436976070285
8.3987,4.190064322024716,0.13005294113653967
8.401095999999999,4.196304837547312,0.12975446169858967
8.40348,4.203244201204211,0.12939297574180897
8.40586,4.21032333448797,0.12901928287466644
8.408263999999999,4.217402467771727,0.12864329036371713
8.410651999999999,4.2269955584811,0.12823588325238042
8.413032,4.236029570683032,0.12788222958231477
8.415428,4.2441324173251855,0.1275479535798713
8.417812,4.252235263967339,0.1272143863056465
8.420195999999999,4.254471577997102,0.12701472326207963
8.422592,4.256056265720809,0.12680652909264487
8.42498,4.259643054190931,0.12655086566875656
8.42736,4.2636491515416335,0.12625997500337166
8.429764,4.2635112777726425,0.12607942930763527
8.432148,4.257367101764401,0.126038443126204
8.434528,4.2581603935551895,0.12584355956416013
8.436932,4.260396707584953,0.12565243535989984
8.43932,4.264215813480552,0.12545475458162633
8.441699999999999,4.265101653069956,0.1253178472634386
8.444096,4.271434716391171,0.12509964041919758
8.446484,4.282423607511276,0.12480163300045691
8.44886,4.30021019680355,0.12437199582098814
8.451255999999999,4.318508642775023,0.1239636429291141
8.45364,4.3396005854258295,0.12351468010093843
8.45602,4.366698830315888,0.12294932786169764
8.458432,4.395938945579222,0.1223397414411821
8.46082,4.4253188304694175,0.1217224039069261
8.463204,4.456561046479168,0.12107996395312658
8.465603999999999,4.489386054354755,0.12043511571952098
8.467992,4.528868990775653,0.11968000768247457
8.470372,4.576732417234553,0.11881121087147135
8.472776,4.622593742947038,0.11798988331492166
8.475159999999999,4.667756220525222,0.1172305426541908
8.47754,4.710637058103268,0.11652556195650032
8.479944,4.751608342733514,0.11589307779485322
8.482332,4.784151915497511,0.11545734961398918
8.484712,4.814041761209035,0.11505456188513699
8.487112,4.839275779121666,0.11472461416913296
8.4895,4.866232358526994,0.11437646408509429
8.49188,4.886531009387014,0.11414252518628913
8.494284,4.906969429873893,0.11390260852593362
8.496672,4.921261778494662,0.11378923419794307
8.499056,4.934762731182514,0.11367903773138059
8.501452,4.94547018719103,0.11361133880589327
8.503836,4.950031571333435,0.1136661682331999
8.506216,4.950868293236727,0.11377290958677021
8.508616,4.953195259207238,0.1138251645441839
8.511004,4.955010368498551,0.1138592357068065
8.51338,4.955102916297169,0.11390787346716133
8.515784,4.952401967416451,0.11399242587491368
8.518172,4.94024959331109,0.11420534109407399
8.520552,4.924232787339754,0.11448004967619464
8.522948,4.906633189502584,0.11475984869425002
8.525336,4.894248497971746,0.11493767065218466
8.527716,4.893132236814734,0.11485410578983778
8.530116,4.896719025284856,0.11465229708888075
8.532504,4.903378849688034,0.11439548370946497
8.534884,4.912180544464489,0.1140938377355031
8.537279999999999,4.91753711625555,0.11381887407484659
8.539667999999999,4.924756019166168,0.11351828099540695
8.542048,4.927179324651035,0.1132882002232805
8.544448,4.932815435695817,0.1129903827698848
8.546835999999999,4.938591316367459,0.11268264567605997
8.549216,4.942365096292685,0.11240842450693077
8.55162,4.946418415471632,0.1121125642578967
8.554008,4.954475936143412,0.11174955512405499
8.556388,4.96318508312125,0.11140062483500453
8.558788,4.96975235972581,0.11109627005979604
8.561176,4.976599175584091,0.11077243289896874
8.563552,4.979721329203258,0.11049457452290354
8.565956,4.984705813941982,0.11019043891746363
8.568344,4.995976140173677,0.10976305125186958
8.570727999999999,5.00966787603237,0.10927287214102262
8.573124,5.018703784092171,0.108844494118956
8.575508,5.017170109912448,0.10862558576308581
8.577888,5.014705270172946,0.10841846250820997
8.580283999999999,5.00958670338097,0.10823514377699774
8.582672,5.007401402895189,0.10800999992507021
8.585052,5.011082635021797,0.10770091033596385
8.587456,5.012110140095931,0.1074129026745923
8.58984,5.017281616289758,0.10705116758981459
8.59222,5.0218014661775285,0.10668232111450604
8.594624,5.02552992013238,0.10631427728775467
8.597012,5.032471179647146,0.1058845562776997
8.599392,5.040623143975413,0.10542471268540086
8.601787999999999,5.044770906810846,0.10502953762395469
8.604175999999999,5.0390479355410545,0.10477678900729247
8.606556,5.031183093897985,0.10456397193459326
8.60896,5.024109648187834,0.10435019245975681
8.611348,5.020760864716799,0.10409274640053978
8.613728,5.017691620499481,0.10381474500957183
8.616124,5.013271901841805,0.10357809763958382
8.618511999999999,5.007361939116909,0.10339111080340549
8.620892,5.001172437138293,0.10322271914905302
8.623292,4.995914100719456,0.10304275768112181
8.625676,4.989165520233399,0.10291302827938985
8.628072,4.983859961986319,0.10279130914599306
8.630468,4.971337396686491,0.10279442505133812
8.632856,4.957743896200022,0.10281519185924522
8.635235999999999,4.950016928325945,0.10275308371792306
8.637632,4.9378664500784515,0.10278174645052125
8.64002,4.9251568933235195,0.10284917521299838
8.6424,4.915101063621061,0.10289432510649277
8.644804,4.903554989851385,0.10298794771252401
8.647192,4.890518672014489,0.10313071269867866
8.649572,4.87827375011051,0.10327326271212502
8.651968,4.874968396751977,0.10328525392343109
8.654356,4.8738049137667225,0.10325657887564745
8.656732,4.868916768542354,0.10327020588958913
8.659139999999999,4.862166292198427,0.10330473668835537
8.661524,4.858069542906976,0.10331720765438376
8.663904,4.853972793615525,0.10332928490094433
8.666307999999999,4.851086749137573,0.1033111312922634
8.668696,4.849131870219399,0.10328269698161328
8.671076,4.850389796861141,0.10319328150918822
8.673472,4.851787493129744,0.10309343286873693
8.67586,4.849600296786093,0.10302532318718284
8.678244,4.853559172308553,0.10285304892262163
8.68064,4.853374076711318,0.10275349223126776
8.683028,4.851047110740807,0.1026953731706697
8.685407999999999,4.855005986263267,0.10252554229889377
8.687804,4.859384170666307,0.10232601909897583
8.690192,4.860829088763152,0.1021677653726253
8.692575999999999,4.863624481300357,0.10197007972102104
8.694972,4.86763057865106,0.10174191866454319
8.69736,4.871776445628623,0.10150400227677299
8.699743999999999,4.875782542979326,0.10127847483686532
8.70214,4.882721906636224,0.10101445036008874
8.704528,4.895388033278652,0.10068226113481915
8.706911999999999,4.9099164910406365,0.10033112749234452
8.709308,4.9237933224965635,0.09997464613065657
8.711692,4.938741089139129,0.09960299973931722
8.714072,4.955551186901252,0.09921824350173129
8.716476,4.976505255783068,0.09877191719364109
8.718864,4.998670029478382,0.0983045457429228
8.721244,5.025909939853169,0.0977705626987935
8.72364,5.059668009146405,0.09717781745778936
8.726023999999999,5.09342607843964,0.09659461148545238
8.728424,5.131188349225709,0.0959585344576486
8.730815999999999,5.167088288892221,0.09534132446546568
8.733204,5.202848458931873,0.09474708753080326
8.735584,5.240470960091082,0.09414275723207079
8.737976,5.27916439643693,0.09352036172080616
8.740364,5.318509459088835,0.09291446300415664
8.742748,5.3606480184200755,0.09229119410701671
8.745144,5.403857512937955,0.09165543392962887
