Time,Force,Position
10.159368,0.12689658055559658,0.0
10.161764,0.11304209173455909,0.0
10.164167999999998,0.10132947328679862,0.0
10.166551999999998,0.0874749844657611,0.0
10.168936,0.0734807260178634,0.0
10.171331999999998,0.06041763312974399,0.0
10.173715999999995,0.050287806547819766,0.0
10.176096,0.04029774959275575,0.0
10.178499999999998,0.029376527077913408,0.0
10.180887999999998,0.02138857086926624,0.0
10.183271999999995,0.014331780220397392,0.0
10.185667999999998,0.009137320691085188,0.0
10.188055999999998,0.005153565975271726,0.0
10.190436,0.0038503133631559256,0.0
10.192831999999996,0.005899635937815928,0.0
10.195219999999996,0.010742455191810892,0.0
10.1976,0.015984136549366243,0.0
10.199996,0.02415908421311677,0.0
10.202384,0.029540535197532337,0.0
10.204764,0.03305965506239126,0.0
10.20716,0.03550783974061165,0.0
10.209548,0.03609369329927541,0.0
10.211928,0.03653977723107895,0.0
10.21432,0.03653977723107895,0.0
10.216708,0.03684609153602229,0.0
10.219104,0.03684609153602228,0.0
10.221499999999995,0.03684609153602228,0.0
10.223887999999995,0.03684609153602228,0.0
10.226272,0.03684609153602228,0.0
10.228667999999995,0.03684609153602228,0.0
10.231052,0.03684609153602229,0.0
10.233432,0.03684609153602229,0.0
10.235832,0.03684609153602229,0.0
10.23822,0.03509675499210294,0.0
10.2406,0.031065778448046328,0.0
10.243003999999996,0.0261036363442114,0.0
10.245391999999995,0.02086195498665604,0.0
10.247776,0.012687007322905515,0.0
10.250168,0.007305556338489947,0.0
10.252556,0.003786436473631023,0.0
10.25494,0.0013382517954106288,0.0
10.257336,0.0007523982367468759,0.0
10.259724,0.00030631430494333254,0.0
10.262104,0.0012642549159445652,0.0
10.2645,0.0016363419682820443,0.0
10.266888,0.004456613698839918,0.0
10.269268,0.00927898617581464,0.0
10.271668,0.011959488279512305,0.0
10.274052,0.013242294114607865,0.0
10.276451999999995,0.013242294114607867,0.0
10.278847999999998,0.013242294114607867,0.0
10.281231999999996,0.021687301742732607,0.0
10.283616,0.045586245119012825,0.0
10.286011999999998,0.08484657644483144,0.0
10.288399999999998,0.13444038086895937,0.009840654502195425
10.290784,0.1921332402195026,0.019415891288059026
10.293179999999998,0.2560156015486612,0.02922357568835537
10.295567999999998,0.3277628045208886,0.03927305281125078
10.297948,0.40923718025574124,0.04933721920572452
10.300343999999996,0.5068643398730505,0.058782000096614676
10.302735999999998,0.6181775477754448,0.06776433322848896
10.305116,0.7395919113506714,0.07655239451033818
10.307511999999996,0.8682667120911516,0.08542465533276654
10.309899999999995,1.0050591186771982,0.09438968392167209
10.312284,1.1512066109735326,0.10343601202505397
10.314688,1.305917793047237,0.11241976756413231
10.317075999999998,1.467098016353277,0.12138757412516542
10.319455999999995,1.6423835968249827,0.13015491709530994
10.321851999999998,1.8333120003578165,0.1386416232095227
10.324239999999998,2.0421897461452696,0.1467795009152949
10.326623999999995,2.261402860888901,0.1547027018745737
10.329019999999998,2.4740805209522074,0.16251348682880534
10.331407999999998,2.6666030914980934,0.17031907665203735
10.333788,2.839015898496932,0.17818803659120924
10.336183999999998,2.995461017210548,0.17643538531284333
10.338571999999996,3.1492070829013157,0.1748801665403875
10.340956,3.3022108703452773,0.17296072485138725
10.343351999999998,3.4496786779745507,0.17064792828999892
10.345736,3.582298850191352,0.1683526593463483
10.34812,3.6945297196073867,0.166755982108199
10.350515999999995,3.7888833477903994,0.1658321950382359
10.3529,3.8773251173906473,0.16508707531060984
10.355295999999996,3.9622311120647544,0.16415931407165027
10.357691999999998,4.040250652483815,0.16299726111168963
10.360079999999998,4.105796745289157,0.16175376965854424
10.362463999999996,4.155841680518103,0.16070756291533964
10.364859999999998,4.196576856007133,0.1597590937889777
10.367247999999998,4.224509926942614,0.1590935431350132
10.369627999999995,4.236754848846592,0.15871889553728208
10.372027999999998,4.228935333173897,0.15869815307584412
10.374411999999998,4.206823468880433,0.15895505451592803
10.376792,4.1815913468256705,0.15938097560286918
10.379191999999998,4.161944322271709,0.15985857200859796
10.381575999999995,4.1492800914871495,0.16024780275330924
10.383971999999998,4.147604751822697,0.16021443852085188
10.386368,4.138294992082783,0.16027114273461152
10.388756,4.120604742304864,0.16055350439266508
10.391135999999998,4.102680279243598,0.16097812784529836
10.393532,4.095835359243187,0.16124427037068598
10.395919999999998,4.0912248574146695,0.16149615121175445
10.398299999999995,4.089781835175693,0.16150612351739066
10.4007,4.082986032861394,0.1615138637324041
10.403088,4.0732569642408984,0.16160812750066836
10.405467999999995,4.063433451963918,0.16183616605577125
10.407863999999998,4.065108791628371,0.16187025283979556
10.410251999999998,4.076515095771189,0.16162838071612307
10.412632,4.0899707224886654,0.16125702723527272
10.415023999999995,4.1030542621538055,0.160850911591294
10.417411999999995,4.118464767789456,0.1604783033493771
10.419792,4.141090384619988,0.16006429046396967
10.422208,4.172328808914001,0.15947914042026348
10.424592,4.205988642835011,0.15879216932179982
10.426971999999996,4.238112906718428,0.1580555254179921
10.429363999999998,4.268794148362869,0.1573350363837245
10.431751999999998,4.295423966686235,0.15682449426696393
10.434132,4.325731225420469,0.15628630085132522
10.436535999999998,4.362184556020814,0.15555812059434504
10.438923999999998,4.39374974139679,0.15489975645551343
10.441303999999995,4.41828491117512,0.15440006092155734
10.443699999999998,4.450129635804818,0.15373766063241948
10.446087999999998,4.491099024577196,0.15295689662692155
10.448484,4.534954457827524,0.15216813475483507
10.45088,4.580020595891352,0.1513439590713582
10.453268,4.6232716246638645,0.15050572586391145
10.455647999999998,4.658281933025235,0.14987248063318806
10.458052,4.6891482702669105,0.14937344081315784
10.460436,4.721737169001282,0.14885832574538296
10.462815999999998,4.759960282922568,0.14817435460048056
10.465212,4.800140171619896,0.14734119311978158
10.4676,4.838784490279631,0.1464817745199208
10.469979999999998,4.871702045953835,0.14575657261620464
10.472376,4.906993789426795,0.14502377671480893
10.474764,4.944939259952228,0.14425335957823723
10.477147999999998,4.979579377119129,0.14351795694556677
10.479544,5.0111936801812185,0.14279726551339578
10.481927999999998,5.0425756658178305,0.14204633888571497
10.484324,5.070744845894526,0.14139151695719346
10.486727999999998,5.104128932277556,0.1406055496237036
10.489115999999996,5.139143032354664,0.1397474843959329
10.491496,5.170339922394041,0.13893293712421917
10.493891999999995,5.187988637917323,0.13834800365589106
10.496276,5.200050360081938,0.1378610320558506
10.49866,5.208387420007439,0.13744275513933926
10.501056,5.214862148813381,0.13705752498081908
10.50344,5.216960589074155,0.13673254730742304
10.505824,5.215334367095814,0.13647579319958658
10.50822,5.210774878811277,0.13628280705787527
10.510608,5.203793980899745,0.13616647597009246
10.512987999999998,5.191039098174437,0.1362171719874995
10.515392,5.174419783583156,0.1363431839011135
10.51778,5.160221878618873,0.13639334101592843
10.52016,5.139785353989862,0.1365370446800649
10.522556,5.113622066375322,0.13679217068397606
10.524944,5.089972736186395,0.13702112285952348
10.527328,5.066602945251191,0.13723128501895315
10.529724,5.037226852076733,0.13758078957805236
10.532112,5.009201233342636,0.137877147413013
10.534487999999998,4.976891873861984,0.13828143963457606
10.536884,4.9421611047543355,0.13876332866417818
10.539267999999998,4.904217530086772,0.13932619128696327
10.541648,4.871860948777877,0.1397974988064606
10.544063999999995,4.845650439335092,0.1401235202159776
10.546448,4.822373196198503,0.14038637344364277
10.548828,4.800818514554611,0.14062647374272816
10.551231999999995,4.782988495149831,0.14080243510104365
10.55362,4.7703733820513845,0.14084609453349145
10.556,4.7549647722736035,0.1409447744811939
10.558396,4.73476056507007,0.1411443196471749
10.560784,4.716418688986093,0.14131315171126868
10.563164,4.697657504021536,0.1415199665678744
10.56556,4.678477010176398,0.14175706355484363
10.567948,4.661019077823957,0.14197295137867955
10.570327999999998,4.653292109949879,0.14196870487579602
10.572732,4.646496307635579,0.14194602914180313
10.575116,4.64486818979937,0.14184876451488793
10.577495999999998,4.652039870881745,0.1415558309896487
10.579896,4.658792243083539,0.14129897488582008
10.58228,4.671411147897724,0.14091630201087885
10.584663999999998,4.688965419764521,0.14042591460959003
10.58706,4.707311087564237,0.1399247866390436
10.589448,4.729660956856785,0.13934091888343136
10.591844,4.747587315775919,0.13888233300463532
10.594239999999996,4.765094365814473,0.13846032363410185
10.596627999999995,4.782461646226167,0.13804982712581207
10.599008,4.804624524063613,0.13754988187779008
10.601411999999998,4.827578797833977,0.13705584433206175
10.603799999999998,4.856539373843591,0.13643314782512037
10.606183999999995,4.889084842465459,0.13574976862435753
10.608579999999998,4.923632411833743,0.13502130899690906
10.610967999999998,4.962323952321721,0.13419450058863278
10.613348,4.999292931317003,0.13339130902394736
10.615752,5.039334946245339,0.13252154662746746
10.618135999999998,5.0702976230013705,0.13186231187249828
10.620516,5.10261077419776,0.1311644469607436
10.62292,5.12933693203548,0.1305664204742386
10.625308,5.152058888380367,0.13006052374498075
10.627691999999998,5.172778743978836,0.12959548833997936
10.630088,5.188423462897834,0.12924295134069602
10.632476,5.199784441070277,0.12899438869801502
10.634855999999996,5.216080786295334,0.12865363049042544
10.637256,5.2302352611471115,0.12837013796562477
10.639644,5.250815347118721,0.12794266124643955
10.642023999999996,5.270743806784271,0.1275109176694528
10.644419999999998,5.2926743671962395,0.12704381908326604
10.646807999999998,5.3116716613020145,0.12663699540897053
10.649187999999995,5.3277356891015915,0.1262860328669183
10.651583999999998,5.340866450594974,0.12599003554202695
10.653971999999998,5.355487456155576,0.1256456072632277
10.656352,5.374252432835871,0.12522766842494099
10.658756,5.3950195102625855,0.12478413752601909
10.661143999999998,5.418859623622352,0.12428754954477146
10.663523999999995,5.444841607355397,0.12375952194185416
10.665928,5.475107331834996,0.12314268401166975
10.668311999999998,5.506024682620653,0.12254292515806871
10.670691999999995,5.54415904045906,0.12182316512896785
10.673096,5.5836438727378255,0.12106890845735138
10.675484,5.626481280203367,0.12024708070714184
10.677863999999998,5.670529392482407,0.11939315841151273
10.68026,5.716998914388444,0.11847943567978199
10.682648,5.7557395725625335,0.11768003707589511
10.685027999999996,5.788893237377956,0.1169486564030508
10.687423999999998,5.816831995887044,0.11631902481177228
10.689811999999998,5.841837488089936,0.11572892621594932
10.692195999999996,5.864049483613495,0.11517588155437275
10.694596,5.885470083204135,0.114628144692181
10.696984,5.906890682794774,0.11408134301510905
10.699363999999996,5.927891973504834,0.11356163025885227
10.701759999999998,5.94395789716228,0.11311668128740637
10.704147999999998,5.953226122647559,0.11277146543432594
10.706531999999996,5.955556880333808,0.1125307861614773
10.708927999999998,5.9545350628332825,0.11235834238648518
10.711311999999998,5.94536507272023,0.1123163391912601
10.713695999999995,5.935124147420537,0.11229330281506096
10.716091999999998,5.9200876246950935,0.11233223092003465
10.718475999999995,5.897694325290041,0.11249485202134003
10.72086,5.876232191444766,0.11264291645229896
10.723255999999996,5.8534195831591305,0.11282380106474602
10.725643999999996,5.830746744500357,0.11299510261731882
10.728028,5.805932035468305,0.11320293104726883
10.730423999999998,5.785773154235145,0.11336175041964991
10.732811999999996,5.770130331174017,0.1134789786375169
10.735192,5.754347738486029,0.11360597851720915
10.737587999999995,5.741358642477375,0.11370294147820145
10.739976,5.727298611282083,0.11382012633396327
10.742371999999998,5.714029976019709,0.11393429412835133
10.744768,5.698619470384058,0.1140878194448833
10.747156,5.683348734375267,0.11423292906939768
10.749535999999996,5.674596157284925,0.11430338159273715
10.751931999999998,5.667426372060418,0.11437060169596198
10.754319999999998,5.6627705442615275,0.11442415236891514
10.756703999999996,5.662258687582329,0.11440865789484692
10.759099999999998,5.665331723515385,0.1143586441946866
10.761492,5.668264989821581,0.11431747220093347
10.763871999999996,5.67492291836689,0.1142331043520548
10.766272,5.6814410772853385,0.11415616131684203
10.76866,5.684466891390151,0.11415662115674582
10.771039999999998,5.684559439188768,0.11419881056920846
10.77344,5.685303613293444,0.1142476695070145
10.775828,5.688329427398255,0.11424831701834877
10.778207999999998,5.693357342249484,0.11421905939313559
10.780604,5.698525026727571,0.11418145210233488
10.782991999999998,5.705974351205798,0.11409657575222434
10.785375999999998,5.717567646803719,0.11394555548680402
10.787772,5.736098410200668,0.113698687429932
10.790159999999998,5.751556137664561,0.1134992966515708
10.792543999999998,5.773159936994567,0.11320594154452626
10.79494,5.79597444113807,0.1128869312452049
10.797327999999998,5.8149245134156,0.11262057099651687
10.799707999999995,5.836575534573848,0.112286663621051
10.802108,5.859996339053036,0.11189413851233684
10.804496,5.878481776479612,0.11156923319788789
10.806875999999995,5.901810033160182,0.11114401554581294
10.809271999999998,5.929422030587307,0.110653797301454
10.811659999999998,5.9523782002155405,0.110209871416422
10.814043999999996,5.979618110590327,0.10969496762415576
10.816448,6.006346164285916,0.10916057070384244
10.818832,6.035355857981644,0.10857981211189445
10.821211999999996,6.064645090931089,0.10798629043464775
10.823616,6.093654784626817,0.10741419957864377
10.826004,6.117357024217593,0.10688413673470488
10.828383999999998,6.141199033435231,0.10634959867352979
10.830788,6.165180812279729,0.10581151903788175
10.833176,6.186369094444891,0.10530869848160271
10.835556,6.200759678437885,0.10488787767349501
10.837952,6.220365168737211,0.10439316670304123
10.84034,6.236245996797424,0.103938747427821
10.842719999999998,6.249193558551442,0.10351767560764767
10.84512,6.2597669325067065,0.1030967890771299
10.847504,6.264845860901916,0.10276579707952196
10.849887999999998,6.2675033796701305,0.10248370411635764
10.852284,6.272442538438481,0.10216045173828164
10.854672,6.269093754967443,0.10195191432129343
10.857047999999995,6.261601000376714,0.10180051103291964
10.859456,6.259602691346035,0.10156134334177858
10.86184,6.258023691195937,0.10130054591606587
10.864223999999998,6.26259076291195,0.10096327531737319
10.86662,6.270230870561017,0.10059024982204379
10.869008,6.275077481530751,0.10024015846713719
10.871387999999998,6.2820659628737605,0.09986281790750472
10.873792,6.2975747038816365,0.0994149162480094
10.87618,6.312152279329734,0.09897624049946221
10.878559999999998,6.327381481083889,0.09854867213588811
10.880956,6.341399978024546,0.09814484122955357
10.883348,6.358351741271397,0.09771236135659277
10.885728,6.373441173398692,0.09729866812323283
10.888124,6.385317799966072,0.09692640093003829
10.890512,6.399056757653008,0.09653930755607137
10.892891999999998,6.415030133511838,0.09615916281045127
10.895296,6.437289350863638,0.09570093914766735
10.897684,6.4608990426558,0.09521368431409534
10.900064,6.482227094447821,0.09476185990744453
10.902464,6.5100733051582935,0.09426007414457366
10.904852,6.536988350308986,0.09376513690556769
10.907232,6.5610626769521,0.09333990824924347
10.909628,6.5807134932218005,0.09298071960133594
10.912016,6.594078467998531,0.09270139935615648
10.914395999999998,6.602368306095788,0.09247865565240475
10.916796,6.614243036805298,0.09223730911919066
10.91918,6.6190405300889195,0.09207104204996434
10.921559999999998,6.6148984548270935,0.0919931012628593
10.923956,6.611687545125046,0.09190872142376695
10.926344,6.605822908370527,0.09183619760992054
10.92874,6.5988873364293665,0.09177713229779527
10.931136,6.5938140956077635,0.0917054268392519
10.933524,6.5863194451591625,0.09167462826175887
10.935904,6.585482723255872,0.09159335854116407
10.9383,6.587858806912496,0.09147299953523537
10.940688,6.592656300196116,0.09131288258354857
10.943067999999998,6.594101218292961,0.09119969016094612
10.945468,6.596057993069005,0.09110187448081174
10.947856,6.604952235644077,0.09094325522782948
10.950236,6.610401355233755,0.09079459591092107
10.952636,6.6178525755698505,0.09062787033787055
10.955024,6.625862874413388,0.09043374381980593
10.957404,6.637877374749757,0.09020337893070712
10.959807999999995,6.653104680646043,0.08993541203163977
10.962195999999995,6.669123382475248,0.08966739446091854
10.964576,6.683419522811756,0.08940541073563668
10.966975999999995,6.703721965387514,0.08908791828051965
10.969363999999995,6.726817904642607,0.08875142751986118
10.971744,6.747771973524423,0.08844086528127618
10.974143999999995,6.770448603898935,0.08812676773713943
10.976531999999995,6.793404773527167,0.08779808584845929
10.978912,6.8114255761027875,0.08751272615700773
10.981311999999996,6.830936622745627,0.08719389045936606
10.983696,6.845140215283517,0.08689678510965285
10.98608,6.854920297447993,0.08665765844907213
10.988476,6.862838048492914,0.08643098793597882
10.990864,6.871035338791554,0.08619089956414289
10.993244,6.878581002784136,0.08594314835162442
10.99564,6.8785375726716325,0.08574546940697564
10.998032,6.880496243305544,0.08553086472936897
11.000412,6.880592582819901,0.08532678844775118
11.002815999999996,6.881340548640314,0.08513155180927397
11.005203999999996,6.88022618334117,0.08494707107388585
11.007584,6.8736173724819745,0.08482753799890316
11.009983999999998,6.872083698302251,0.0846632276110433
11.012371999999996,6.8724123552420835,0.08448958055471643
11.014752,6.87101845068922,0.08431964408811908
11.017147999999995,6.870975020576715,0.08412534760074084
11.019536,6.8709315904642105,0.0839305285325647
11.021916,6.870096764418787,0.08373425189683732
11.024312,6.870053334306283,0.08353966627563143
11.0267,6.869078738633999,0.08334859374767528
11.02908,6.867824603707996,0.08317095299451044
11.031476,6.86722209508805,0.08300127652318018
11.033864,6.868901226468242,0.08280205046039842
11.036243999999998,6.869090113781214,0.08263414141318892
11.038651999999995,6.868208065907547,0.08247754479772153
11.041039999999995,6.871330219526715,0.08229008542842921
11.043424,6.875895395384861,0.08211220416774906
11.045819999999996,6.8800412623624245,0.08195500804770099
11.048207999999995,6.88884295713888,0.08177603208262127
11.050588,6.896713486355557,0.08160212038892177
11.052984,6.902442145198956,0.08145010340673567
11.055372,6.91766945109524,0.0812053359298097
11.057756,6.927030224379137,0.0810019496456808
11.060159999999998,6.932386796170199,0.08082957600395192
11.062547999999998,6.939186390200237,0.08066880475179865
11.064928,6.945706444976555,0.08052189901322719
11.067323999999996,6.955579074939647,0.08033695508092673
11.069711999999996,6.967314036022297,0.08014473349014486
11.072092,6.982122033038002,0.07992886221171364
11.074487999999995,7.002796562666099,0.0796758355720035
11.076876,7.024542027480832,0.07941349927287562
11.07926,7.053085190467735,0.0791137786030705
11.081655999999995,7.078834856775303,0.07882670099831984
11.084044,7.108868263829425,0.07850019360978612
11.086424,7.140764002003103,0.07816647273786988
11.088823999999995,7.165442733124033,0.07789308466273999
11.091211999999995,7.193474039431738,0.07758404495704117
11.093592,7.218711849060108,0.07728606535816201
11.095991999999995,7.239014291635867,0.07702177529542108
11.098376,7.2603876693982645,0.07674860458883712
11.10076,7.285625479026634,0.07645435351392413
11.103156,7.302435576788756,0.07623514356034745
11.105544,7.322178940857073,0.07599882226877723
11.107924,7.346997441604862,0.07572662191125457
11.11032,7.3703729201136765,0.0754449112067843
