Time,Force,Position
10.905368,0.0118865299934421,0.0
10.907768,0.01732584601810864,0.0
10.910152,0.024907032416052233,0.0
10.912548,0.03621288105310911,0.0
10.914943999999998,0.04779826894388641,0.0
10.917331999999998,0.05845249127488539,0.0
10.919712,0.06910671360588437,0.0
10.922107999999998,0.07962116631002314,0.0
10.924495999999998,0.08692281345424632,0.0
10.926876,0.09408469097160929,0.0
10.92928,0.09724236699613856,0.0
10.931667999999998,0.10133120858044616,0.0
10.934048,0.10234701423169835,0.0
10.936452,0.10243165432317224,0.0
10.938835999999998,0.10243165432317224,0.0
10.941216,0.10243165432317224,0.0
10.943616,0.10192770535111773,0.0
10.946004,0.10192770535111773,0.0
10.948384,0.09835072044600783,0.0
10.950779999999998,0.09598444035439667,0.0
10.953167999999998,0.09054512432973014,0.0
10.955548,0.08510580830506359,0.0
10.957952,0.07752462190711999,0.0
10.960335999999998,0.06621877327006312,0.0
10.96272,0.05463338537928582,0.0
10.965115999999998,0.043979163048286835,0.0
10.967499999999998,0.03332494071728786,0.0
10.96988,0.022810488013149083,0.0
10.972288,0.015508840868925905,0.0
10.974671999999998,0.008346963351562937,0.0
10.977052,0.005189287327033673,0.0
10.979456,0.00211625139397829,0.0
10.981844,0.00211625139397829,0.0
10.984224,0.003978582513534931,0.0
10.986619999999998,0.004063222605008814,0.0
10.989007999999998,0.004147862696482697,0.0
10.991388,0.0051636683477349,0.0
10.993783999999998,0.0051636683477349,0.0
10.996168,0.0051636683477349,0.0
10.998552,0.0051636683477349,0.0
11.000948,0.0051636683477349,0.0
11.003336,0.0051636683477349,0.0
11.00572,0.0051636683477349,0.0
11.008115999999998,0.0051636683477349,0.0
11.0105,0.0051636683477349,0.0
11.012895999999998,0.0051636683477349,0.0
11.015292,0.0051636683477349,0.0
11.01768,0.0051636683477349,0.0
11.020063999999998,0.0051636683477349,0.0
11.02246,0.0051636683477349,0.0
11.024848,0.0068311003050450046,0.0
11.027228,0.0058152946537928015,0.0
11.029632,0.004799489002540598,0.0
11.03202,0.002852517791510073,0.0
11.034399999999998,0.003923452978148604,0.0
11.0368,0.004202992231869024,0.0
11.039188,0.004622301112449655,0.0
11.041567999999998,0.009130451577337871,0.0
11.043968,0.016851407602141676,0.0
11.046356,0.02457236362694548,0.0
11.048735999999998,0.03229331965174929,0.0
11.051132,0.039083110116774775,0.0
11.05352,0.047735231701356906,0.0
11.055903999999998,0.05638735328593903,0.0
11.0583,0.06503947487052116,0.0
11.060688,0.07569369720152015,0.0
11.063071999999998,0.08634791953251914,0.0
11.065468,0.09593120667687959,0.0
11.067851999999998,0.10272099714190507,0.0
11.070232,0.10443565092745832,0.0
11.072627999999998,0.10555380794234001,0.0
11.075015999999998,0.11313499434028362,0.0
11.077412,0.12257851185778386,0.0
11.079808,0.13174249012156367,0.0
11.082196,0.1365380875473155,0.0
11.084575999999998,0.14706044795859743,0.0
11.086976,0.15558070762346252,0.0
11.089364,0.15995699616863368,0.0
11.091748,0.16098070952702906,0.0
11.094144,0.16707955956489667,0.0
11.096532,0.17238701366984616,0.0
11.098912,0.17848586370771377,0.0
11.101308,0.18300192187974518,0.0
11.103696,0.18458471374558139,0.0
11.10608,0.1849568007979189,0.0
11.108476,0.17946235523786602,0.0
11.110864,0.1748990752375915,0.0
11.113248,0.17247766561059402,0.0
11.115644,0.17177881747629298,0.0
11.118032,0.1782969763947412,0.0
11.120411999999998,0.18067116419349555,0.0
11.122812,0.17731858900671973,0.0
11.1252,0.17424555307366435,0.0
11.127584,0.17052089083455108,0.0
11.12998,0.1700090341553534,0.0
11.132364,0.15912249439887716,0.0
11.134743999999998,0.15018292585343143,0.0
11.137135999999998,0.14217452286776402,0.0
11.13952,0.13444565913581705,0.0
11.141915999999998,0.12062585307314559,0.0
11.14432,0.10759744294339228,0.0
11.1467,0.09470880244049916,0.0
11.149079999999998,0.08154062268388566,0.0
11.151471999999998,0.07130570923346731,0.0
11.153859999999998,0.062281500596547724,0.0
11.156252,0.0571217238256016,0.0
11.158656,0.05103078149487716,0.0
11.16104,0.04386890397751419,0.0
11.163415999999998,0.03777796164678975,0.0
11.165812,0.0298621064597394,0.0
11.168195999999998,0.02515905683260464,0.0
11.170592,0.022458107951886738,0.0
11.172984,0.016087626367441883,0.0
11.175368,0.012036203046365029,0.0
11.177764,0.0070536141655098555,0.0
11.18016,0.00886081574968017,0.0
11.182548,0.008860815749680168,0.0
11.184928,0.01114245574981744,0.0
11.18732,0.01407572205601261,0.0
11.189708,0.021097829946515365,0.0
11.192083999999998,0.02798016821015791,0.0
11.194492,0.031649700913884866,0.0
11.196876,0.0343880680578335,0.0
11.199255999999998,0.03619526964200382,0.0
11.201656,0.03921317603967287,0.0
11.204044,0.039213176039672865,0.0
11.206423999999998,0.04167200392990108,0.0
11.208816,0.04167200392990108,0.0
11.211204,0.04167200392990108,0.0
11.213596,0.04135504641294994,0.0
11.216,0.04089831926913857,0.0
11.218388,0.03937065693868868,0.0
11.220768,0.03937065693868868,0.0
11.223171999999998,0.03798276423509899,0.0
11.225556,0.037526037091287635,0.0
11.227936,0.03571883550711732,0.0
11.230339999999998,0.03470302985586512,0.0
11.232724,0.03154535383133585,0.0
11.235104,0.027596281873888476,0.0
11.237507999999998,0.020574173983385718,0.0
11.239895999999998,0.01369183571974317,0.0
11.242272,0.010022303016016218,0.0
11.244668,0.007283935872067583,0.0
11.247052,0.005476734287897269,0.0
11.249432,0.002458827890228214,0.0
11.251836,0.002458827890228214,0.0
11.25422,0.0,0.0
11.2566,0.0010158056512522035,0.0
11.258996,0.0012402153695862967,0.0
11.26138,0.0025355602745589204,0.0
11.263772,0.006624401858866506,0.0
11.266175999999998,0.009642308256535559,0.0
11.268563999999998,0.014802085027481676,0.0
11.270944,0.020101631425288,0.0
11.273348,0.023259307449817267,0.0
11.275731999999998,0.027487918660985065,0.0
11.278112,0.03371863061856971,0.0
11.280508,0.03673653701623877,0.0
11.282896,0.03961467378704761,0.0
11.285276,0.044494911304273306,0.0
11.287672,0.04844398326172068,0.0
11.29006,0.05532632152536323,0.0
11.29244,0.061137724602367244,0.0
11.294836,0.0672286669330917,0.0
11.29722,0.0763926451968715,0.0
11.299616,0.08541685383379112,0.0
11.30202,0.09243896172429387,0.0
11.304408,0.09765386803062631,0.0
11.306788,0.10659343657607204,0.0
11.309179999999998,0.11418253068115881,0.0
11.311564,0.11818673217399252,0.0
11.313948,0.12419303441324307,0.0
11.316351999999998,0.12484466071930095,0.0
11.318735999999998,0.1273586181449155,0.0
11.321116,0.13229398519752752,0.0
11.323519999999998,0.13601864743664083,0.0
11.325907999999998,0.13466817299628187,0.0
11.328288,0.13988307930261432,0.0
11.330692,0.14831079116886234,0.0
11.333075999999998,0.15194290560935858,0.0
11.335456,0.15357291930343792,0.0
11.337856,0.15320083225110045,0.0
11.340243999999998,0.15389968038540153,0.0
11.342624,0.15082664445234611,0.0
11.345028,0.1416626661885663,0.0
11.347411999999998,0.1326384575516467,0.0
11.349792,0.12561634966114393,0.0
11.352187999999998,0.13109942007398134,0.0
11.354572,0.14803222474214053,0.0
11.356952,0.17888339512086213,0.0
11.359348,0.22155828266511224,0.010318140243901151
11.361736,0.2655345269636089,0.0212281874499639
11.364131999999998,0.31863353954691614,0.03235983702576247
11.366528,0.38024902007935,0.043286996579295245
11.368916,0.454245400426884,0.053795069270655374
11.371296,0.5360612964471128,0.06417853437492196
11.373691999999998,0.6294685922073928,0.07426502433122835
11.376079999999998,0.7262718932669532,0.08434400200688592
11.37846,0.8296367833574666,0.09433016974921579
11.380864,0.9513888755023306,0.10395713679316872
11.383252,1.0940893489554029,0.1131331347461968
11.385632,1.2503361010667002,0.12199505633462089
11.388027999999998,1.415613073664191,0.13077894633455248
11.390411999999998,1.5971372738006246,0.13936512923497418
11.392788,1.7924321623136175,0.14785130742662825
11.395184,2.0028107953802974,0.15601756143288617
11.397572,2.2197548091936685,0.1639433035520705
11.399964,2.4191204038820966,0.17184833341524167
11.402368,2.590090188641959,0.18001011825291374
11.404751999999998,2.7362471602276397,0.18851836068550867
11.407132,2.870625740618166,0.18686555570044452
11.409536,3.010965297277569,0.1844398157573546
11.411924,3.1548935382649637,0.18142685157900615
11.414303999999998,3.2860234664145462,0.17851015799076575
11.416708,3.3955080609794885,0.17617975581325795
11.419092,3.4924700902446024,0.17421141857456157
11.421471999999998,3.5853353702182647,0.17256125940600572
11.423868,3.6784348634752737,0.17080896402153464
11.426251999999998,3.7605964791561584,0.16914719737177233
11.428632,3.81738809901329,0.16804510036403597
11.431036,3.848482961964704,0.16759937875926062
11.433419999999998,3.862259662190537,0.16765067439982992
11.435804,3.8719868349531623,0.16772508934475
11.438208,3.871845169468433,0.1679626057003257
11.440592,3.8650021453258905,0.16806437455478496
11.442972,3.839025849166453,0.1685000776136309
11.445367999999998,3.80369067558099,0.16927172069930127
11.447755999999998,3.778549205466975,0.170016343309738
11.450136,3.776125899982108,0.17034011719648692
11.452535999999998,3.794839863118422,0.1700409818911663
11.454923999999998,3.816488988418801,0.16943428705427035
11.457304,3.827989736218105,0.16900277416015252
11.459708,3.8264994921508855,0.16908571825671895
11.462096,3.8311987500622813,0.16928582645855922
11.464475999999998,3.8513538395797027,0.1692086587103714
11.46688,3.8815666546574508,0.1687192729639856
11.469264,3.9068932203686995,0.16812613398638426
11.471643999999998,3.9175553504068414,0.16779402556018733
11.47404,3.9294735112288564,0.16753400144997416
11.476423999999998,3.9593614610825094,0.16693487353294195
11.47882,4.004752464370432,0.16597435963925228
11.481216,4.0534034950465125,0.16479367300638323
11.4836,4.093256622661876,0.16370448737628185
11.485979999999998,4.130643014679869,0.16261210637914236
11.488384,4.162859826361903,0.1618565996457491
11.490772,4.201592901104518,0.16110944471465588
11.493151999999998,4.248706465885135,0.16013356977005982
11.495556,4.292469351336847,0.15912046674834104
11.49794,4.324780606675369,0.1582718064473877
11.50032,4.343403917870935,0.15778700962167666
11.502716,4.360582310969656,0.15750798668789992
11.505104,4.383020936345084,0.15718352340094557
11.507483999999998,4.4121647120940635,0.15660932440614403
11.50988,4.434372915901883,0.15605081617840752
11.512263999999998,4.451460657059857,0.15554457305979816
11.51466,4.46649907564317,0.15517742617366656
11.517056,4.484096777622471,0.1548903085058972
11.519444,4.512029848557951,0.1544026216559385
11.521824,4.5429906294561135,0.15371339877888698
11.524228,4.564594428786118,0.15314424583658393
11.526612,4.576654255092863,0.15275850843745456
11.528992,4.592810830691057,0.15232517252269337
11.531396,4.617580213752734,0.15175145282294872
11.533784,4.640347496067995,0.15122986821038165
11.536164,4.661207121293326,0.15062512987811186
11.53856,4.678017219055448,0.15001285214932125
11.540948,4.687610309764821,0.14960988299888262
11.543328,4.6983196616312055,0.14929151152519207
11.545732,4.71363761946824,0.1489349704094916
11.548116,4.731237217305411,0.14849481113195243
11.550496,4.7477205539855705,0.14797290561796864
11.5529,4.7596878324936975,0.1475439647334608
11.555284,4.7692337013748265,0.14720827972347986
11.557664,4.783947254734045,0.14678779978307016
11.560071999999998,4.7969382466005674,0.14639875385923687
11.562456,4.803598071003744,0.14607488078666825
11.564836,4.805229980555693,0.1458223896795833
11.567239999999998,4.808863990854059,0.1455240663154119
11.569627999999998,4.809098204137406,0.14539143661532897
11.572004,4.809564734846229,0.14529624522025528
11.574412,4.808168934435496,0.14523899082011232
11.576795999999998,4.79732170880012,0.14538983592366309
11.579176,4.781119807231551,0.14569231560409227
11.581568,4.771156525327711,0.1458792470384642
11.583956,4.7671523238348765,0.1459778755957289
11.586336,4.76515022308846,0.14602722769038134
11.588732,4.762543717864228,0.14601226961585614
11.591116,4.7590532689084615,0.14595535268679177
11.593495999999998,4.759287482191808,0.14582421528000386
11.5959,4.762687279206827,0.14566414260446695
11.598284,4.7675300984608215,0.14550154385652903
11.600663999999998,4.775865262528452,0.14522921404374656
11.60306,4.7821983258496665,0.14500386847186048
11.605444,4.784899274730384,0.14490047774231843
11.60784,4.790626037715915,0.14478100609407593
11.610236,4.802172111485592,0.1445904734091926
11.612624,4.817862156374963,0.14429244460565238
11.615004,4.829175912719163,0.14406807564925045
11.6174,4.843982013877,0.14373837780461438
11.619784,4.8637234820874475,0.14330414344610923
11.62218,4.888120778096787,0.1427784142952416
11.624584,4.917732980412459,0.14210896834069348
11.626967999999998,4.947252634929514,0.14138693453632248
11.629348,4.97104552646104,0.14079217005152833
11.631752,4.993627713179066,0.14024643334417908
11.63414,5.016581986949429,0.1397296908808322
11.63652,5.044564175571022,0.13915487184510436
11.638915999999998,5.072266824938894,0.13860713567530883
11.641303999999998,5.092380380201679,0.1382121225718665
11.64368,5.113704640277963,0.13778643685468925
11.646076,5.134889130727388,0.1373746897636117
11.64846,5.151929650057118,0.13706115425834
11.65084,5.171391579013846,0.1366732477378484
11.653244,5.195556557597708,0.1361496407246223
11.655628,5.215205478009539,0.13569780745297055
11.658008,5.231549045062839,0.1352825459037583
11.660412,5.249894712862552,0.13483279628103464
11.6628,5.265027575102353,0.13445777602665626
11.66518,5.276156235849319,0.1341688721009954
11.667583999999998,5.283420464730311,0.13395572781648957
11.669971999999998,5.289613758424665,0.1337687054508631
11.672352,5.294596347305521,0.13361694000112828
11.674744,5.299299396932655,0.13348483653876458
11.677132,5.306284086559927,0.13329190352643175
11.679512,5.309683883574946,0.13315003796957525
11.681908,5.3124320542839065,0.13300363167822832
11.684296,5.312666267567253,0.13288362614366145
11.686692,5.31331978973118,0.1327343095268877
11.689087999999998,5.3143926207756875,0.13255381598859634
11.691472,5.3118805592079426,0.13242394052447365
11.693852,5.3087168713341395,0.1322891403595615
11.696255999999998,5.313561586446004,0.13199917586101317
11.698643999999998,5.316543970438311,0.13173879438118516
11.701024,5.316593088124425,0.1315329511818021
11.703419999999998,5.321577572863149,0.13123759652839742
11.705807999999998,5.329495323908069,0.13089212174752657
11.708184,5.334200269393072,0.13061977028401314
11.71058,5.3441201211844085,0.13023985659683585
11.712964,5.355110908162383,0.12983587858507195
11.71536,5.3650307599537195,0.12945470114136895
11.717755999999998,5.377232251745194,0.12902003663148337
11.720143999999998,5.396510980962557,0.12846008725348465
11.722524,5.418071350180056,0.1278464132421571
11.724927999999998,5.437769388278,0.12726147634292057
11.727315999999998,5.4634737286151935,0.1265736223357455
11.729696,5.489178068952387,0.12588698898813674
11.732091999999998,5.513811474102943,0.1252229616884123
11.734479999999998,5.532578346641109,0.12465267838036408
11.736864,5.552928011045109,0.12407289007563506
11.739264,5.575000236941807,0.12347762249960882
11.741651999999998,5.596001527651866,0.12290506889596993
11.744035999999998,5.604198817950507,0.12255067543177621
11.74644,5.611185403435648,0.12222651935530857
11.748824,5.6168215144804305,0.12194357679479745
11.751203999999998,5.61738248884574,0.12175561130417299
11.753608,5.6178036935841895,0.12157863442540265
11.755996,5.618504437576361,0.12138303351244885
11.758375999999998,5.615061210448837,0.12126676927936582
11.760772,5.610407278507814,0.12118194449658547
11.763156,5.60668451212657,0.12108422264187063
11.765539999999998,5.602542436864746,0.12101459499272836
11.767936,5.588389857870837,0.12111608875580408
11.770324,5.575028674809845,0.12121171835121589
11.772704,5.562179348428053,0.12132280750729545
11.775108,5.54290441092643,0.12156135600994059
11.777496,5.525491804544362,0.12177325496478006
11.779875999999998,5.508730824468351,0.1219919684662342
11.782272,5.5003503344303475,0.12210128773032092
11.78466,5.49397194513876,0.12217652969240081
11.787039999999998,5.487593555847171,0.12225100944462731
11.789444,5.483868893608058,0.12229850343795223
11.791828,5.4915977573400045,0.1221847609926936
11.794207999999998,5.504261988124564,0.1219941621833521
11.796599999999998,5.5202787940958995,0.12173311967371343
11.798987999999998,5.540439571186927,0.1213980558147559
11.801368,5.55724777309118,0.1211353042230009
11.803764,5.571774334995296,0.12092204714891623
11.806152,5.588954623951886,0.12068121025925106
11.808543999999998,5.610418653655031,0.1203593655145913
11.81094,5.634024553731452,0.1199989749907351
11.813327999999998,5.658980928248233,0.11960719398690975
11.815704,5.688872669817625,0.11913610959314322
11.818112,5.7134097354538245,0.1187660769667518
11.820496,5.738226340343744,0.11837816121377323
11.822876,5.76187946224841,0.11796131983877603
11.825271999999998,5.783670253033518,0.11757134372044176
11.827659999999998,5.809093158259122,0.11709798295961331
11.83004,5.830651631618753,0.11668482264691139
11.832444,5.852489644232104,0.1162601878231031
11.834827999999998,5.8733964912856775,0.11584865516461225
11.837208,5.893651712033193,0.11543472716194597
11.839612,5.910461809795315,0.11505423971216079
11.842,5.923407475691463,0.11472738001129465
11.84438,5.934211271214334,0.11444086626460996
11.846775999999998,5.944083901177427,0.11416740898553066
11.849163999999998,5.956657480021239,0.11382348145767868
11.851544,5.974445965171381,0.11339632975772408
11.853948,5.994004233642464,0.11291345908845443
11.856331999999998,6.009837839874435,0.11247460919159433
11.858715999999998,6.025811215733266,0.11203285925856724
11.861112,6.035918058979706,0.11166647509474717
11.863495999999998,6.0492377077860615,0.1112522972179765
11.86588,6.071404377339245,0.11068591931350134
11.868284,6.096644082825485,0.11008114972972348
11.870667999999998,6.130264278349729,0.10939711582818784
11.873048,6.164024243500833,0.10870686736428875
11.875452,6.194291863838302,0.10809055222856327
11.87784,6.225909958616128,0.10744460212062074
11.880219999999998,6.252452916714484,0.10686687498783955
11.882616,6.2771335436932825,0.10630535571300338
11.885004,6.29580786843283,0.10581702328670703
11.887387999999998,6.308475890933128,0.10540359858415954
11.889784,6.322354618246925,0.10496549083236456
11.892167999999998,6.333300079254526,0.1045601308090641
11.894564,6.34238320914257,0.10417361856834947
11.89696,6.349324468657337,0.103822015064288
11.899348,6.353472231492769,0.10349938755173595
11.901728,6.353196483954787,0.10325130881217716
11.904132,6.353292823469142,0.10302593363841693
11.90652,6.34724309111739,0.10288345994645985
11.9089,6.341844985071691,0.10274753894993137
11.911296,6.326436375293911,0.10273907084212838
11.913684,6.30246028402302,0.10286196700602657
11.916064,6.276621861632573,0.1029977551788259
11.91846,6.246127611443236,0.10317094016753196
11.920848,6.21470219569412,0.10335139970096482
11.923227999999998,6.182345614385225,0.10354087071744968
11.925624,6.147707393076193,0.10376904523315772
11.928012,6.117864769192913,0.10394822055334546
11.930391999999998,6.090675872362106,0.10411059850805102
11.932792,6.072426544076746,0.10416700630768183
11.935175999999998,6.0606953747098355,0.10416607131988129
11.937556,6.048265357208624,0.10420430603944077
11.939956,6.042772807506441,0.10416056624836663
11.942344,6.036721179296816,0.104148298504
11.94474,6.028108371833334,0.10419280577590234
11.947136,6.017074154742853,0.10428610520452423
11.949524,6.00790226877193,0.10436301035779354
11.951904,6.000080857241366,0.10440721724932134
11.954308,5.99905714388297,0.10437635444615868
11.956692,6.000966696830771,0.10431194341405559
11.959072,6.010325574256797,0.10417775121882636
11.961468,6.025411214668353,0.10398330117650788
11.963852,6.037144279893134,0.10384711324573569
11.966236,6.046735474744637,0.10374409886733374
11.968632,6.0557675910887,0.1036729421062412
11.971016,6.064799707432763,0.10360129991114653
11.973412,6.076625320456161,0.10350358897645776
11.975808,6.088590703106419,0.10339964344191252
11.978196,6.101766790570175,0.10327250970737427
