Time,Force,Position
11.73298,0.16704481167313837,0.0
11.735376,0.15568383350069515,0.0
11.737771999999998,0.13938748827563996,0.0
11.740156,0.12097750942553234,0.0
11.742536,0.10363846576206323,0.0
11.744939999999998,0.08564779579253626,0.0
11.747327999999998,0.07166132731584293,0.0
11.749708,0.05781462846600986,0.0
11.752112,0.04690119592237194,0.0
11.754495999999998,0.03612753300559423,0.0
11.75688,0.026145266021734632,0.0
11.759275999999998,0.02335176934239967,0.0
11.76166,0.022700143036341765,0.0
11.76404,0.02072627903814957,0.0
11.766436,0.02086604866500978,0.0
11.768824,0.020866048665009785,0.0
11.771208,0.020866048665009785,0.0
11.773604,0.020866048665009785,0.0
11.775992,0.019031954293677805,0.0
11.778372,0.014264593616150645,0.0
11.780772,0.00935746331176328,0.0
11.783156,0.005381498567154235,0.0
11.785552,0.004338800128740361,0.0
11.787956,0.004338800128740361,0.0
11.79034,0.004338800128740361,0.0
11.792719999999996,0.004338800128740361,0.0
11.795124,0.004338800128740361,0.0
11.797508,0.004338800128740361,0.0
11.799887999999996,0.004338800128740361,0.0
11.802292,0.005661037820874655,0.0
11.80468,0.005912340326370418,0.0
11.807055999999998,0.0037987067013180143,0.0
11.809456,0.00261623863604393,0.0
11.811839999999998,0.00261623863604393,0.0
11.81422,0.0015735401976300566,0.0
11.816624,0.0015735401976300566,0.0
11.819012,0.0015735401976300566,0.0
11.821391999999998,0.0015735401976300566,0.0
11.823792,0.0015735401976300566,0.0
11.826175999999998,0.0015735401976300566,0.0
11.828559999999998,0.0015735401976300566,0.0
11.830964,0.0015735401976300566,0.0
11.833352,0.0015735401976300566,0.0
11.835731999999998,0.0015735401976300566,0.0
11.838128,0.0015735401976300569,0.0
11.840516,0.0015735401976300569,0.0
11.842895999999998,0.0015735401976300569,0.0
11.845292,0.0015735401976300569,0.0
11.84768,0.0015735401976300569,0.0
11.850063999999998,0.0002513025054957631,0.0
11.85246,0.0,0.0
11.854848,0.0,0.0
11.857227999999996,0.0,0.0
11.859623999999998,0.002345951050529673,0.0
11.862016,0.005762837287697877,0.0
11.864392,0.00838832759194797,0.0
11.866796,0.011944983455976383,0.0
11.869184,0.01778327932014207,0.0
11.87156,0.02841717261005957,0.0
11.873955999999998,0.037188734780420424,0.0
11.876343999999998,0.04582052732392107,0.0
11.878724,0.055383485427200035,0.0
11.881119999999996,0.06387550834384047,0.0
11.883504,0.0723675312604809,0.0
11.885903999999998,0.08071978455026113,0.0
11.888308,0.09307623933287507,0.0
11.890692,0.10436175892885047,0.0
11.893071999999998,0.1127140122186307,0.0
11.895468,0.12092649588155072,0.0
11.897856,0.1274164180517743,0.0
11.900235999999998,0.13204400910244124,0.0
11.902632,0.13560066496646966,0.0
11.90502,0.13636382415116313,0.0
11.9074,0.13401787310063346,0.0
11.909804,0.13060098686346525,0.0
11.912192,0.12797549655921514,0.0
11.914571999999998,0.12441884069518673,0.0
11.916968,0.11858054483102105,0.0
11.919356,0.10794665154110356,0.0
11.921735999999996,0.09917508937074268,0.0
11.924131999999998,0.09054329682724205,0.0
11.926519999999998,0.08098033872396307,0.0
11.9289,0.07248831580732262,0.0
11.931295999999998,0.0639962928906822,0.0
11.933683999999998,0.05564403960090197,0.0
11.93608,0.043287584818288045,0.0
11.93848,0.032002065222312644,0.0
11.940864,0.02364981193253242,0.0
11.943243999999998,0.0154373282696124,0.0
11.94564,0.009478247858604997,0.0
11.948028,0.005381498567154234,0.0
11.950407999999998,0.0018248427031258196,0.0
11.952812,0.0017322949045087605,0.0
11.9552,0.0017322949045087605,0.0
11.957579999999998,0.0017322949045087605,0.0
11.959984,0.0017322949045087605,0.0
11.962372,0.0017322949045087605,0.0
11.964752,0.0017322949045087605,0.0
11.967155999999996,0.0017322949045087605,0.0
11.969544,0.0017322949045087605,0.0
11.971924,0.0017322949045087605,0.0
11.97432,0.0017322949045087605,0.0
11.976708,0.0017322949045087605,0.0
11.979088,0.003613611104083896,0.0
11.981484,0.00549492730365903,0.0
11.983872,0.00549492730365903,0.0
11.986256,0.00549492730365903,0.0
11.988652,0.005494927303659031,0.0
11.991036,0.0056064601822945846,0.0
11.99342,0.005978547234632063,0.0
11.99582,0.007281799846747862,0.0
11.998208,0.011909390897414808,0.0
12.000588,0.01679753612178368,0.0
12.002984,0.023147688665147055,0.0
12.005372,0.029497841208510428,0.0
12.007751999999998,0.0358479937518738,0.0
12.010152,0.04606257816121067,0.0
12.012536,0.0584190329438246,0.0
12.014915999999998,0.07291735809971558,0.0
12.01732,0.08434264732255119,0.0
12.019708,0.09362606617210974,0.0
12.022087999999998,0.10104715390211165,0.0
12.024484,0.10525543607219796,0.0
12.026872,0.10544053166943208,0.0
12.029251999999998,0.105485857639806,0.0
12.031656,0.11048553574281043,0.0
12.034044,0.11855824977887025,0.0
12.036423999999998,0.12663096381493005,0.0
12.03882,0.1339405186662964,0.0
12.041208,0.13966728165182654,0.0
12.043587999999998,0.14460264870443856,0.0
12.045992,0.14488218795815896,0.0
12.04838,0.14236823053254444,0.0
12.05076,0.14120474754728884,0.0
12.053164,0.14018103418889347,0.0
12.055548,0.1391573208304981,0.0
12.057928,0.13226707485971237,0.0
12.060324,0.12188448407529062,0.0
12.062712,0.11205907594044048,0.0
12.065091999999998,0.11349830646367799,0.0
12.067488,0.130391472735071,0.0
12.069876,0.1671148632997907,0.007709696114781169
12.072272,0.22348338256060293,0.014957001175987718
12.074668,0.2920949278675243,0.022118542519039153
12.077052,0.36843344104852327,0.029314481840214894
12.079436,0.44774865064822217,0.03689339561281122
12.081832,0.5345093930104092,0.0447166552304959
12.084216,0.6405885029867253,0.05224845738846407
12.0866,0.7671041375920519,0.05940341167015092
12.088996,0.9021381360043743,0.0665586016502153
12.09138,1.038193951917223,0.07403286093914586
12.093763999999998,1.184815558353858,0.08163369484919195
12.09616,1.3438180646055935,0.08937610218752115
12.098548,1.5126875132468145,0.09714903144468584
12.100944,1.6958946364791783,0.10475856656266365
12.103339999999998,1.8873405842648177,0.11236802526915118
12.105727999999996,2.083393242163236,0.12019644078297746
12.108108,2.288289129092745,0.12815421130046672
12.110504,2.502449449791794,0.1360041729341299
12.112892,2.716658888176955,0.1436652806805903
12.115272,2.916207682604748,0.15120390193588668
12.117672,3.0872681193053584,0.15111317543280167
12.120056,3.2322124902196707,0.15169105972317606
12.122436,3.367799879565826,0.15241439929925968
12.12484,3.499197971821914,0.15310215427582133
12.127228,3.6293891509802414,0.15320686110196044
12.129612,3.745850851740979,0.1529831005774095
12.132008,3.830564167386375,0.15326285793448302
12.134392,3.8802671746704025,0.15446846103750178
12.136776,3.9275959941556753,0.1556671731854116
12.139172,3.985029761029518,0.15627297803144116
12.141556,4.037671722193347,0.15656326287679254
12.143952,4.077375600892506,0.15661575913926878
12.146347999999998,4.102324391977809,0.15664031675934667
12.148735999999998,4.112468977763145,0.15692973535958846
12.151116,4.119355432018192,0.15719509375687662
12.153511999999996,4.132157536571743,0.15701193759374185
12.1559,4.1384924957508264,0.1565399744922072
12.15828,4.123087677688783,0.15631985421156286
12.160683999999998,4.090782109923871,0.15654219789252719
12.163071999999998,4.058799511525183,0.15706375823910357
12.165452,4.049395308128783,0.15724274358291637
12.167847999999998,4.05633277592781,0.15703666938478628
12.170235999999996,4.062433521823548,0.15671543299003082
12.17262,4.058478438016826,0.15657250812201434
12.175015999999998,4.049865630553344,0.1567439765954668
12.177403999999996,4.0503755913746735,0.1569533988259418
12.179788,4.0692746501082215,0.156840236047483
12.182196,4.106519376641486,0.15601992318311045
12.18458,4.133942486755637,0.15523689454455916
12.18696,4.1467937089952995,0.154779162565305
12.189368,4.155266746831922,0.15461795536838513
12.191756,4.1720711570204365,0.15451160756161736
12.194136,4.194135799485657,0.15436100476629358
12.19654,4.213501388928029,0.1541349051360179
12.198924,4.223789536055965,0.15399573351911358
12.201304,4.222996244265177,0.15419913546248837
12.203704,4.2260182666542505,0.1545533898761824
12.206088,4.242633789529793,0.15472493615318916
12.208467999999998,4.2704705209509175,0.15453479615761032
12.210872,4.297937061177574,0.15410894262343647
12.21326,4.3057565768502695,0.15414090810697398
12.21564,4.306079546216494,0.15443075472460668
12.218036,4.309241338232428,0.1547722333971045
12.220424,4.3267899225256174,0.15472762963752873
12.222808,4.341267366743621,0.15458244362707885
12.225204,4.343734102340992,0.15460600122105245
12.227592,4.33674941271372,0.154878608720927
12.229971999999998,4.332044467228717,0.1552457966165153
12.232368,4.339769539244925,0.1554140257687082
12.234756,4.3497290294330275,0.15556560061863534
12.237135999999998,4.359131336971559,0.1555791521898593
12.239532,4.359176662941932,0.15569960291853752
12.24192,4.3550780177926125,0.15594947598243383
12.2443,4.358381475293276,0.1560831309146175
12.246704,4.367923552458667,0.15608387031132462
12.249088,4.3828675273854945,0.1558413774317314
12.251468,4.389013599251605,0.15565420294726387
12.253863999999998,4.3938564185056,0.1554651370120254
12.256251999999998,4.402097138916743,0.15528496097435487
12.258632,4.419974380149766,0.15499601270482036
12.261027999999998,4.4498642258612895,0.15437963372432428
12.263415999999998,4.480220602281637,0.15365795779744107
12.265796,4.507970473477752,0.15292896747475912
12.268192,4.528503337621118,0.15242405405056766
12.27058,4.558580174787746,0.1517698192408083
12.272975999999998,4.598760063485073,0.15090364859927463
12.275372,4.647275116250032,0.14975057201977693
12.27776,4.689086914499309,0.14865170530934782
12.280139999999998,4.720935430844745,0.14776364741625672
12.28254,4.757439774989072,0.1467871602862095
12.284928,4.799763429917546,0.14575358246663186
12.287307999999998,4.846882682271771,0.14460947158438373
12.289704,4.894049156454241,0.14338770243687385
12.292091999999998,4.939912378024594,0.14219169686399472
12.294472,4.984145585900868,0.14108066464782068
12.296872,5.0289831982549575,0.14006121660897172
12.299255999999998,5.080711056579832,0.13894276824270516
12.301636,5.130623805613393,0.13781717762990084
12.304031999999998,5.172063516810332,0.13681351051577995
12.306419999999996,5.202469010916791,0.13602021707499914
12.308815999999998,5.226029585022838,0.1354270365784742
12.311212,5.253966447674058,0.1347826617094245
12.3136,5.282043079952136,0.13413010564374608
12.315979999999998,5.311237869245097,0.13340036049054294
12.318376,5.331772629246334,0.13284376388904684
12.320759999999998,5.35123645406093,0.1323251491377992
12.32314,5.363715589248255,0.13200187161420746
12.325539999999998,5.378429142607475,0.13167396797848757
12.327923999999998,5.393142695966694,0.13134133031725242
12.330304,5.405482061527158,0.13102893817526545
12.332707999999998,5.414096764848508,0.13078055995789203
12.335095999999998,5.424294260035697,0.13052656543887164
12.337479999999998,5.438495956715718,0.13019819626390797
12.339876,5.446831120783348,0.12997434245401293
12.342259999999998,5.4567962985450595,0.1296901536702885
12.344656,5.457729359962707,0.12952556047865954
12.347056,5.454658219887522,0.12943669043131267
12.34944,5.451819397237812,0.1293816699903595
12.351824,5.4525654672003565,0.12928060490864032
12.35422,5.453171767536041,0.12918804132642714
12.356608,5.456479016752443,0.12900788535972635
12.358987999999998,5.44991553186362,0.129010283347169
12.361384,5.440139241414881,0.1290863353962352
12.363772,5.427522232458566,0.1292596944127987
12.366151999999998,5.415976158688888,0.1294106956038954
12.368548,5.397492617120182,0.12969573376415322
12.370936,5.380219780364975,0.12994967501195018
12.373316,5.360013677303574,0.1302601950354069
12.375711999999998,5.342089214242308,0.13051194049685438
12.378099999999998,5.321091715247987,0.13082951562880749
12.380496,5.301025381813444,0.13112766374482335
12.382892,5.275232285393372,0.13152513007819755
12.38528,5.2447361393461644,0.1320522200774415
12.38766,5.213169058112318,0.13261854755235733
12.39006,5.178528940945417,0.13324781166668395
12.392444,5.154411184189797,0.13368862867953205
12.394828,5.132714837061176,0.134057228386243
12.397224,5.107154058066581,0.13450055301229738
12.399612,5.080522343885347,0.134967185081046
12.401991999999998,5.05589273045053,0.13539968064962718
12.404388,5.031914743321771,0.13583451092138654
12.406776,5.016736555111599,0.1361033705970719
12.409155999999998,5.006773273207757,0.13625349591826724
12.41156,4.998440004997995,0.13633681545454618
12.413948,4.990246506415093,0.1364104012845235
12.416327999999998,4.989130245258081,0.13633298602518795
12.418728,4.992018185593902,0.13617300073778765
12.421116,4.999189866676277,0.13590999052101502
12.423495999999998,5.009574353318568,0.1355743673957444
12.4259,5.023963041453692,0.13515829865831192
12.428288,5.03034332660315,0.13490121256278756
12.430668,5.038446173245305,0.13462035175028508
12.433064,5.049389738395036,0.13423363659963547
12.435452,5.066339605784019,0.13371842222643338
12.437836,5.085710882799997,0.13313166142486815
12.440232,5.098284461643808,0.13268087170152917
12.44262,5.111369897166818,0.13225037025969186
12.445,5.132743274929215,0.1316411372300014
12.447396,5.154535961572192,0.13100299429603704
12.449784,5.181543554521502,0.13025751135809524
12.452163999999998,5.208690917097671,0.12950686444822299
12.45456,5.233184552621367,0.12879835182523514
12.456948,5.257817957771923,0.1280921604034668
12.459344,5.282311593295618,0.12739906984449553
12.46174,5.308947099192591,0.12666081307840418
12.464128,5.3319977124773095,0.1259754120762802
12.466508,5.3522548290826935,0.12533840225970333
12.468904,5.370509844941662,0.12474354436505931
12.471292,5.384341350427214,0.12425421334188008
12.473676,5.394308424046795,0.12382764956848255
12.476072,5.412563439905762,0.12323367813372452
12.478456,5.436312901324782,0.12252345550212222
12.48084,5.462716089796277,0.12179372623167647
12.483244,5.487256947148215,0.12109561901907358
12.485632,5.512309661179351,0.12042122480321524
12.488012,5.539504245583764,0.1197009206817969
12.490411999999996,5.563253707002785,0.11901303733284505
12.4928,5.577784060622639,0.11849540136188595
12.495184,5.596039076481606,0.11793680414372032
12.497579999999996,5.6061459197280445,0.11752065528861058
12.499971999999998,5.616532302228205,0.11708920855582747
12.502348,5.626778915101505,0.11666767811472585
12.504751999999998,5.633533183161169,0.11632789819282759
12.507135999999996,5.640799307900031,0.1160045694647541
12.509516,5.648577289318091,0.11569939539199528
12.511919999999998,5.656727357788489,0.1154184730705244
12.514307999999998,5.664458117378305,0.11516464375086166
12.516688,5.67204910734126,0.1149203228711777
12.519092,5.681502428423773,0.11465341958584446
12.521475999999998,5.693749246185621,0.11435241755906148
12.523856,5.703854193574191,0.11409409853400235
12.526255999999998,5.709395860962486,0.1139357828512247
12.528639999999998,5.711584953164007,0.11384618490481316
12.53102,5.714705210925305,0.1137463143599565
12.533419999999998,5.714752432753548,0.11369600970731253
12.535804,5.719315712753823,0.11360263820057293
12.538188,5.728395050926129,0.11346661451880427
12.540584,5.745343022457242,0.11322224252351822
12.542972,5.756144922122244,0.11307553615005439
12.545352,5.773744519959416,0.11283930986642891
12.547748,5.789993643356228,0.11264052850907488
12.550136,5.8081050978725965,0.1124232865078909
12.552516,5.828358422762243,0.11216881000102825
12.554919999999996,5.847028955786053,0.11191757613824914
12.557308,5.864116696944025,0.1116715599196771
12.559692,5.881344207728858,0.11141677843168299
12.562087999999996,5.89978242332719,0.11113579335641785
12.564476,5.915007833365607,0.11090802035118494
12.566856,5.927579516351549,0.11070175607045506
12.569252,5.9412221345241285,0.11047938297174467
12.57164,5.956587314189407,0.11024702516285442
12.57402,5.971161097921766,0.11001528609095401
12.576416,5.9860144209078445,0.10976668540743914
12.578808,5.999657039080425,0.10954596619739533
12.581188,6.014650131693365,0.1092897593027467
12.583584,6.0221938998280775,0.10911381727084926
12.585972,6.026804401656595,0.10897659391857716
12.588368,6.025548370872722,0.10891423806971577
12.590763999999998,6.026434210462127,0.10881580542820452
12.593151999999998,6.024666322999057,0.10873825989181436
12.595532,6.02103610441643,0.10867967074902955
12.597931999999998,6.014472619527607,0.1086579260620531
12.600319999999998,6.009911235385203,0.10860872405634703
12.6027,6.008283117548992,0.10852333410880644
12.605104,6.007446395645701,0.10843697018206162
12.607492,6.007820378555907,0.10832533855301234
12.609871999999998,6.008473900719835,0.10819802602125587
12.612272,6.0195572354964275,0.10791873166951711
12.61466,6.03529639807191,0.10759618987067202
12.617039999999998,6.0498248558338945,0.10730096796732626
12.619444,6.0629102913569035,0.10700138427818344
12.621832,6.07813759725319,0.10666923101273103
12.624211999999998,6.093364903149476,0.1063376155571843
12.626608,6.111525475351957,0.1059749987461468
12.628996,6.132200004980053,0.10560570809740086
12.631375999999998,6.156459427220402,0.10520907069601013
12.633772,6.1830004894608885,0.10477527801324515
12.63616,6.211683422074651,0.10430785376510589
12.63854,6.240366354688413,0.10384135631029688
12.640944,6.269049287302177,0.1033767080250299
12.643328,6.3035987525283295,0.10284987148829973
12.645708,6.338427757008203,0.1023060478267465
12.648103999999998,6.370323495181882,0.10180001785921383
12.650491999999998,6.400356902236004,0.1013144862796735
12.652872,6.426525877424152,0.10086737950611994
12.655276,6.451484147798803,0.10044554043487089
12.657664,6.4741607781733155,0.10006393550388996
12.660043999999996,6.486547365562023,0.0998188855668115
12.662448,6.495349060338478,0.09959875165468857
12.664832,6.50056586250268,0.0994012969282541
12.667211999999996,6.503640794293604,0.09923421438042124
12.669616,6.5048533949649725,0.09908278301624437
12.672004,6.505134830076562,0.0989388850924456
12.674383999999998,6.502762538135676,0.09881089726665548
12.676788,6.493080691343425,0.09873581895562622
12.679176,6.483026757498837,0.09863772280599335
12.681556,6.469899787721192,0.0985766483689514
12.683952,6.456633048316688,0.09852265438705687
12.68634,6.445508179285459,0.09843836590111958
12.688719999999998,6.43517470618715,0.09835391811513208
12.691116,6.420045635663089,0.09831241876923172
12.693504,6.406499357004864,0.09827108353122149
12.695883999999998,6.388948876853805,0.09827391048913425
12.698288,6.368976987075749,0.09832156442771751
12.700676,6.352869529163667,0.09833285450747475
12.703055999999998,6.337181380132163,0.09832114187086471
12.705452,6.324566267033719,0.09827234637896344
12.70784,6.31288231949505,0.09821684499244637
12.710223999999998,6.303852099008857,0.09814655879681154
12.71262,6.300548641508192,0.09802502634680704
12.715004,6.3020407814332815,0.09786017817213624
12.717387999999998,6.306186648410845,0.09768178697841745
12.719784,6.313405551321463,0.09746799825235895
12.722172,6.316480483112386,0.09730372865605239
12.724551999999996,6.328215444195037,0.09706052730058379
12.726947999999998,6.3393913267702455,0.09684791515620536
12.729335999999998,6.351498374905234,0.09662815969621602
12.731719999999996,6.363605423040221,0.09640878310224481
12.734115999999998,6.3695663993090985,0.09626107471792343
12.736499999999998,6.375667145204836,0.09610679493317528
12.738884,6.384980696660487,0.09591043117737938
12.741279999999998,6.39457378736986,0.09570037464013188
12.743667999999998,6.409381784385566,0.09542541812236995
12.746064,6.428892831028406,0.09507192983447077
12.74846,6.449754352111605,0.09469328296691988
12.750848,6.470476103567943,0.0943235753773804
12.753232,6.487473192785169,0.09398162451270618
12.755628,6.508893792375808,0.09357752172927794
12.75802,6.5287316001006115,0.09317477901148892
12.7604,6.546986615959579,0.09277524405063761
12.762803999999996,6.561516969579433,0.09240343017451597
12.765192,6.575535466520089,0.09201956237057322
12.767572,6.587272323460608,0.09167118433316138
12.769968,6.605434791520958,0.091243282694005
