Time,Force,Position
13.445347999999996,0.017408939194615218,0.0
13.447735999999992,0.017408939194615218,0.0
13.450119999999998,0.01767181066470097,0.0
13.452516000000005,0.017794912507926513,0.0
13.454904,0.0191287191646508,0.0
13.457287999999991,0.021393691381153407,0.0
13.459683999999996,0.02337912434393559,0.0
13.462071999999992,0.026016183612775676,0.0
13.464451999999994,0.029444638814533877,0.0
13.466852000000005,0.032733324389431856,0.0
13.46924,0.03788434108388648,0.0
13.47162,0.04503745852475796,0.0
13.474019999999996,0.056194777458463144,0.0
13.476407999999992,0.06320812527247441,0.0
13.478787999999994,0.06902743605662161,0.0
13.481188000000005,0.07656930833346523,0.0
13.483576,0.08772662726717041,0.0
13.485956000000002,0.09526849954401403,0.0
13.488355999999996,0.10467270294041428,0.0
13.490743999999992,0.1154273807771735,0.0
13.493128,0.13218836085318328,0.0
13.495524000000003,0.1487003557200811,0.0
13.497912,0.16709134949017027,0.0
13.500292000000002,0.18268884658092444,0.0
13.502691999999996,0.19679609960445946,0.0
13.505079999999992,0.20997218706821616,0.0
13.507459999999996,0.22035477785263788,0.0
13.509856,0.23129644714450046,0.0
13.512243999999995,0.2395843893838883,0.0
13.514623999999998,0.25015397162341335,0.0
13.517023999999992,0.2551365605042686,0.0
13.519412000000004,0.258908444571625,0.0
13.52179199999999,0.25574286083995257,0.0
13.524192,0.26086521934766793,0.0
13.526575999999991,0.2638457074821063,0.0
13.528959999999998,0.26403269893720965,0.0
13.531356000000002,0.2631487552056745,0.0
13.533744,0.25746921404838746,0.0
13.53612799999999,0.25006711139840404,0.0
13.538523999999995,0.2415940735617821,0.0
13.540911999999992,0.22939637348604686,0.0
13.543295999999998,0.21878146527614786,0.0
13.545692000000004,0.20616445631983202,0.0
13.548084000000005,0.19741187922948963,0.0
13.550463999999993,0.1880076758330894,0.0
13.552859999999995,0.17874324206354933,0.0
13.555247999999992,0.1708292827343682,0.0
13.557631999999998,0.1587713522854932,0.0
13.560028000000004,0.1484359833293146,0.0
13.562416,0.13474803918636025,0.0
13.564799999999993,0.12864918914849263,0.0
13.567195999999996,0.11868590724465153,0.0
13.569583999999992,0.11258705720678393,0.0
13.571967999999998,0.10045135088505727,0.0
13.574364000000005,0.09393319196660901,0.0
13.576752,0.0851333930480235,0.0
13.579135999999991,0.07486001784585351,0.0
13.581531999999996,0.06831130488279677,0.0
13.583919999999992,0.061622822292879825,0.0
13.586303999999998,0.05479457007610268,0.0
13.588700000000005,0.04968887935202196,0.0
13.591092000000003,0.043791792695023125,0.0
13.593471999999991,0.03775493641116409,0.0
13.595872,0.030786914567526736,0.0
13.598259999999996,0.024750058283667692,0.0
13.60064,0.018573432372948447,0.0
13.603036000000005,0.014119367954925627,0.0
13.605424,0.01259856984309798,0.0
13.607807999999991,0.011217541358130547,0.0
13.610203999999996,0.011047217686661852,0.0
13.612591999999992,0.007275333619305418,0.0
13.614971999999996,0.008718355858281429,0.0
13.617372000000003,0.007367881417922478,0.0
13.61976,0.007367881417922478,0.0
13.622140000000002,0.00375243476106092,0.0
13.624539999999996,0.003210024037254745,0.0
13.626927999999992,0.0076602967395390745,0.0
13.629312,0.019138689181600103,0.0
13.631711999999991,0.04230102916232942,0.0
13.634100000000004,0.07784616481602809,0.0
13.636479999999992,0.12125803797066473,0.007641171539027728
13.63888,0.16909152564084642,0.015438617167942119
13.641267999999997,0.2225101108118288,0.02343676906803144
13.643648,0.2829568157225879,0.031561496085616564
13.646047999999992,0.3545756114928176,0.039363663087484235
13.648436000000004,0.43205904401756834,0.0472316074188485
13.650819999999996,0.5150350262445027,0.05508232569044758
13.653216,0.602292853360122,0.06304025035716306
13.655603999999997,0.6871273749908745,0.07173521448448825
13.657984,0.7768481459881267,0.08065675604980233
13.660383999999992,0.8739857915611277,0.08958854639581121
13.662772000000004,0.9777794698215679,0.09830623508660752
13.665155999999996,1.089439885582946,0.10699540647244478
13.667552,1.210720154382567,0.11546649543911076
13.669939999999997,1.341077865496625,0.12374987426858101
13.672324000000003,1.4789302270592832,0.13190602970698964
13.674719999999994,1.6153581300244693,0.1400110519049236
13.677108000000004,1.7485297973172351,0.14786835076145127
13.679487999999992,1.867411011847101,0.15571071421473603
13.681888,1.9667396454794914,0.16381218511888032
13.684275999999995,2.0595047942230598,0.1642779371001074
13.686660000000003,2.1568804447951457,0.16426046965731964
13.689055999999994,2.254817069732542,0.1637697368646477
13.691444000000004,2.3476351278779606,0.16299542111401802
13.693827999999996,2.427326216245736,0.16252660098043178
13.696224,2.4968689271124354,0.16219140377929925
13.698611999999995,2.563665363128044,0.16187480718360317
13.700996000000004,2.634420674666112,0.1611960820310501
13.703395999999998,2.7106723276221008,0.1596618236520008
13.705783999999994,2.7800828522934173,0.15788243168927818
13.708163999999996,2.839579212747006,0.15610824557558442
13.71056399999999,2.8858541597664624,0.1547532679966062
13.712952,2.9252860826433773,0.15353513864196947
13.715335999999994,2.957223355071691,0.15250936533807746
13.717731999999998,2.981573429252787,0.15156983877770341
13.720119999999994,2.9935407077609146,0.15085069028902742
13.722504,3.000619841044673,0.15024610013556525
13.724903999999997,3.0024368461938558,0.14999696616978278
13.727291999999991,3.0081636091793866,0.14977214312593662
13.729675999999998,3.0225031796283983,0.14927882874284443
13.732075999999992,3.036098575972736,0.14870602689849263
13.734464000000004,3.0352146322412006,0.1486398580152663
13.736847999999997,3.0249718110836388,0.1490107280316012
13.739244,3.012260358470837,0.1496185712985977
13.741631999999996,3.002807037388324,0.1502500290181537
13.744016000000002,3.0011298018660013,0.15047802284730188
13.746411999999992,2.994471873320693,0.15073124303557292
13.748800000000005,2.9738464613787094,0.15147890515752693
13.751183999999997,2.9540124453696435,0.15217659608810608
13.753599999999992,2.939578431264145,0.15279108723581938
13.755983999999998,2.9303121016367357,0.15326980953865094
13.75836799999999,2.9278906920097385,0.1534044095649534
13.760763999999996,2.9275186049574016,0.15336283999010022
13.763151999999993,2.9263551219721458,0.15333425153052185
13.765531999999991,2.921279985292674,0.15354297778248188
13.767927999999998,2.9264004479425196,0.15350836445304608
13.770319999999998,2.9355251120851995,0.15331606686816796
13.7727,2.9461400202950982,0.15301603643701653
13.77509599999999,2.9523786399598264,0.15283114680381918
13.777487999999993,2.9576860940647753,0.15267864537634543
13.779867999999992,2.961595851901123,0.1527075736572621
13.782263999999998,2.9714646901484776,0.15257943451004877
13.784651999999994,2.9836151683959695,0.15231833350399535
13.787036,2.9943226244044854,0.1520598603498144
13.78943199999999,3.002236583733667,0.15190217730918226
13.79182,3.009823781980885,0.15189005405572584
13.794200000000004,3.022671212504809,0.15181304860287234
13.796595999999994,3.0459012338131544,0.1513425360942651
13.79898399999999,3.0660582191884447,0.15102785990803116
13.801367999999997,3.0846324126978986,0.15075624634654075
13.803764,3.100785196580355,0.15062648665337308
13.806151999999996,3.113026326768595,0.1507330259591156
13.808532,3.1249879177031135,0.15087770577379217
13.810931999999994,3.1352269471449365,0.15106482901445967
13.81331999999999,3.150169026213895,0.15100667100115234
13.815703999999997,3.1619455215511802,0.15100870370215894
13.8181,3.1733027080078857,0.15106593154049733
13.820487999999996,3.1908059663307013,0.1509014626335542
13.822872000000004,3.216457397266044,0.15044429180904767
13.825267999999994,3.2415969715221897,0.14996411666720397
13.82765599999999,3.2686460987261348,0.149338113858962
13.830039999999997,3.298908031489996,0.14859783628684628
13.832436,3.3338257920527483,0.14773801442831686
13.834823999999998,3.3738186892949726,0.14670418095379897
13.837208000000004,3.418654405791192,0.1454474716128839
13.839603999999994,3.4627459481827367,0.1441567405759773
13.84199199999999,3.501018179790134,0.1429626798458365
13.844375999999995,3.5355657491584185,0.14190295767311945
13.846775999999991,3.5673198218473674,0.14090892622424475
13.849164000000002,3.599213664163177,0.13992052599022248
13.851544000000004,3.6307354194266495,0.13889718790427222
13.853943999999998,3.6697537209965905,0.13762422283519768
13.856331999999997,3.712356915178786,0.13630459569776815
13.858716,3.758824541226954,0.13489129308001208
13.861111999999991,3.804593319140821,0.13357831636115494
13.863500000000002,3.8468697522410524,0.13240912038783823
13.865883999999994,3.887563393475447,0.1312666508176848
13.86828,3.9190379269106757,0.13042275684764182
13.870667999999997,3.943155683666295,0.12982082461839384
13.873052,3.968344375608553,0.12918813129999115
13.875447999999992,3.9935330675508105,0.12856342965609496
13.877836000000002,4.016347571694314,0.12797529612200195
13.880219999999994,4.033575082479148,0.1275101783979299
13.882616,4.04437698214415,0.12724155464283268
13.885003999999997,4.052617702555295,0.12708293961455502
13.887388,4.056295142966166,0.12707983730755507
13.889783999999992,4.065839115989426,0.1269371093488621
13.892175999999992,4.0755228586395456,0.12678326902740197
13.894555999999994,4.092283838715556,0.12645178966302684
13.896963999999995,4.103038516552315,0.12626750821291619
13.899351999999991,4.112722259202435,0.12611440572148014
13.901736,4.112395498120472,0.12621232373617855
13.904135999999994,4.1038280166273635,0.12646271066862882
13.90652399999999,4.090185398454783,0.12684310735807763
13.908903999999993,4.075239527670087,0.12720571805901987
13.911304,4.060573196139112,0.12754790859832196
13.913691999999998,4.044556390167777,0.12794980592612323
13.916076000000004,4.031333080875777,0.1283021496232234
13.918471999999994,4.0213225771436925,0.12856027393479472
13.92085999999999,4.01038090785183,0.12883556722041103
13.923239999999993,4.000370404119746,0.12908774218345184
13.925635999999995,3.9888696563204418,0.12940841847403298
13.928023999999994,3.98230427557375,0.1296089490598755
13.930408,3.983375210760389,0.12957780175384992
13.932807999999994,3.980721483707914,0.12962053264453804
13.93519599999999,3.9831428933349122,0.12953192512665135
13.937575999999993,3.9814203318422154,0.1295557015543205
13.939976,3.9775558999762417,0.12964171831047552
13.942363999999998,3.9667540003112403,0.12989001044805826
13.944744,3.965031438818543,0.12991302119220824
13.947143999999994,3.967452848445541,0.12982769904708968
13.94953199999999,3.9769514954984277,0.12956811670177001
13.951911999999991,3.9912457399770647,0.12920367390247414
13.954312000000002,4.006890458896062,0.1287775535755044
13.956699999999998,4.020253537814923,0.12842404691177745
13.95908399999999,4.033244529681445,0.1280339952472551
13.961479999999996,4.046794600055409,0.12758874274881077
13.96386799999999,4.0618349144965915,0.12707447674719244
13.966247999999991,4.073290336325521,0.12661905380538782
13.968648000000002,4.084745758154451,0.1261646990107517
13.971035999999998,4.092336748117407,0.12579836517780077
13.97341999999999,4.0980654069608065,0.12546651827779115
13.975815999999996,4.097508224311234,0.12531310033593956
13.978207999999997,4.09173613535533,0.12530488072475818
13.980587999999996,4.09010801751912,0.12518357877708852
13.982984000000002,4.0807510359509624,0.12523807265443954
13.985376000000002,4.0715338240096655,0.12528084340071952
13.98775599999999,4.060454280948812,0.12536533080918083
13.990156,4.049234968261098,0.12546684487350315
13.992548,4.029076087027939,0.1257981709461516
13.994931999999991,4.000629263555391,0.1263753631923697
13.997332,3.9643138067240367,0.127161684112738
13.999719999999996,3.9270671843329037,0.1279613766495953
14.0021,3.890751727501549,0.12874135874927947
14.004499999999991,3.8575093066032498,0.1294363521167175
14.006888000000004,3.828643174250122,0.13004930832029132
14.009271999999996,3.801499603389691,0.13063244947851207
14.011668,3.774216262902399,0.13122007870152047
14.014051999999992,3.7526596854006375,0.13167464682940272
14.016436,3.730963338272016,0.13214173892522627
14.018832000000003,3.710477695956893,0.13256710465083615
14.02122,3.692273693641907,0.1329158227174761
14.023603999999992,3.6795641368869743,0.13308662819202166
14.026004,3.666854580132042,0.1332595750518872
14.028391999999997,3.6530740881904693,0.13346306608948086
14.030772,3.6462310640479276,0.13349005109731032
14.033171999999992,3.64232130621158,0.13344387946828204
14.035560000000004,3.6442780809876227,0.13325276844358938
14.037939999999992,3.649307891696721,0.13297455645850548
14.04034,3.6554086375924584,0.13265485506962008
14.042727999999997,3.6687263905409444,0.13211459217698998
14.045112000000003,3.6888418416615987,0.13139024199240776
14.047507999999992,3.711890559088449,0.13060087351379976
14.049896000000004,3.7358704420750772,0.12979630615357335
14.052279999999996,3.7590589291287873,0.129005195722264
14.05467999999999,3.780385085062941,0.12826925534448752
14.057068,3.801711240997094,0.1275412363745602
14.059451999999991,3.8222460009983292,0.12682503910385567
14.061852000000002,3.839056098760452,0.12619485079928588
14.064239999999998,3.8570769013360726,0.1255227688277319
14.06662399999999,3.879753531710586,0.12476876250046068
14.069019999999997,3.900148522084961,0.12408765830591088
14.071411999999995,3.917470476526281,0.12349483319810342
14.073791999999996,3.9400073372739333,0.12276904428032914
14.076207999999994,3.961473262834947,0.12207282427648386
14.07859599999999,3.983870353955739,0.12137589304462938
14.080991999999997,4.003753487650917,0.12071154818947502
14.083388,4.022053829480258,0.12006836312078233
14.085775999999996,4.041425106496239,0.11940519922037596
14.088155999999998,4.070806887244302,0.11853216153153176
14.090552000000002,4.1001886679923665,0.11767620843043258
14.09294,4.130781153553929,0.11680027297515792
14.09532,4.155367336876242,0.11605302845608338
14.097719999999995,4.1818158513181105,0.11528804585271822
14.100107999999992,4.209847157625815,0.11452458216822523
14.102491999999998,4.235596823933383,0.11382503439260716
14.104888000000004,4.260135785427453,0.1131661200021371
14.107276,4.283324272481163,0.11255591185522679
14.109656,4.307816012146989,0.111963833865106
14.112055999999995,4.330026111812678,0.11143717787206348
14.114443999999992,4.345019204425617,0.11107166622048373
14.116823999999994,4.365878829650948,0.11059944292245501
14.11922,4.388321246742112,0.11012196204996956
14.121607999999997,4.406200383833005,0.10977864857034601
14.123992,4.427943952789869,0.10937157168970549
14.126387999999992,4.444612385067261,0.10907002516710242
14.128776000000002,4.458440098837076,0.10887229047422851
14.131159999999994,4.470777568539672,0.10873629406274225
14.133556,4.481904333428768,0.10863954554103977
14.135948,4.485255012757675,0.10874003267814043
14.138328,4.487394987273083,0.10887546688107681
14.140727999999996,4.485111451415076,0.10911699429095592
14.143115999999992,4.490836318542737,0.10921199093581421
14.145495999999994,4.492836523431285,0.10935708651019034
14.147896000000005,4.493905562760055,0.10951379061891374
14.150284,4.496325076529183,0.10962576360360946
14.152667999999991,4.501817626231365,0.10967886118219451
14.155063999999996,4.510383211866604,0.10967379869886344
14.157455999999996,4.517366005636008,0.10967128563004669
14.159836,4.528213231271384,0.10960944871410182
14.162232000000005,4.544275363213093,0.10944188847811896
14.164624000000003,4.5586149336621045,0.10929342617887802
14.167003999999991,4.571231942618421,0.10915791069060507
14.169404,4.585990821948014,0.10897788521161617
14.171791999999996,4.600609931650748,0.1088130373598667
14.174176000000005,4.617091372473036,0.10862250423466449
14.176571999999991,4.641069359601796,0.10827637515077301
14.178963999999992,4.664255950797637,0.1079296569080882
14.181343999999996,4.686651146060559,0.10758614015683021
14.18374399999999,4.708814023898005,0.10719874884995147
14.186132,4.732047836922088,0.10679369649645026
14.188515999999993,4.756771894013392,0.10633342904525543
14.190911999999996,4.776281044798361,0.10598121729231048
14.193299999999994,4.799375088195586,0.10559648612041388
14.195684,4.82260890121967,0.10520470094394696
14.198083999999994,4.8479845846170315,0.1047752728083541
14.20047199999999,4.871637706521696,0.1043651504455528
14.202855999999995,4.893288727679944,0.10398986041614355
14.205252000000002,4.917081619211469,0.10357415294938299
14.207639999999998,4.940502423690656,0.10313825947761789
14.21002399999999,4.960198565930731,0.10274520074663354
14.212424,4.974028175558415,0.10243311406702679
14.214811999999997,4.989999655559375,0.10208128598155904
14.217196,5.0015948470151645,0.10176131056958326
14.219595999999996,5.007742814739145,0.10149367222150008
14.221983999999992,5.01738312727676,0.10114918670275364
14.224367999999998,5.02530087832168,0.1008215760795502
14.226764000000005,5.034429334180099,0.10046465920379125
14.229152,5.043557790038517,0.10010829264775815
14.231535999999991,5.053757181083575,0.09973258246247495
14.233936,5.0591609747028805,0.09941445437612155
14.236323999999996,5.06735826500152,0.09907062857468817
14.238708000000004,5.073832993807464,0.09873456703340226
14.241103999999993,5.07378956369496,0.09846516787250371
14.243495999999991,5.07095263690312,0.09822425931569954
14.245875999999996,5.065973839738003,0.09802224182858368
14.248276000000004,5.059132711453329,0.09783882087875935
14.250664,5.052571122422377,0.09763616762679496
14.253047999999993,5.046009533391424,0.09743375142435097
14.255443999999995,5.035164203613917,0.09730531252764113
14.257831999999992,5.029394010515881,0.09710298927799797
14.260211999999996,5.029490350030238,0.09682713190832015
14.26261199999999,5.030657624731231,0.09653501633973156
14.26500399999999,5.0355495616713375,0.09620698180752976
14.267380000000005,5.042443599357862,0.095849523161629
14.269779999999995,5.044262500364914,0.09556588660888578
14.272167999999994,5.038584855065496,0.0954084730068949
14.274547999999996,5.0357007064454145,0.09522548701635339
14.276944,5.034818658571749,0.09501672902936895
14.279331999999997,5.033796841071222,0.09481738791855762
14.281716000000005,5.035708289876892,0.09458208933907401
14.284111999999991,5.03068227088353,0.09443430711557894
14.286500000000004,5.026727187076809,0.09426787902278301
14.288883999999996,5.027847239949561,0.09402899624221872
14.29128,5.034833825434702,0.09372145384590104
14.293667999999997,5.039678540546567,0.09344859319995871
14.296048,5.045314651591348,0.0931765297414975
14.298447999999992,5.047737957076215,0.0929572254025123
14.300836000000004,5.050952658493999,0.09274053537257612
14.303215999999992,5.055889921404482,0.09251515602205523
14.305611999999996,5.05533273875491,0.09238962769866778
14.308003999999997,5.05356485129184,0.0922918938187775
14.310384,5.045371352708938,0.0923007456297625
14.312783999999994,5.036758545245456,0.09233722771216712
14.315172000000004,5.031730630394226,0.09234925246022792
14.317555999999996,5.030287608155249,0.09233772671426885
14.319952,5.038994859275218,0.09218846490226053
14.322339999999995,5.042766743342575,0.09209919979510012
14.324724000000003,5.042534425917099,0.09206097529863629
14.327123999999998,5.043093504424541,0.09202402731951444
14.329511999999994,5.042721417372203,0.091995067608591
14.331891999999996,5.048215862932256,0.091898933818479
14.33429199999999,5.055712409238725,0.09177784617461035
14.33668,5.0640003514781124,0.0916599531499306
14.339063999999992,5.06507128666475,0.0916429949594072
14.341459999999998,5.069215257784443,0.09158415079534618
14.343847999999994,5.075221560023694,0.0915103603939047
14.346232,5.0864427685692775,0.09136136589639966
14.34862799999999,5.09286837968911,0.0912600330161304
14.351016,5.100924004503019,0.0911061262589024
14.353399999999992,5.112332204503706,0.09089216459155844
14.355795999999998,5.122157612638556,0.09067576301048876
14.358187999999998,5.142692372639791,0.0902950258191711
