Time,Force,Position
13.502076,0.08710166859014588,0.0
13.504456,0.0738503976132305,0.0
13.506863999999998,0.06302053626331261,0.0
13.509248,0.05419277565981156,0.0
13.511628,0.044433849496532195,0.0
13.514024,0.03188142665391787,0.0
13.516412,0.02333320530413725,0.0
13.518796,0.015995688767855367,0.0
13.521192,0.008658172231573488,0.0
13.52358,0.0070281585374941166,0.0
13.52596,0.011264677455805089,0.0
13.528363999999998,0.01550119637411606,0.0
13.530752,0.020417303283400457,0.0
13.533132,0.024281735149373946,0.0
13.535531999999998,0.029077332575125764,0.0
13.537916,0.03506437467104869,0.0
13.5403,0.04119118639383183,0.0
13.542696,0.051182429982588463,0.0
13.545084,0.06382740062381984,0.0
13.547464,0.0755412057052729,0.0
13.54986,0.08325080929389227,0.0
13.552248,0.08695621138967792,0.0
13.554628,0.09280348385874064,0.0
13.557032,0.09585725964846839,0.0
13.55942,0.1001217402516949,0.0
13.5618,0.10052178898894791,0.0
13.564203999999998,0.10052178898894791,0.0
13.566588,0.10052178898894791,0.0
13.568968,0.10052178898894791,0.0
13.571371999999998,0.09667661726630204,0.0
13.573759999999998,0.09096911442409954,0.0
13.576144,0.08619277714167535,0.0
13.578548,0.08127667023239095,0.0
13.580932,0.07729172888288488,0.0
13.583312,0.07144445641382216,0.0
13.58572,0.06545741431789924,0.0
13.588108,0.059330602595116085,0.0
13.590488,0.049339359006359454,0.0
13.592884,0.03669438836512807,0.0
13.595272,0.024980583283674997,0.0
13.597651999999998,0.01727097969505564,0.0
13.600048,0.013565577599269985,0.0
13.602436,0.007718305130207265,0.0
13.604816,0.005757738638425841,0.0
13.607212,0.007472716699645299,0.0
13.6096,0.0270177141656438,0.0
13.611984,0.05669182898938992,0.0
13.61438,0.09344128538115586,0.0
13.616768,0.13712631371408146,0.00943520616793889
13.619148,0.1863964395478077,0.018902366643301437
13.621543999999998,0.24390538993480942,0.028103139278624328
13.623931999999998,0.30951339524822635,0.03714950593036545
13.626312,0.38471069955527765,0.04583731106238488
13.628711999999998,0.46777474136326685,0.054347736240513575
13.631096,0.558705520672194,0.0627114729763781
13.633476,0.6582944334149772,0.07092597748439922
13.635879999999998,0.7653307747781177,0.07911768568168163
13.638267999999998,0.8806059406945337,0.08726765498843099
13.640648,1.0002554992982517,0.09558314268203533
13.643043999999998,1.128563191335826,0.10378605623108306
13.645432,1.2642257641951402,0.11188518461638841
13.647812,1.403937864517662,0.11997998985681868
13.650216,1.5502606715572493,0.12790123159183914
13.652603999999998,1.7002858667246419,0.1356336751194471
13.654984,1.8513385669661686,0.14304808690124443
13.657388,1.9823268296310221,0.15062457290651982
13.659776,2.101583922928964,0.15828439692101218
13.662156,2.212135660964807,0.1660718245356675
13.664552,2.3190571804180227,0.1643464785846869
13.66694,2.424258034236411,0.16244306021061491
13.66932,2.521779142008965,0.16073466579543574
13.67172,2.607895841496571,0.15925124540676094
13.674103999999998,2.6832125371770443,0.15819509060769618
13.676484,2.751965747968695,0.15732523975427481
13.67888,2.8161575746179404,0.15652989730266767
13.681268,2.8712719589527493,0.15593743564905027
13.683648,2.919218453920921,0.15533197233781146
13.686051999999998,2.9594852028432586,0.15469703799610476
13.688439999999998,2.9964484942649317,0.1538485442603649
13.690816,3.0263364441185856,0.15308774836026162
13.693216,3.051523240202974,0.1523602263185391
13.695604,3.080017285503765,0.15134659438213557
13.697984,3.098455501102097,0.15057963897227913
13.70038,3.1113067233417597,0.15001197265351043
13.702768,3.114751846327153,0.14992975401474357
13.705152,3.1308139782688613,0.1494928718879254
13.707548,3.153534038755879,0.14884404298286574
13.709936,3.1788152784967534,0.1480427214115238
13.712316,3.1999997689461774,0.14732820572380506
13.714712,3.2133156260367945,0.14689388454094582
13.7171,3.221788663873416,0.14670489021792715
13.719496,3.234218681374629,0.14645075757698883
13.721892,3.246928238129562,0.14615593602554477
13.724279999999998,3.2586140815260993,0.14581874559796257
13.726664,3.2634096789518514,0.1456509174897446
13.72906,3.268904124511905,0.14539519464064377
13.731448,3.2739792611913767,0.1451923778926438
13.733828,3.281940442348801,0.1449807268247262
13.736223999999998,3.290553249812283,0.1447783463963958
13.738611999999998,3.2969316391038714,0.14459527287587845
13.740996,3.3027981717162618,0.14439574007915001
13.743391999999998,3.2956737124621287,0.1447424424278845
13.745779999999998,3.2918546065665297,0.1450330993828218
13.74816,3.285753860670793,0.14543740039383254
13.750556,3.281283128469135,0.14573601471723235
13.752944,3.265638409550138,0.14638818759146116
13.755324,3.244406697272471,0.14720235885979693
13.757727999999998,3.2241061505545816,0.14797504828245822
13.760115999999998,3.2035260645829724,0.14878998286262837
13.762496,3.189092050477474,0.1493685928359308
13.764892,3.1850878489846397,0.14951736944654623
13.76728,3.182434121932165,0.1495854058475087
13.769664,3.184575992305442,0.14949671751757487
13.772059999999998,3.186438323424998,0.1494414740720266
13.774448,3.192676943089727,0.14927824853795618
13.776828,3.199567189060512,0.1491223002655039
13.779224,3.203663938351963,0.1490476857495883
13.781612,3.202453233538465,0.1491094672717866
13.783992,3.200590902418908,0.14916494577426187
13.786392,3.1992404279785496,0.1492427304273454
13.78878,3.1936062127916367,0.14949853253325227
13.791175999999998,3.1969587879784114,0.14934626263733683
13.793572,3.201382298351826,0.14914945980881233
13.795956,3.2127432765242694,0.1487056907386477
13.79834,3.2275493776821054,0.14818031972684434
13.800736,3.2448694362655557,0.14757799143815806
13.803124,3.260187394102589,0.14703940498891335
13.805508,3.274853725633565,0.1465072527454356
13.807904,3.292593093097596,0.14585429938154226
13.810292,3.3091217557481283,0.14527750738038475
13.812672,3.3156399146665767,0.14507907297378705
13.815067999999998,3.318293641719052,0.1450110365728246
13.817455999999998,3.3152206057859965,0.14512806154057117
13.819836,3.310145469106525,0.14531987921884082
13.822235999999998,3.3062810372405513,0.14544770399619517
13.82462,3.3014854398148,0.14560249768266792
13.827004,3.304698245374716,0.14547159434460974
13.829399999999998,3.310704547613966,0.1452578931259875
13.831791999999998,3.3147087491067997,0.14511571137804793
13.834172,3.3180613242935753,0.14496723184425028
13.836567999999998,3.3266288057866835,0.14461683827985955
13.838956,3.3327748776527937,0.1443931704826292
13.841347999999998,3.3398521150786826,0.14414670734086193
13.843744,3.3422735247056794,0.14403239330060927
13.846132,3.3444626169072,0.14386650005176194
13.848512,3.3535891769077493,0.1434826048650828
13.850908,3.3676511039609105,0.14294113227850178
13.853291999999998,3.380362556573713,0.14247435467042346
13.855676,3.3910719084400984,0.14207689453932562
13.858071999999998,3.4028521954931223,0.1416461985230989
13.860459999999998,3.4211506414645942,0.14104215814125948
13.862844,3.4422425841154016,0.14036165885906057
13.865239999999998,3.4653366275126256,0.1396105934587642
13.867627999999998,3.493366037962461,0.1387082129384361
13.870024,3.5186019517329625,0.1378871954728306
13.87242,3.544769031063242,0.1370456924162836
13.874808,3.5657212040871884,0.13640535974173218
13.877188,3.582948714872022,0.1358538026564036
13.879592,3.6029697223361903,0.13523403999984726
13.88198,3.629508888718807,0.13446988848992247
13.884364,3.6537664151012863,0.13381071266073102
13.88676,3.6768132366702675,0.13320399649826292
13.889148,3.697857957492831,0.13266102791908072
13.891528,3.7194145349945917,0.1321357739472077
13.893924,3.7386894724962163,0.13170176792079283
13.896312,3.755031143691645,0.13136234963812646
13.898692,3.771093275633354,0.13105803466401783
13.901088,3.7891575083214795,0.1307008834473098
13.903476,3.8069422017558843,0.13037010533324145
13.90586,3.8225850248170126,0.13011186453443074
13.908256,3.8375762215720832,0.12985360011195266
13.910644,3.852427648700293,0.12961112751540274
13.913023999999998,3.8699328028809776,0.1293279636467677
13.915424,3.8865067915018843,0.12907291701652635
13.917812,3.9055947375484052,0.12878880724431271
13.920191999999998,3.9245429139680663,0.12852030145934318
13.922588,3.9424201552010887,0.12828035233345783
13.924976,3.9638822890463645,0.12797303848689337
13.927359999999998,3.9844132573318616,0.1276900424524434
13.929756,3.996004657071913,0.12763179945750588
13.932144,4.005873495319268,0.12759757954017686
13.934527999999998,4.01802397356676,0.1274877297227732
13.936932,4.034458192560806,0.1272574588235311
13.939316,4.052242885995211,0.12697102663477125
13.9417,4.075614572788286,0.12658272958401268
13.944096,4.098055094021582,0.1262178443715471
13.946484,4.115839787455988,0.12593871169221785
13.948864,4.130830984211059,0.12571413227651632
13.95126,4.148243590593125,0.12540647128109464
13.953648,4.165004570669135,0.12508981304069736
13.956032,4.17883228443895,0.124840321109827
13.958436,4.19480186858204,0.12453612356976332
13.96082,4.2089091216055765,0.1242710249205398
13.963204,4.219943338696057,0.12408198809223593
13.9656,4.2281840591072015,0.12394337641566029
13.967988,4.237915023585565,0.12374228363798588
13.970372,4.251138332877564,0.12343275719094957
13.972764,4.2646411814232845,0.12310155925475409
13.975152,4.278423569222725,0.12274990562274601
13.977536,4.298491798515137,0.12224106426662062
13.979932,4.3164181574342715,0.12178047588582602
13.98232,4.332482185233849,0.12135716744883299
13.984699999999998,4.343471076353955,0.12105560516983391
13.9871,4.3543201978472,0.12076835976378476
13.989488,4.358790930048857,0.12058139706585698
13.991867999999998,4.361678870384679,0.12040228652754267
13.994268,4.370712882586611,0.12008438530747252
13.996656,4.380817829975181,0.11973867460198653
13.999035999999998,4.389060446244196,0.11942704659429498
14.001432,4.399956789565684,0.11908295734100949
14.00382,4.4109929025140335,0.11872540992222733
14.006216,4.417373187663491,0.11844518214545943
14.008612,4.420820206506754,0.11822094219395606
14.011,4.422404894230459,0.11802488016095344
14.013384,4.426271221954302,0.11776282637010556
14.01578,4.42585380893159,0.11760954238525057
14.018168,4.423294525535601,0.11751053777098544
14.020552,4.423808278072668,0.11734503633689464
14.022948,4.42124899467668,0.11724630803927467
14.025336,4.41389411385494,0.11723171270485937
14.027716,4.416037880086086,0.11699707294225173
14.030112,4.418321415944092,0.11675152441768762
14.0325,4.418742620682543,0.11653241620371999
14.03488,4.419443364674712,0.1162917455820302
14.03728,4.4198645694131615,0.11607184461393436
14.039668,4.42093740045767,0.11586008183264236
14.042048,4.418937195569123,0.11571534020381663
14.044444,4.418147695494073,0.11553423883093236
14.046832,4.41307445467247,0.11545426072202515
14.049212,4.404276551611753,0.11543123093453152
14.051608,4.401065641909707,0.11532318969469824
14.053996,4.399577293700357,0.11519811397549018
14.05638,4.401022211797203,0.11501909977281291
14.058776,4.406331561760022,0.11477060862458939
14.061164,4.415505343588813,0.11446087611116759
14.063548,4.426820995790882,0.11409884186972169
14.065952,4.43892804392587,0.11373571746197395
14.06834,4.443818085008108,0.11352644413830439
14.07072,4.45257255795632,0.11325131467552776
14.073116,4.463980757957007,0.11294561212981906
14.075504,4.469103116464723,0.1127827269459551
14.077884,4.473945935718717,0.1126421849423524
14.080284,4.482653186838685,0.11243694379531768
14.082672,4.491220668331794,0.112244847541911
14.085052,4.504071890571456,0.11195737351856169
14.087448,4.518925213557536,0.11163548930652531
14.089836,4.5347097021033935,0.11130277767353972
14.09222,4.547001845835615,0.11106233686919272
14.094616,4.566371226993725,0.11068717894629562
14.097004,4.589744809644669,0.11023981430156071
14.0994,4.605529298190526,0.10990900741343844
14.101795999999998,4.624666361923161,0.10950299256923825
14.104183999999998,4.643291568976596,0.1090802339519026
14.106564,4.661265149723973,0.10865084263736889
14.108964,4.6704389315527655,0.10836508117184344
14.111351999999998,4.67868154782178,0.1080911628937829
14.113736,4.688134868904292,0.10778711822522541
14.116132,4.696936563680747,0.10746724125866762
14.118519999999998,4.702013596218089,0.10719678219121427
14.1209,4.705368067262733,0.10694016527363863
14.1233,4.7033678623741855,0.10679663289702343
14.125687999999998,4.70043649192586,0.1066653948179562
14.128072,4.695503020731117,0.10656999957218924
14.130468,4.689498614349735,0.10649783385015185
14.132856,4.682283503154855,0.1064587778312231
14.13524,4.6724146649075005,0.10644463355016945
14.137636,4.660543725913729,0.10646501604967988
14.140028,4.651094196546955,0.10641892842078864
14.142408,4.638711400873986,0.10641813420678004
14.144804,4.623255569267963,0.10647312512924606
14.147192,4.610872773594993,0.10647182478655776
14.149575999999998,4.592204136429052,0.10659399106014344
14.151972,4.575258060755807,0.1066996867325153
14.15436,4.56017431620212,0.10677957721220137
14.156743999999998,4.550957104260824,0.10676992467249266
14.159144,4.5457440938123606,0.10669307432762329
14.161532,4.536526881871064,0.10668179166839216
14.163911999999998,4.536249238475213,0.10652824883363929
14.166312,4.539836026945334,0.10632040500234621
14.1687,4.547566786535151,0.10604010997964905
14.171084,4.565867128364493,0.10555910320704097
14.17348,4.589382376500167,0.10499006892407503
14.175868,4.617181365382394,0.10434413047653597
14.178252,4.644188958331704,0.1036975030586088
14.180648,4.671196551281014,0.10305609459208831
14.183036,4.695782734603327,0.10246933312753898
14.185415999999998,4.72036891792564,0.1018791614384383
14.187816,4.744675561994232,0.10131088298507074
14.190204,4.768842436435962,0.10075353075067967
14.192583999999998,4.798084447557165,0.10012045588175657
14.194988,4.826767380170928,0.09952803245159839
14.197376,4.8622480109568595,0.0988439893290558
14.199756,4.895447001742655,0.09821613558168234
14.202152,4.925433186968532,0.09765207064630298
14.204536,4.951135631447857,0.097169085509561
14.206916,4.974416666300185,0.09675300126934391
14.20932,5.0035642337649024,0.09626163356488265
14.211708,5.029359226042844,0.09585109792920679
14.214088,5.050730707947372,0.0955265843982229
14.216484,5.068470075411403,0.09529191827134446
14.218872,5.079644062128742,0.09518283800052446
14.221251999999998,5.084252668099392,0.09519511006221879
14.223648,5.086300094816183,0.09527233324387437
14.226036,5.094074284518506,0.09528817286567527
14.228416,5.101708704593967,0.09531358715571299
14.230816,5.115349426908677,0.09525974831418507
14.233199999999998,5.134716912208917,0.09514765924166205
14.235584,5.157157433442214,0.09499465320907398
14.23798,5.182670990608567,0.09480164570478025
14.240367999999998,5.203900807028365,0.09468064514282858
14.242748,5.226481097888522,0.0945248927229707
14.245143999999998,5.246267892069343,0.09439660731435562
14.247532,5.269267491810081,0.09422052424964172
14.249928,5.295200357857013,0.09401255816460931
14.252324,5.324346029463861,0.09375342994034051
14.254708,5.351769139578013,0.09350063639441455
14.257091999999998,5.372115012266277,0.0933385125196212
14.259488,5.3885964530885655,0.0932160109873229
14.261872,5.407499303537852,0.09304086608910672
14.264252,5.424679592494444,0.09287057874774464
14.266652,5.445212456637809,0.0926414278563463
14.269035999999998,5.467095795221535,0.09237396145194811
14.27142,5.487256572312563,0.0921134051293604
14.273815999999998,5.495684284178811,0.09198538123480582
14.2762,5.502249664925502,0.0918736848207579
14.278596,5.508023649739275,0.09176298174665373
14.280996,5.509421346007877,0.09167542887632607
14.28338,5.505604135970147,0.09166164305315085
14.285764,5.497642954812724,0.09170448158588548
14.28816,5.487959212162603,0.09175456103143835
14.290544,5.478415239139343,0.09179499362304093
14.292927999999998,5.46514660387697,0.09186611117228595
14.295324,5.446011436002205,0.09199995911609507
14.297712,5.425433245888464,0.09212083541774178
14.300092,5.404855055774724,0.09224001702084424
14.302488,5.3893520023404555,0.09229442778331447
14.304875999999998,5.38027456002602,0.09225341061464007
14.307256,5.376551793644775,0.09213342023792798
14.309656,5.376972998383225,0.09196056662115415
14.312043999999998,5.382748879054869,0.09171140261085126
14.314428,5.385731263047177,0.09148391816497159
14.316824,5.3919264525994,0.09121174087925851
14.319211999999998,5.401334447711539,0.09089542097971133
14.321608,5.42168411211554,0.09046064816892346
14.324004,5.44324448133304,0.09000213515043944
14.326392,5.459869483497927,0.0895943015868767
14.328772,5.475144011222456,0.08921857108396766
14.331168,5.4941904230143415,0.08876400447992507
14.333556,5.5127249781270296,0.08828834560197496
14.335935999999998,5.534612108426493,0.08775915620896967
14.338336,5.553565972419761,0.08725894573757548
14.340724,5.575173563465507,0.08674394432948433
14.343104,5.599854190444304,0.08618876226108889
14.3455,5.624395047796242,0.0856447274098507
14.347888,5.648284278842122,0.08509374382449163
14.350272,5.665236042088974,0.0846171375095838
14.352672,5.67324823679038,0.08423209142724535
14.35506,5.675114359625675,0.08392062390225832
14.35744,5.674047216154775,0.08363974336368857
14.359836,5.667904936004402,0.08341524937382433
14.362224,5.659481015853894,0.08322696587691254
14.364603999999998,5.649054994956966,0.08305923363555268
14.367,5.634624772567206,0.08293177327039165
14.369388,5.61847198868475,0.08280687979671017
14.371784,5.60446107517557,0.08265326399354138
14.37418,5.593523197599447,0.08246555503694036
14.376568,5.58486696002346,0.08224178598922195
14.378948,5.572718377633836,0.08207484555314126
14.381344,5.56257189599063,0.08188763333765967
14.383732,5.551074939907065,0.08172991329009978
14.386112,5.5435821853163345,0.08153382055413896
14.388512,5.5386506099794595,0.08128714251144997
14.390896,5.533579265015726,0.08104845759478825
14.39328,5.530370251171551,0.08080004333977955
14.395676,5.527952633260291,0.08055493125245577
14.398064,5.531541317588283,0.0802557486528793
14.400448,5.543650261581139,0.07990115474322976
14.402844,5.557761306320414,0.07952564789681758
14.405232,5.5663779054996345,0.07922243985890536
14.407612,5.579929871731467,0.07887879247995641
14.410012,5.597625809082994,0.07848909422222089
14.4124,5.615181976807659,0.07810851396746382
14.41478,5.636462806771439,0.07770814693723704
14.417176,5.655322227108221,0.0773532060289811
14.419564,5.672691403377783,0.07703863616646034
14.421948,5.691922910766904,0.07671702325108098
14.424344,5.70579974222283,0.0764576429892994
14.426732,5.72447217110451,0.07616705600133696
14.429116,5.748591823717997,0.0758616796280892
14.431512,5.772571706704626,0.07556453356067717
14.4339,5.796411820064394,0.07527978563512211
14.436279999999998,5.818482150103224,0.0750490938313169
14.438676,5.84162341532869,0.0748079336223166
14.441068,5.860900248688184,0.07459282039348816
14.443464,5.876033110927984,0.0744173886891462
14.445863999999998,5.885019901301671,0.0742988564177991
14.448251999999998,5.892284130182664,0.07418256256853449
14.450636,5.903552560556488,0.07403563585902194
14.453027999999998,5.920315436490368,0.07382133867245408
14.455416,5.934005276491193,0.0736368020750678
14.457796,5.9476951164920155,0.07345390274454816
14.460192,5.961524726119699,0.07326415631896005
14.46258,5.970698507948492,0.07309417585387784
14.46496,5.980012059404146,0.0729168561202739
14.467356,5.987603049367102,0.07274003272680213
14.469744,5.993331708210501,0.07257208409317871
14.472124,6.005346208546872,0.07234315838557422
14.474528,6.0137758162709885,0.0721234511556893
14.476916,6.0146163298900195,0.07194277700990788
14.4793,6.016947087576269,0.07172956038563101
14.481696,6.012340377463489,0.07156313020728446
14.484084,6.004288544365318,0.07139612335058285
14.486468,5.994094840893868,0.0712510961076562
14.488864,5.988836504475032,0.07107316901388191
14.491252,5.989864009549165,0.0708370154804769
14.493632,5.99731712574313,0.07053592957874348
14.496028,6.002768141190678,0.07024963608987789
14.498416,6.00621705589181,0.0699799215372191
