Time,Force,Position
13.192052,0.09153281019518175,0.0
13.194432,0.08808768720978888,0.0
13.196827999999998,0.08329208978403707,0.0
13.199215999999998,0.08049859310470212,0.0
13.2016,0.08091790198528273,0.0
13.203992,0.0824081460525019,0.0
13.20638,0.0859004908661379,0.0
13.20876,0.09218633235910889,0.0
13.211156,0.09446797235924616,0.0
13.213544,0.10154520978513526,0.0
13.215924,0.1066203464646075,0.0
13.21832,0.11341804463677614,0.0
13.220708,0.11886526836858585,0.0
13.223104,0.12137922579420041,0.0
13.225508,0.126035053593092,0.0
13.227892,0.13069088139198362,0.0
13.230272,0.13562624844459562,0.0
13.232676,0.13762834919101247,0.0
13.235064,0.13562624844459564,0.0
13.237448,0.1297597158322053,0.0
13.239844,0.12524365766017392,0.0
13.242232,0.11965666430150397,0.0
13.244611999999998,0.11592742236830055,0.0
13.247008,0.11219818043509712,0.0
13.249396,0.10539590256883831,0.0
13.251776,0.09845385507571928,0.0
13.254172,0.08950970683618341,0.0
13.25656,0.08056555859664753,0.0
13.258944,0.07269234554375019,0.0
13.26134,0.06188586618465766,0.0
13.263728,0.053081487571982,0.0
13.266108,0.04227500821288949,0.0
13.268503999999998,0.032679233667295714,0.0
13.270891999999998,0.025085559868118786,0.0
13.273276,0.018423051628720183,0.0
13.275676,0.012831478575960112,0.0
13.278059999999998,0.0060292007097013,0.0
13.28044,0.002160189149637658,0.0
13.282836,0.00029327833599086746,0.0
13.285224,0.00028869864190071834,0.0
13.287604,0.00014434932095035917,0.0
13.29,0.0,0.0
13.292388,0.0,0.0
13.294783999999998,0.0008885234256253194,0.0
13.29718,0.00498985241116623,0.0
13.299568,0.00909118139670714,0.0
13.301948,0.010119474449192669,0.0
13.304344,0.015151968994511898,0.0
13.306731999999998,0.02018446353983113,0.0
13.309112,0.024146022898511827,0.0
13.311516,0.02610548151077568,0.0
13.313904,0.02913587530967806,0.0
13.316284,0.031235103548802122,0.0
13.31868,0.03654713734784177,0.0
13.321068,0.04171940152002121,0.0
13.323452,0.04689166569220065,0.0
13.325848,0.05206392986438009,0.0
13.328236,0.05481478440956205,0.0
13.330616,0.05914843082058023,0.0
13.333011999999998,0.06208438096299631,0.0
13.335399999999998,0.06827846263570188,0.0
13.337784,0.07530926621169948,0.0
13.340179999999998,0.08811215874360113,0.0
13.342567999999998,0.10337720717878401,0.0
13.344948,0.11715011568887848,0.0
13.347344,0.13585649539371572,0.0
13.349732,0.16950685002538005,0.0
13.352128,0.2071595102920088,0.009088122975083195
13.354524,0.25081657694001885,0.018064847119130187
13.356912,0.30261992034268725,0.026793309559325802
13.359291999999998,0.36215023161943344,0.0355639407406236
13.361692,0.4251237700237032,0.04454902293404546
13.36408,0.4975468377947472,0.053302268196955806
13.366459999999998,0.5694089312004811,0.06239330245438924
13.368856,0.6472754309875962,0.07145468688456623
13.371244,0.7300754019694542,0.08056059067914859
13.373624,0.8175293048923346,0.0897707814300698
13.376024,0.9152713549431504,0.09879346275910894
13.378412,1.0178543283900916,0.10768575810942982
13.380792,1.1290973311287584,0.11630819344386503
13.383188,1.2427617434944227,0.12473799851000945
13.385576,1.3604775791811639,0.1330133729973704
13.387956,1.4705117729642012,0.14149658553830138
13.39036,1.5784985400304476,0.1499817717748119
13.392748,1.687558138141202,0.15833299534658357
13.395128,1.7936863658036304,0.16657592689791276
13.397528,1.885010388166092,0.17497114469773822
13.399912,1.966186033027478,0.17441494876128788
13.402296000000002,2.0422884370672616,0.17392438224246953
13.4047,2.1147606225244178,0.17355039539896913
13.407088,2.1832305023466096,0.17307101688646906
13.409468,2.2481173854144174,0.17233526274436414
13.411864,2.3066277750485065,0.17170641053179092
13.414252,2.3644884342344077,0.17063973143179234
13.416636,2.4169963133449848,0.16962669225916205
13.419032,2.4632202468204603,0.1686716867150877
13.42142,2.5054418746609715,0.16761490854835542
13.423799999999998,2.5447321320531566,0.16651318987163155
13.4262,2.576527738996741,0.1655992317935805
13.428584,2.6006417040366223,0.16501639141219818
13.430967999999998,2.6195879845984136,0.16464955208700086
13.433364,2.6330870414283956,0.1645191903928469
13.435752,2.6490075078853743,0.164203980515271
13.438135999999998,2.664276348036296,0.16388914905888016
13.440532,2.677543087440801,0.16369027535731495
13.44292,2.6895991220318063,0.16358189089144096
13.4453,2.704169114048426,0.1633819503607149
13.4477,2.7213928331175214,0.16306772891953938
13.450088,2.740339113679313,0.16270605258937565
13.452468,2.7557005016288514,0.16249586532919127
13.454864,2.7705500328991928,0.16227262987965857
13.457252,2.7856791034232535,0.16201631271437664
13.459636,2.794522332454344,0.1620915688354082
13.46204,2.8032257918585732,0.16219169497303815
13.464424,2.8114173945836054,0.16226783101055628
13.466804000000002,2.8238927380551915,0.1621129567459441
13.4692,2.8407915919001927,0.161727937931134
13.471588,2.848890646826608,0.16172952691702694
13.473971999999998,2.8591315721263,0.1616202998962984
13.476368,2.8710025111200723,0.16137848245993996
13.478756,2.885714168621422,0.16094211704414577
13.481152,2.901124674257073,0.16040564691033876
13.483548,2.917373797653885,0.1597612339424548
13.485936,2.937394805118053,0.15890815738226857
13.488316,2.955041624783467,0.15809651567084804
13.490712,2.9760410196356584,0.1571383848268606
13.4931,3.0016036944881224,0.15596342786204595
13.495484,3.0287963830346665,0.15468291744661364
13.49788,3.056268610834931,0.15340592653279525
13.500264,3.0822978163962187,0.15212654777707085
13.502643999999998,3.1079077130769264,0.1509146900929877
13.505044,3.132958531250193,0.14978475248090767
13.507428,3.1680198531555446,0.14827703135231304
13.509811999999998,3.200287678381561,0.1468671949945482
13.512208,3.232555503607577,0.14545735863678338
13.514596,3.2629609977140364,0.14413833114725616
13.516992,3.2873601895812454,0.14306955381006103
13.519388,3.3193484755535407,0.14175754406539984
13.521776,3.351848618205034,0.14048475861479162
13.52416,3.3856520134686434,0.13924815548814679
13.526556,3.4166146902246743,0.13820441610828813
13.528944,3.4503708636600403,0.13710233044948653
13.531328,3.4880840167599962,0.13599326418420768
13.53372,3.521745746538876,0.13512510971115846
13.536104,3.561646095982484,0.13413814569404278
13.538488,3.593910129492762,0.13343919755262343
13.540892,3.623892523002903,0.13285760725336163
13.543276,3.654247003565381,0.13232858130349692
13.545656,3.6823198441277216,0.13189665997326427
13.548052,3.7154205995412903,0.13139921031900492
13.55044,3.7514546212610553,0.13083889778078336
13.55282,3.7897702829809576,0.13020730648957685
13.555216,3.821939872834749,0.12977153372411096
13.557604,3.857414816047073,0.12929872492026792
13.56,3.8959627951924523,0.12875180960339394
13.562396,3.9351624006438892,0.12822196895798033
13.56478,3.975944797961163,0.12767709034775804
13.56716,4.011652058598964,0.12727326264939315
13.569564000000002,4.048709793677124,0.12682317131564758
13.571948,4.083253571329671,0.1264082303927855
13.574328,4.114212456369963,0.1260440416790926
13.576724,4.1431692406638385,0.12573981449358893
13.579112,4.165235778986928,0.12553652268471302
13.581496,4.1830657983917074,0.1253781844486641
13.583899999999998,4.194889515557236,0.1253695685186516
13.586284,4.214209779029233,0.12514408760559517
13.588664,4.226592574702202,0.12508056220993657
13.59106,4.2347388514568625,0.12507084481073164
13.593448,4.240231401159045,0.12510282071873763
13.595828,4.238414396009863,0.12527096881956284
13.598232,4.229148066382454,0.12558888421176012
13.60062,4.214015204142654,0.12604534442268042
13.603,4.198090945969936,0.12651149301235626
13.605403999999998,4.180723665558242,0.12697121725600538
13.607791999999998,4.160003809959773,0.12753234329821747
13.610172,4.139423723988163,0.12807282932682523
13.612568,4.119123177270274,0.1285854192557379
13.614956,4.102035436112301,0.12900597634552444
13.617336,4.0808037238346335,0.12953368959937606
13.619739999999998,4.05743014118369,0.13012928411489633
13.622124,4.0383402992793,0.13060483670587655
13.624508,4.01831929181513,0.13109683171336342
13.626904,3.99881014103016,0.13161385246119967
13.629292,3.983165422111163,0.13205131931951694
13.631672,3.969802343192303,0.13241389320660846
13.634068,3.950293192407332,0.1329382365263278
13.636456,3.9397236101678064,0.13324355402635066
13.638836,3.930736819794117,0.1335389840461721
13.641239999999998,3.924683295726624,0.1337651916948925
13.643628,3.928360736137494,0.13376075125560796
13.646008,3.9397670402803113,0.13357921934774844
13.648404,3.95596894184888,0.13328780895683048
13.650788,3.9723106130443093,0.13297980690601338
13.653172,3.983856686813987,0.13277795351738064
13.655568,3.9947511342776063,0.13256746037518155
13.657956,4.002060689128973,0.13242307491021343
13.660348,4.005645581741226,0.13235684020003968
13.662752,4.0037832506216695,0.13239689666594504
13.665136,4.001409062822915,0.13241752281579441
13.667516,4.0026669894646565,0.13229603791612862
13.66992,4.002714211292901,0.13222215617658906
13.672308,4.00490330349442,0.13208213387927906
13.674688000000002,4.011376136442494,0.13181150636725955
13.677084,4.019059674204068,0.1314965219723203
13.679467999999998,4.026371124913302,0.13115088722949872
13.681848,4.037035150809314,0.13069321573039233
13.684247999999998,4.043183118533293,0.13032384088900703
13.686632,4.049890164764715,0.12990309895224392
13.689012,4.05529395838402,0.12946949857629536
13.691408,4.052177492338459,0.1292189453903707
13.693796,4.042123558493871,0.12913498587073619
13.696191999999998,4.030626602410306,0.129047581167288
13.698588,4.021411286326878,0.12888542721617044
13.700976,4.017410876549783,0.1285816520165734
13.703356,4.0127588404666295,0.12826883508661605
13.705752,4.009969135503034,0.12791825792210376
13.708139999999998,4.011043862405411,0.1274795010275676
13.71052,4.019056057106817,0.1268728890987066
13.712915999999998,4.030932683674196,0.1261813252422721
13.715304,4.041319066174356,0.1255639911736841
13.717684,4.051705448674516,0.1249466571050961
13.720083999999998,4.059018795241622,0.12441177063360373
13.722472000000002,4.060046300315756,0.12404849991977925
13.724852,4.062004970949668,0.12367100323890445
13.727248,4.063264793449279,0.12335717092787458
13.729636,4.063453680762252,0.12307428321360823
13.732031999999998,4.064154424754422,0.12281137099050417
13.734428,4.06536702542579,0.1225699432812515
13.736816,4.064809842776218,0.12241981565106343
13.739196000000002,4.068908487925539,0.12218332646517734
13.7416,4.074729694567555,0.12192078409615759
13.743988,4.07999182270213,0.1217099176531199
13.746368,4.084834641956125,0.12153923551643063
13.748764,4.089118382702679,0.12142053935420233
13.751152,4.0996407431139605,0.12121089159933429
13.753531999999998,4.109743794644662,0.12103832810603644
13.755928,4.120917781362001,0.12084035283290871
13.758316,4.130601524012123,0.1207130089922066
13.760696,4.1372122307291885,0.12065879879291157
13.7631,4.14461433337917,0.12060101144092579
13.765488,4.151085270469377,0.12055871277531421
13.767867999999998,4.159418538679138,0.12048461838400326
13.770264,4.173897878755011,0.12026649685867964
13.772652,4.183022542897691,0.12018781238452139
13.775032,4.191355811107452,0.12011221484645404
13.777432,4.199409540063493,0.12006102387300033
13.779816,4.209465369765952,0.11996627881383087
13.782196,4.21966096909527,0.1198609544548637
13.7846,4.23493170510406,0.11964068522039
13.786988,4.246989635552937,0.11950441218140236
13.789368,4.259327105255532,0.11934161762962683
13.791764,4.270453870144628,0.11921686932699005
13.794152,4.280509699847086,0.11912073533581988
13.796532,4.293918104736321,0.1189331073361138
13.798927999999998,4.297595545147191,0.11893813022976443
13.801315999999998,4.303554625558198,0.11887613302977548
13.803712,4.307092296342208,0.11889342294869217
13.806108,4.308627866379801,0.1189534907327267
13.808496,4.3129569330967295,0.11896737769062568
13.810876,4.315703207947821,0.11898842433000352
13.813276,4.322313914664886,0.1189370814331417
13.81566,4.329064391008812,0.11887495573702835
13.818044,4.329668795486627,0.118949740424031
13.820436,4.336559041457413,0.11887574957120556
13.822824,4.345311618547756,0.11877158135481451
13.825204,4.355414670078456,0.11861831076851907
13.8276,4.3648660953031,0.11845937213545463
13.829987999999998,4.371244484594689,0.1183673225142312
13.832384,4.376691708326497,0.11829211849976512
13.83478,4.385631276871942,0.11811755042192862
13.837168,4.39964598209686,0.11784141729762876
13.839548,4.418503506575774,0.11742262768234434
13.841944,4.439642671054823,0.11694611602552117
13.844328,4.454635763667763,0.11660062672618754
13.846711999999998,4.479918899266507,0.116041211126437
13.849108,4.5045504085591945,0.11548208494725913
13.851496,4.529880765986181,0.1148688046382202
13.853876,4.556561597853527,0.11421205423124331
13.85628,4.581519868228177,0.11357594320326936
13.858664,4.61020280084194,0.11289295381164155
13.861047999999998,4.635021301589729,0.11227784534557601
13.863444,4.6610505071510175,0.11163742283296868
13.865832,4.6972299860712505,0.11081764964753534
13.868212000000002,4.734620169804981,0.10998882557097457
13.870608,4.774291993538851,0.10911855371178339
13.872996,4.814755213205637,0.10825793267177689
13.875392,4.8522851665662285,0.1074431895495708
13.877792,4.89689235735271,0.10651659139380976
13.88018,4.937774885900077,0.1056383754300244
13.88256,4.975444608887528,0.10483030106077142
13.884956,5.012183166315202,0.10405542569137025
13.887344,5.047431479675657,0.10334666173339395
13.889724,5.079886296356777,0.10267452728069576
13.89212,5.116764623411312,0.10191517989462985
13.894508,5.1468452522936765,0.10125729574033995
13.896892,5.1767861115491804,0.10061616853471073
13.899292,5.208449532297382,0.09997217450318721
13.901676,5.239042017858945,0.09935118804236856
13.90406,5.267911941927811,0.09873877173569515
13.906456,5.290263707078229,0.09819300925526742
13.908844,5.313034781109228,0.09761781796850166
13.911224,5.326586747341061,0.09717955694138887
13.91362,5.329476583534752,0.0968783456716907
13.916012,5.322355915996358,0.09671768555012374
13.918392,5.306435449539379,0.09666986588895653
13.920788,5.286930090470147,0.09664935845201418
13.923176,5.2703579977071096,0.09659046423970571
13.925555999999998,5.244054940465709,0.09665246013317248
13.927952,5.219893753597584,0.09667594484424288
13.93034,5.1978744371027386,0.09666097415648
13.932724,5.166775782435586,0.0967789381930871
13.93512,5.127948264036485,0.0969960903834557
13.937508,5.0869788752641085,0.09725519258310862
13.939892,5.042517141678095,0.09758796354994217
13.942288,5.001500531077476,0.09789973193505463
13.944672,4.958202280476719,0.09825893267151924
13.947068,4.911830993942906,0.0986627943007647
13.949464,4.864668311476174,0.09906511264562615
13.951852,4.8188088816215595,0.09949045664957272
13.954236,4.782540646618448,0.09979491153010034
13.956632,4.7487863690409515,0.10008641883176302
13.95902,4.727836091874874,0.10021154200498057
13.9614,4.709399772134411,0.10033098207386272
13.963796,4.697481611312397,0.10038694642353545
13.966184,4.696737437207721,0.10032792937860592
13.968568,4.6983674509018005,0.10026939657268233
13.970964,4.700509321275078,0.10023102987977138
13.973352,4.712102616872997,0.10008849028167399
13.975732,4.724859395456174,0.09997682383700443
13.978132,4.733332433292795,0.09994083308272048
13.980516,4.750465500421143,0.09979790323634578
13.982912,4.7782606975876325,0.09951916406746081
13.985307999999998,4.81257405367257,0.09917384228354591
13.987696,4.847958344944147,0.09880676641857622
13.990076,4.882691009909665,0.09843550675429678
13.992472,4.920636480435099,0.0980084086366693
13.99486,4.959513116520311,0.09757013834685872
13.99724,5.000112314098218,0.09712520980970538
13.999636,5.043412460556845,0.0966079271513148
14.002024,5.077912808096886,0.0962115162794784
14.004408,5.111202450823429,0.09584749505334936
14.006804,5.137973934631523,0.09555466638670781
14.009192,5.165956123253116,0.09523305618341646
14.011572,5.195428555941927,0.09486959792445662
14.013968,5.218522599339152,0.09456318979492244
14.016356,5.241104786057178,0.09423897613879334
14.018752,5.261452554603311,0.0939051091069418
14.021147999999998,5.277284264977411,0.0936090978806054
14.023535999999998,5.289950391619838,0.09330945906689594
14.02592,5.305969093449043,0.09294616611402913
14.02832,5.318682441919715,0.09259119042448107
14.030708,5.324598092218218,0.09231355507285073
14.033091999999998,5.3259976843446895,0.09206840229287551
14.035488,5.32753704609802,0.09181438130938005
14.037876,5.329076407851352,0.09156167437417334
14.040256,5.327542733671629,0.09135044341059453
14.042656,5.325357433185846,0.09112883722263337
14.045039999999998,5.321170031953647,0.09093145344429986
14.047424,5.312698889974895,0.09079979480316996
14.04982,5.307161014302337,0.09063583226937937
14.052207999999998,5.303253152323859,0.09042062317548395
14.054588,5.2999969166514385,0.0902152609230608
14.056983999999998,5.299813716912074,0.0899711854746603
14.059376,5.297348877172572,0.08976885488276669
14.061756,5.2958152029928485,0.08955897657533629
14.064151999999998,5.294141759186264,0.08935791222686487
14.066539999999998,5.292049006499099,0.08918250202112063
14.06892,5.2887455489984365,0.08903153515184449
14.071316,5.289306523363747,0.08884333390742022
14.073704,5.294011468848751,0.0886033851019559
14.076088,5.3002992061995915,0.08836754558632025
14.078484,5.308728813923707,0.08810006311745106
14.080872,5.321302392767518,0.08778203960975416
14.083256,5.332153410118634,0.08746831016617929
14.085652,5.341002326723332,0.08717729611619628
14.08804,5.351061948141528,0.08686223224635031
14.09042,5.36284413105242,0.08654324036795313
14.092816,5.376488645082871,0.08621099314320463
14.095204,5.393206195046375,0.08584152676977916
14.097588,5.4140677161295745,0.08542576445673405
14.099984,5.431716431652857,0.08505767636588556
14.102372,5.446711420123666,0.08469812956780716
14.104756,5.455560336728364,0.08441141230845463
14.10716,5.462686691840366,0.08412792373684709
14.109544,5.470092586206088,0.08382815021204705
14.111928,5.476707084638892,0.08352611801878232
14.114323999999998,5.485463453444972,0.08319493696120457
14.116712,5.494219822251053,0.08286240573912683
14.119092,5.5008343206838575,0.08256146634747774
14.121496,5.502885539116386,0.08233814686616427
14.123884,5.506799088668472,0.08210478814721278
14.126264,5.511643803780336,0.08186650946460015
14.128659999999998,5.512204778145647,0.08168558965352853
14.131052,5.515419479563431,0.08149568402480786
14.133432,5.519565346540994,0.08129992820419316
14.135827999999998,5.522640278331919,0.0811180634901847
14.13822,5.526646375682622,0.0809318180131752
14.1406,5.527998745980851,0.08075383134193387
14.142995999999998,5.530142512211997,0.08057966334939275
14.145383999999998,5.5237187969500345,0.080514591953942
14.147764,5.51915741280763,0.08043848362560438
14.15016,5.519112086837255,0.08034318973715766
14.152548,5.525073063106131,0.08019082612698131
14.154932,5.538762903106956,0.07998152147772299
14.157328,5.5538957653467556,0.07978759321245554
14.159712,5.569400714638893,0.07962022332546838
14.162112,5.5836949591175316,0.07947510266126798
14.164508,5.599060138782808,0.07931658227124874
14.166896,5.615356484007863,0.07915381614632047
14.16928,5.6308614333,0.0789875015959516
14.171676,5.641570785166385,0.07885570982886768
14.174064,5.650929662592412,0.07875357800419076
14.176443999999998,5.660288540018438,0.07865093719402597
14.178848,5.67258068375066,0.07852697595717915
14.181236,5.68552445378894,0.07841419723847712
14.183616,5.7012617205065546,0.07828720713474495
14.186012,5.714205490544834,0.07817585012762295
14.1884,5.732876023568643,0.07802867242235358
14.190779999999998,5.747682124726479,0.07790903376048966
14.193176,5.769984772190785,0.0776995001109804
14.195568,5.792147650028231,0.0774992339270711
14.197947999999998,5.813658901559619,0.07729035181661453
14.200344,5.829303620478616,0.0771261600464351
14.202732,5.836148540479027,0.07702881841482147
14.205112000000002,5.841410668613603,0.07692587953871483
