Time,Force,Position
14.70788,0.13226965369827187,0.0
14.710276,0.14366665267958836,0.0
14.712671999999998,0.1559587964118099,0.0
14.715063999999998,0.16690046570367248,0.0
14.717443999999997,0.17448955980875927,0.0
14.719839999999998,0.1783539916747328,0.0
14.722227999999998,0.17886584835393046,0.0
14.724608,0.17858630910021003,0.0
14.727003999999996,0.17802723059276918,0.0
14.729391999999995,0.17156559866406468,0.0
14.731776,0.16589536266827828,0.0
14.734171999999996,0.15743162999315696,0.0
14.736559999999995,0.14682602694475855,0.0
14.738944,0.1362204238963602,0.0
14.741339999999996,0.12485944572391698,0.0
14.743727999999996,0.11922523053700393,0.0
14.746108,0.10851587867061861,0.0
14.748503999999995,0.10274189385684533,0.0
14.750892,0.09789907460285037,0.0
14.753276,0.09706045684168911,0.0
14.755671999999995,0.09715300464030618,0.0
14.758063999999996,0.09580253019994721,0.0
14.760444,0.09151878945339308,0.0
14.762839999999995,0.08844575352033768,0.0
14.765227999999995,0.08672319202764124,0.0
14.767612,0.09179832870711346,0.0
14.770007999999995,0.09794440057322423,0.0
14.772395999999995,0.10567326430517121,0.0
14.77478,0.11046886173092305,0.0
14.777175999999995,0.12209817813771683,0.0
14.779563999999995,0.13079422823831544,0.0
14.781944,0.13841934315227553,0.0
14.784343999999995,0.1448337532527369,0.0
14.786731999999995,0.15217932891297656,0.0
14.789112,0.15762655264478626,0.0
14.791508,0.1592093445106225,0.0
14.793899999999995,0.16200284118995745,0.0
14.79628,0.15906957488376228,0.0
14.798679999999996,0.15506537339092857,0.0
14.801067999999995,0.14716071922324803,0.0
14.803448,0.13832489949578922,0.0
14.805847999999996,0.12827837495483166,0.0
14.808232,0.12023395116029097,0.0
14.810616,0.11218952736575026,0.0
14.813015999999998,0.10400533394434934,0.0
14.8154,0.09288787421675325,0.0
14.817784,0.08177041448915713,0.0
14.820179999999995,0.06893039326886462,0.0
14.822564,0.059163407981627475,0.0
14.824959999999995,0.047534091574833695,0.0
14.827355999999998,0.040596623775804815,0.0
14.829739999999996,0.03473009116341447,0.0
14.832124,0.02914309780474454,0.0
14.834519999999998,0.02248516925943609,0.0
14.836907999999998,0.017689571833684276,0.0
14.839288,0.014756305527489105,0.0
14.841691999999998,0.015035844781209525,0.0
14.844075999999998,0.015827240714127635,0.0
14.846459999999997,0.015547701460407216,0.0
14.848864,0.02210188118772877,0.0
14.851247999999998,0.028516291288190106,0.0
14.853627999999995,0.029995334336039424,0.0
14.856032,0.0336162477571658,0.0
14.85842,0.0341641252452368,0.0
14.860799999999998,0.0341641252452368,0.0
14.863196,0.03792480829322338,0.0
14.865583999999998,0.038752225035014805,0.0
14.867963999999995,0.04158174252322307,0.0
14.870359999999998,0.04348009445165302,0.0
14.872747999999998,0.04551821600694318,0.0
14.875128,0.046868690447302123,0.0
14.877532,0.05050080488779836,0.0
14.879915999999998,0.05799735119426806,0.0
14.882296,0.06591320638131841,0.0
14.884691999999998,0.07168719119509169,0.0
14.887075999999997,0.07545907526244812,0.0
14.889475999999998,0.07466767932953002,0.0
14.891872,0.0770890889565275,0.0
14.89426,0.08179213858366224,0.0
14.896635999999996,0.0786265548519898,0.0
14.899036,0.07867377668023295,0.0
14.901419999999998,0.08766056705392182,0.0
14.903803999999996,0.09036151593463973,0.0
14.906199999999998,0.09627527037527324,0.0
14.908583999999998,0.10366806786375604,0.0
14.910967999999995,0.10515831193097522,0.0
14.913363999999998,0.11158392305080639,0.0
14.915747999999995,0.11293439749116532,0.0
14.918148,0.1152160374913026,0.0
14.920544,0.11614720305108092,0.0
14.922928,0.11303814630915225,0.0
14.925311999999998,0.10764744956708629,0.0
14.927708,0.09932348651882515,0.0
14.930096,0.0907199842168436,0.0
14.932475999999998,0.0842583522881391,0.0
14.934872,0.07886765554607314,0.0
14.937259999999998,0.07575859880414446,0.0
14.939639999999995,0.07064744131579892,0.0
14.94204,0.06432557901395464,0.0
14.944423999999998,0.06093698301830553,0.0
14.946807999999995,0.05447535108960104,0.0
14.949203999999998,0.044009517668062846,0.0
14.951587999999996,0.03768765536621857,0.0
14.953988,0.03122602343751408,0.0
14.956384,0.02383322594903127,0.0
14.958772,0.01858229883382552,0.0
14.961156,0.011329270972202918,0.0
14.963552,0.007149279043635698,0.0
14.96594,0.0029692871150684783,0.0
14.96832,0.0,0.0
14.97072,0.0,0.0
14.973108,0.0,0.0
14.975488,0.0,0.0
14.977884,0.0,0.0
14.980272,0.0,0.0
14.982656,0.0,0.0
14.985048,0.0,0.0
14.987436,0.0,0.0
14.989815999999998,0.0,0.0
14.992216,0.0,0.0
14.994604,0.0,0.0
14.996983999999998,0.0,0.0
14.999388,0.0,0.0
15.001772,0.0,0.0
15.004151999999998,0.0,0.0
15.006548,0.0,0.0
15.008936,0.0,0.0
15.011332,0.0,0.0
15.013727999999997,0.0,0.0
15.016116,0.0,0.0
15.018496,0.0,0.0
15.020892,0.0014790430478493167,0.0
15.02328,0.002026920535920313,0.0
15.025659999999998,0.002435028397131099,0.0
15.028056,0.005776402564537058,0.0
15.030444,0.010980107851499657,0.0
15.032823999999998,0.014041942765185191,0.0
15.035228,0.014041942765185191,0.0
15.037612,0.01710377767887073,0.0
15.039991999999998,0.02044515184627669,0.0
15.042392,0.024717691573460966,0.0
15.04478,0.028990231300645243,0.0
15.047159999999998,0.028990231300645243,0.0
15.049556,0.03112090065455246,0.0
15.051944,0.03618483631465485,0.0
15.05434,0.04124877197475724,0.0
15.056735999999995,0.04524177244822109,0.0
15.059123999999995,0.04923477292168495,0.0
15.061504,0.05122567264873195,0.0
15.0639,0.05242517644286085,0.0
15.066288,0.052425176442860856,0.0
15.068668,0.05144678905483938,0.0
15.071064,0.05493723801060616,0.0
15.073452,0.06233744480272033,0.0
15.075831999999998,0.07294856129688086,0.0
15.078232,0.09100710641139868,0.0
15.08062,0.12065705126596776,0.0
15.082999999999998,0.16617093558777232,0.006831652560296315
15.085396,0.21420808249669204,0.013978683097220121
15.087784,0.26661962209291373,0.02146248820964887
15.09018,0.3256871943765746,0.028950194230801207
15.092575999999998,0.38992055528045555,0.03674031432343272
15.094959999999997,0.4720199563979889,0.04403597245878459
15.097344,0.5574340160355553,0.051517277336891314
15.099739999999995,0.6465708420543659,0.059051654032613164
15.102127999999997,0.7442260318801724,0.06653813912945136
15.104512,0.8511909814458929,0.07403362540073233
15.106907999999995,0.9682570866844453,0.08145833201954136
15.109295999999995,1.1004994842753022,0.08867900266731979
15.111676,1.2447053686585474,0.09581026012245994
15.114075999999995,1.402353782882031,0.10282026633648372
15.116463999999995,1.5692306100661813,0.1097697860283897
15.118848,1.7409955824747005,0.11665230237723836
15.121243999999995,1.915042194883357,0.12349797878376023
15.123631999999995,2.0830371790823885,0.13040879300435884
15.126016,2.2398600724219504,0.13736627549013833
15.128419999999998,2.3872334363947374,0.14432375797591782
15.130803999999998,2.520733760627336,0.14448828168185426
15.133187999999995,2.649160844038332,0.14435847203086802
15.135583999999998,2.7762393488668375,0.1438419163461847
15.137971999999998,2.896522051381044,0.1433128978208405
15.140355999999995,3.015782936394724,0.14234815735811748
15.142751999999998,3.119028911294939,0.14197982851124427
15.145139999999998,3.216410249440633,0.1414692800412414
15.14752,3.308578577137863,0.14090315462989464
15.149915999999996,3.393951102520794,0.14035393287662865
15.152303999999996,3.4702934074175316,0.13980397707688288
15.154684,3.534532455895021,0.1393849655540158
15.157079999999995,3.5843866079531232,0.1392224990555489
15.159467999999997,3.6229288995248945,0.13916409789327502
15.161844,3.6452239635577244,0.13935369124820074
15.164247999999995,3.652063195984528,0.13977333703688727
15.166635999999995,3.648754050910257,0.14029777975268096
15.169016,3.6386018816934436,0.14087024540216692
15.171412,3.626215294304736,0.14146509428252085
15.1738,3.617553369155141,0.14195778610858634
15.176195999999996,3.607820508818908,0.1424942365350506
15.1786,3.5968769436691765,0.1430976547608589
15.180988,3.5862129177731648,0.14366775443399124
15.183363999999996,3.575316574451676,0.14417130149673793
15.185764,3.5664223318766046,0.144602309270722
15.188147999999998,3.5523131829952,0.1452091776511592
15.190531999999996,3.5410447526213735,0.1456667464881065
15.192936,3.531266566314766,0.14603872685642105
15.195324,3.5192539618362653,0.14642393363136813
15.197703999999998,3.5027252991857325,0.1469208154236386
15.200108,3.4909922339609514,0.1472712875380296
15.202496,3.481401039109448,0.14754606653204924
15.204876,3.472229153138525,0.1477787417832872
15.207272,3.460124000861407,0.1481080504990845
15.20966,3.4520230500771225,0.14831061593879863
15.212039999999998,3.4517907326516455,0.14825851631158748
15.214436,3.452210041532226,0.1482109091482276
15.216824,3.4526293504128067,0.14816305584999453
15.219203999999998,3.457611939293662,0.14791186310768195
15.2216,3.459801031495182,0.14774220645124478
15.223988,3.464271763696839,0.14747159628408846
15.226367999999995,3.4722348407121326,0.14703891636418573
15.228763999999998,3.4787548954884504,0.14661292119777075
15.231151999999998,3.4803395832121558,0.14635457278383818
15.233532,3.473915867950194,0.14637507481044615
15.235936,3.470844727875008,0.1462500408269557
15.238324,3.465352178172824,0.1462427815188874
15.240703999999996,3.457997297351084,0.14628898883796024
15.243099999999998,3.4472898413425677,0.1464883240615413
15.245487999999998,3.4392361123865265,0.14662387862944545
15.247867999999997,3.4243846852583166,0.14698746728025533
15.250272,3.406739761450772,0.147441990355303
15.25266,3.388303441710309,0.14791396815315563
15.255039999999996,3.3742906323432607,0.14818990650457642
15.257444,3.360557362229932,0.1484306556338338
15.259828,3.346684322489743,0.1486781545348098
15.262211999999998,3.336443397190052,0.14873920187720382
15.264608,3.328204572636776,0.14872726610458023
15.266991999999998,3.3175443384565027,0.1488311487310915
15.269375999999998,3.30688410427623,0.1489373289791805
15.271772,3.2928712949091814,0.14919256893336427
15.274159999999998,3.2796498814750517,0.14942918846900277
15.276539999999995,3.2662886984140607,0.14968323170566272
15.278935999999998,3.25292751535307,0.14994449386349473
15.281323999999998,3.2484133530389077,0.14982058066124085
15.283704,3.2397552196050516,0.1498558700979508
15.286099999999998,3.233238956544472,0.14980385934631982
15.288487999999996,3.226722693483893,0.14975205015549423
15.290868,3.2298448471030605,0.1493001350609896
15.293267999999998,3.2324551440430307,0.1488251536866196
15.295655999999996,3.237207311356278,0.14825407240417654
15.298051999999998,3.245404601654918,0.14759755188483634
15.300452,3.2559760797523123,0.14690323308825445
15.30284,3.264405687476429,0.1463036063738391
15.305219999999998,3.274418087066383,0.14568732247254482
15.307616,3.279495119603724,0.14524395112718105
15.310004,3.2806604984468493,0.1450211020001095
15.312383999999998,3.2804754028496146,0.14487688272887883
15.314784,3.277357040946185,0.14483324970423692
15.317172,3.2750300749756738,0.14477827458800885
15.319551999999998,3.278988950498134,0.1444701384141631
15.321956,3.27894362452776,0.14430829011508323
15.324344,3.2815520256098614,0.14407981478162923
15.326724,3.288024858557936,0.1437231933186115
15.32912,3.291517203371572,0.14356005186603155
15.331508,3.2967321096779045,0.143356870602122
15.333892,3.3044609734098516,0.1431085014327778
15.336295999999995,3.3145640249405526,0.14282926226503587
15.33868,3.3198242572172587,0.14279239079941983
15.341064,3.3285296124793575,0.14268712268653688
15.34346,3.337467285166934,0.1426342590237309
15.345848,3.351619864160843,0.14240304617652683
15.348228,3.363910112035195,0.14221973668190932
15.350624,3.3808561877084387,0.14192068269099586
15.353012,3.395148536329208,0.14168127889969132
15.355391999999998,3.415447187189228,0.14125255676391718
15.357795999999995,3.4378877084225246,0.14074020543239613
15.36018,3.460467999282682,0.14021127050355947
15.362559999999998,3.4886352835015084,0.13953235041858067
15.36496,3.5188046684667524,0.13879506314019766
15.367348,3.543619377498804,0.13826743250143037
15.369732,3.57122758321019,0.137661633092657
15.372128,3.596833688175159,0.13712448376675676
15.374516,3.620297922766851,0.1366710169132003
15.3769,3.644041696612263,0.1361907035394585
15.379296,3.6699273408309527,0.13563959518583502
15.381684,3.6923678620642497,0.13515716798426136
15.384064,3.7104320947523752,0.13475598869129893
15.38646,3.727565161880722,0.13437660124071257
15.388848,3.737900530836901,0.13418654678432038
15.391227999999998,3.7495863742334388,0.1339282727710556
15.393635999999995,3.752472418711391,0.13392512298081358
15.39602,3.7584314991223984,0.13382493984159127
15.398404,3.7613175436003505,0.13382288946505785
15.4008,3.764994984011221,0.13381303529795785
15.403188,3.7654596188621756,0.13391221945488754
15.405568,3.767274728153489,0.13394691237841633
15.407964,3.770021003004581,0.13396031522772575
15.410352,3.7713242556166966,0.133974259322156
15.412736,3.7721156515496146,0.13396759326438565
15.415139999999996,3.776259622669308,0.1338451444034608
15.417527999999995,3.7796121978560837,0.13372960502927042
15.419908,3.7872485137894145,0.1334828880470735
15.422307999999996,3.7980976352826596,0.13314070254919286
15.424692,3.807363964910069,0.13281166501718344
15.427076,3.8175614600972554,0.13247066793194265
15.429475999999998,3.8310643086429765,0.1320958882667092
15.431863999999996,3.8509455464802844,0.13160353259417518
15.434244,3.8703149276383955,0.1310877662329998
15.436639999999995,3.8955508414088964,0.13042384595694645
15.439027999999997,3.9215781511123153,0.12976123404306156
15.441408,3.9499796486144887,0.12906820590304247
15.443804,3.9794520813033007,0.12836151334455004
15.446192,4.008272887686055,0.12765059046678723
15.448572,4.038676485934645,0.12693172951759926
15.450968,4.069871480116154,0.1262064257702365
15.453356,4.0997159998573025,0.12554894334351302
15.455735999999998,4.128629354038674,0.1249127509910089
15.458132,4.1591255000858816,0.12427904153287775
15.46052,4.187851862812149,0.12374202410157696
15.462903999999998,4.211223549605224,0.12335472806452043
15.4653,4.238739207517992,0.12286975962818007
15.467688,4.261971124684208,0.1225136545392981
15.470071999999998,4.281850466663647,0.12226227047493597
15.472472,4.301170730135645,0.12205738787800723
15.47486,4.314344921741532,0.12200250843623132
15.477244,4.324353529615748,0.12196730677384193
15.47964,4.331848180064348,0.12195966566159938
15.482028,4.342136327192284,0.12190380227893603
15.484407999999998,4.355497510253275,0.1217811080081788
15.486811999999995,4.3694177718217055,0.12161551526107345
15.4892,4.384968047084217,0.12137668996914383
15.49158,4.3991678479063685,0.12119308620336033
15.493979999999995,4.412156943915022,0.12104678591324369
15.496364,4.426636283990894,0.12084386546755164
15.498748,4.440463997760709,0.12063310466810746
15.501144,4.453360545970745,0.12043723410338661
15.503532,4.470121526046755,0.12017554470234508
15.505912,4.483018074256791,0.11998457610863822
15.508308,4.497544636160907,0.11972381546343719
15.5107,4.518217269931133,0.11933031533076698
15.51308,4.53139335739489,0.11911715201509585
15.51548,4.54284688336595,0.11891986630058124
15.517868,4.557652984523786,0.11863708712487293
15.520248,4.573669790495121,0.1183154511658527
15.522644,4.592899402026371,0.11791038702670348
15.525032,4.610778539117263,0.11755060257764019
15.527427999999995,4.628937215461875,0.11717315854986465
15.529827999999998,4.644162625500292,0.11685289697319658
15.532215999999998,4.65259033736654,0.11666007205090949
15.534595999999995,4.658876178859511,0.11652000455378891
15.536991999999998,4.667024351472039,0.11635494873014242
15.539379999999998,4.671727401099175,0.11622334600930068
15.541763999999995,4.67657022035317,0.11607980673973937
15.544159999999998,4.678479773300969,0.11599002160359598
15.546551999999998,4.68080863512935,0.11586790185818954
15.548931999999995,4.683696575465171,0.11570261568920949
15.551327999999998,4.678995421695905,0.11565664151533936
15.553719999999998,4.678857547926913,0.11549234676338095
15.556099999999995,4.677508969344424,0.11536312655493164
15.5585,4.6736464333363195,0.11525228435424226
15.560883999999998,4.672484846208932,0.11505027822833834
15.563267999999995,4.674396295014601,0.1147867790714856
15.565663999999998,4.6673681752748255,0.11468533919002008
15.568051999999998,4.661410990721687,0.11455966972146132
15.570432,4.654662410235631,0.1144363546721999
15.572827999999998,4.65219757049613,0.11421648639931767
15.575215999999998,4.649453191502906,0.1140188178872695
15.577599999999997,4.6477797476963225,0.11379698654237601
15.579995999999998,4.648248174263015,0.11352654443991651
15.582383999999998,4.645503795269794,0.11332694759067675
15.584767999999997,4.636753114037321,0.1132398266005259
15.587163999999998,4.628933598364625,0.1131391442759586
15.589551999999998,4.621114082691931,0.11303851318254073
15.591932,4.613434336646096,0.11292646603957063
15.594327999999996,4.608408317652736,0.11278501861748987
15.596719999999998,4.601100658659239,0.11270206118668812
15.5991,4.597657431531715,0.11255460233886933
15.601495999999996,4.589790694030777,0.1125143627995199
15.603883999999995,4.582203495783559,0.11245204046867263
15.606268,4.57633885902904,0.11237379624477103
15.608663999999996,4.571405387834296,0.11228228871143242
15.611051999999995,4.564330046266277,0.11223767317996687
15.613436,4.563540546191228,0.11206066026636227
15.615831999999996,4.56195965018326,0.11188614299398554
15.618223999999998,4.561449689361932,0.1116875905634922
15.620604,4.561731124473522,0.1114894094934431
15.623003999999998,4.558287897345999,0.111340786302555
15.625391999999998,4.554984439845335,0.11118132505134752
15.627775999999995,4.552332608650729,0.11103104647877783
15.630171999999998,4.557037554135733,0.11073100874832192
15.632559999999998,4.564815535553792,0.11036993598757999
15.634943999999996,4.576318179210964,0.10996202169034795
15.637344,4.5890315276816365,0.10952003125045746
15.639727999999998,4.598532070592392,0.10914441192545969
15.642107999999997,4.601095145704119,0.10888759633020667
15.644512,4.608593587868458,0.10854844689527784
15.646895999999998,4.617023195592576,0.10819847725119672
15.649275999999997,4.6245216377569145,0.10785810454308607
15.65168,4.6318803102943935,0.10752932550216672
15.654063999999998,4.631090810219344,0.1073514083097369
15.656443999999995,4.629230374957657,0.10719662335805882
15.658848,4.627509709322829,0.10703039755330458
15.661236,4.6284427707404765,0.10683900534457924
15.663611999999995,4.626023256971349,0.10672721459694325
15.666007999999998,4.6254660743217775,0.10659116969595753
15.668395999999998,4.620904690179373,0.10652554448974615
15.670776,4.6197884290223605,0.10643269808623076
15.67318,4.618392628611627,0.10636140025559984
15.675563999999998,4.617416137081474,0.10625818102103385
15.677944,4.610433343312072,0.1062577015556597
15.680348,4.605312880662225,0.10623334734576166
15.682735999999998,4.598469856519683,0.1062206124993505
15.685115999999995,4.593209624242977,0.10620564883031577
15.68752,4.593024528645744,0.10610333984693782
15.689904,4.602570397526873,0.10585916638603804
15.692283999999995,4.605970194541892,0.1057231527670921
15.694679999999998,4.611372092303328,0.10555687021171659
15.697067999999998,4.61877609081118,0.10535768351513672
15.699448,4.626180089319034,0.10515893519305898
15.701852,4.6415924908125525,0.10482683468918369
15.704235999999998,4.6608693241720465,0.10444368665600279
15.706615999999997,4.683870819770654,0.10402035775094144
15.709011999999998,4.704730444995984,0.10364536884083667
15.711399999999998,4.7306652069007855,0.10318414280464273
15.713796,4.755389263992089,0.10275957453878934
15.716192,4.779973551456532,0.10234177907336645
15.71858,4.806839478921112,0.10187868750756024
15.720955999999996,4.833845176012552,0.10140621018612707
15.72336,4.858289693850135,0.10100577737843927
15.725748,4.884456773180414,0.1005923748771188
15.728127999999998,4.908761521391136,0.10020386605298623
15.730532,4.928922298482165,0.09988546649713033
15.732916,4.949642154080635,0.0995333952967286
