Time,Force,Position
15.35688,0.15957675740881377,0.0
15.35926,0.1424844365567503,0.0
15.36166,0.12553188533154702,0.0
15.364043999999998,0.10778793817342565,0.0
15.366428,0.09204609176172111,0.0
15.368823999999998,0.0772354109097949,0.0
15.371216,0.060422629311451814,0.0
15.373596,0.04468078289974728,0.0
15.375991999999998,0.03159724323460764,0.0
15.378379999999998,0.021726509129383596,0.0
15.38076,0.01334143939728856,0.0
15.383164,0.005747765598111635,0.0
15.385552,0.002158293291768414,0.0
15.387935999999998,0.0017816265453407857,0.0
15.390332,0.0017816265453407857,0.0
15.39272,0.0017816265453407857,0.0
15.3951,0.0022980629186286246,0.0
15.397496,0.002954268918776674,0.0
15.399888,0.0022055151200115657,0.0
15.402268,0.0022055151200115657,0.0
15.404664,0.0023026426127187743,0.0
15.407051999999998,0.0023026426127187743,0.0
15.409436,0.0030513964114838826,0.0
15.411836,0.006873186143304373,0.0
15.414224,0.012836846248401923,0.0
15.416604,0.018940275980359682,0.0
15.419,0.024112540152539125,0.0
15.421388,0.028493408391800455,0.0
15.423772,0.029284804324718566,0.0
15.426168,0.02914503469785835,0.0
15.428556,0.033525902937119684,0.0
15.430936,0.03976910229593766,0.0
15.433336,0.045872532027895416,0.0
15.435719999999998,0.05118456582693506,0.0
15.438104,0.05649659962597471,0.0
15.440508,0.06381073417143122,0.0
15.442896,0.07060843234359988,0.0
15.445275999999998,0.07726636088890833,0.0
15.447672,0.08765353136742021,0.0
15.45006,0.09911163703257063,0.0
15.45244,0.1087500537123174,0.0
15.45484,0.11834582825791118,0.0
15.457223999999998,0.1253305178851832,0.0
15.459608,0.12710030120612278,0.0
15.462004,0.12551750934028658,0.0
15.464391999999998,0.12165307747431309,0.0
15.466776,0.11979074635475644,0.0
15.469172,0.11871981116811792,0.0
15.471559999999998,0.12365517822072992,0.0
15.47394,0.13166358120639735,0.0
15.47634,0.13473661713945273,0.0
15.478723999999998,0.13501615639317313,0.0
15.481108,0.13543546527375375,0.0
15.483503999999998,0.13543546527375375,0.0
15.485891999999998,0.13450429971397546,0.0
15.488288,0.13063986784800197,0.0
15.490684,0.12677543598202845,0.0
15.493072,0.12370240004897308,0.0
15.495456,0.11541445780958526,0.0
15.497852,0.10819745075683598,0.0
15.500244,0.10363417075656142,0.0
15.502624,0.10149230038328436,0.0
15.50502,0.10135253075642416,0.0
15.507408,0.10228369631620249,0.0
15.509792,0.10549650187611809,0.0
15.512188,0.11099094743617095,0.0
15.51458,0.11434352262294675,0.0
15.51696,0.11262096113025032,0.0
15.519356,0.10637776177143235,0.0
15.521744,0.09799269203933732,0.0
15.524128,0.09053878786702059,0.0
15.526524,0.08401604925448221,0.0
15.528912,0.07786997738837144,0.0
15.531296,0.07507648070903647,0.0
15.533692,0.07307437996261963,0.0
15.536084,0.0727948407088992,0.0
15.538464,0.07051320070876192,0.0
15.540864,0.06650899921592823,0.0
15.543252,0.06879063921606551,0.0
15.545636,0.06893040884292571,0.0
15.548032,0.06799924328314738,0.0
15.55042,0.06357573290973303,0.0
15.552804,0.058872683282598294,0.0
15.5552,0.057242669588518924,0.0
15.557588,0.05575242552129976,0.0
15.559972,0.05104937589416501,0.0
15.562368,0.05063006701358438,0.0
15.564756,0.06143196667858675,0.0
15.56714,0.07289007234373716,0.0
15.569539999999998,0.08649004838216465,0.0
15.571927999999998,0.09808792367417526,0.0
15.574312,0.1146211660187979,0.0
15.576712,0.13091751124385315,0.0
15.5791,0.14614292128226986,0.0
15.58148,0.16071670501462865,0.0
15.583872,0.1718453657615946,0.0
15.586256,0.18404496169519904,0.0
15.588636,0.19731549281544203,0.0
15.591028,0.20322924725607552,0.0
15.593416,0.20499903057701507,0.0
15.595795999999998,0.20490648277839804,0.0
15.598188,0.2050934742335014,0.0
15.600575999999998,0.20649117050210353,0.0
15.602956,0.2068179315840671,0.0
15.605368,0.20579421822567176,0.0
15.607756,0.21291867747980397,0.0
15.610136,0.21482823042760377,0.0
15.612528,0.20952077632265428,0.0
15.614916,0.20528425740434333,0.0
15.617308,0.20011657292625407,0.0
15.619711999999998,0.19494888844816474,0.0
15.6221,0.18005023949171156,0.0
15.62448,0.164872051281538,0.0
15.626872,0.14741222307122714,0.0
15.62926,0.13060402116697425,0.0
15.631636,0.11831187743475274,0.0
15.634032,0.10895300000872639,0.0
15.636416,0.09731248258256277,0.0
15.638812,0.09125895851506907,0.0
15.641208,0.09582034265747436,0.0
15.643596,0.11001824762175719,0.0
15.645976,0.13245497713931545,0.0
15.64838,0.16164028714293002,0.0
15.650764,0.1969225513265429,0.0
15.653148,0.2379296826378167,0.007219523758620272
15.655544,0.2746511773446671,0.015273475194579524
15.657928,0.31681799992545806,0.023834004885294184
15.660308,0.3649420070593871,0.03277466806538761
15.662712,0.42367902654534595,0.04136144175408881
15.665096,0.48916462651736103,0.04991779544640239
15.667476,0.5635878991769526,0.0583756326214456
15.669868,0.6497423412034556,0.0667505194234344
15.672256,0.7414818807307593,0.07523669180164055
15.674636,0.8434623455577553,0.08362496389637429
15.677051999999998,0.9534020956843063,0.09203333407745479
15.679436,1.0686474040579377,0.10045777260487546
15.68182,1.1874757091859527,0.10894098514580645
15.684224,1.317243787747961,0.11728144906366963
15.686608,1.4486399841461797,0.12571780460010884
15.688988,1.5801287283430152,0.13406230487595344
15.691384,1.7065895576886219,0.1424126859658693
15.693772,1.8270932024810904,0.15066611626473003
15.696152,1.9396847838022468,0.15883929900755872
15.698548,2.040592417584735,0.16720262488524978
15.700936,2.134284940172343,0.16848910099368847
15.703316,2.232635186416712,0.16872612345190097
15.70572,2.329823845533695,0.16832384848603207
15.708108,2.4218939378587008,0.16748113687129376
15.710488,2.499626355592563,0.1671202952905094
15.712891999999998,2.566466221720676,0.16692584212693318
15.715276,2.6324693659454965,0.16662398358793287
15.71766,2.6959132267743287,0.16626548543825465
15.720056,2.7563331693562176,0.16565395613359482
15.72244,2.80413799883966,0.1652575336627902
15.72482,2.8433319167174895,0.16485697681222428
15.727224,2.873216074855405,0.16454979545913018
15.729612,2.899517236238937,0.1640933582143719
15.731992,2.9151581634421957,0.1638508458618638
15.734388,2.9272160938910714,0.1634547442994772
15.736776,2.929917042771789,0.1632592715658016
15.739156,2.9301512560551353,0.16303828438340442
15.741559999999998,2.932759657137236,0.16277075218536158
15.743948,2.934669210085036,0.16259954001666507
15.746328,2.9444473963916424,0.16207854231297114
15.748724,2.957066301205827,0.16134479651052316
15.751108,2.9642379822882026,0.1608260766809623
15.753488,2.972712915982694,0.1603296662573002
15.755892,2.9807685407966042,0.15988932461313637
15.75828,2.9934799934094065,0.15927192054639566
15.76066,3.010195647515043,0.15847013376468985
15.763056,3.0200210556498925,0.15788729753401112
15.765444,3.0256099448664324,0.1574264057760788
15.767828,3.026495784455837,0.1572230811298247
15.770224,3.0323169910978525,0.15681753485243566
15.772608,3.0412112336729242,0.15628241856487346
15.775004,3.055320382554329,0.1555157938968798
15.777399999999998,3.0690102225551534,0.15481661363388957
15.779787999999998,3.0884268255415073,0.15391971410644828
15.782168,3.1112885515132533,0.1529597035268713
15.784564,3.1372233134180556,0.15185933001303598
15.786952,3.165951572002193,0.15068832506025545
15.789332,3.1870907364812426,0.14977656860742158
15.791735999999998,3.206879426519934,0.14893280651091625
15.79412,3.2194511095058758,0.14839004306055323
15.7965,3.2318830228649573,0.14787310767182354
15.798904,3.2433837706642605,0.14738376806265338
15.801291999999998,3.248366359545116,0.14710655232349473
15.803672,3.256374762530783,0.14679862890168666
15.806076,3.2643831655164504,0.14649510198638455
15.808464,3.272391568502118,0.1461958823651047
15.810844,3.280120432234065,0.14592774108561457
15.81324,3.2835655552194583,0.1458423817349722
15.815627999999998,3.289152548578128,0.14565839221327628
15.818012,3.2940406938024966,0.14556421599051156
15.820408,3.296367659773008,0.14561798738416695
15.822796,3.298554856116659,0.1456892731324048
15.825176,3.2983678646615555,0.1457954752032665
15.827571999999998,3.2928261972732598,0.14612552047754845
15.829956,3.2842114939519083,0.14656391073624067
15.83234,3.2750377121231153,0.1470680303540236
15.834736,3.262790894361268,0.1476795293550937
15.837124,3.2572020051447286,0.14808735072664667
15.839515999999998,3.25747964854058,0.14829841938956917
15.84192,3.266557090855017,0.14821837261445728
15.844308,3.2764259291023716,0.14813117394875558
15.846688,3.2912301344023382,0.1478866220206639
15.84908,3.3089676060085003,0.147540355985988
15.851468,3.3241911201890475,0.14724411043243826
15.853848,3.339135095115875,0.14698340426266893
15.856243999999998,3.3527285956023434,0.146796884992353
15.858631999999998,3.3673930312754496,0.14656625872191464
15.861012,3.3909970354940016,0.1460374154343621
15.863407999999998,3.416603140458971,0.14544582606900458
15.865796,3.443419950237439,0.14480478824677634
15.86818,3.470656068896487,0.14411520678102555
15.870575999999998,3.4941675253164224,0.14353803345544808
15.872964,3.5164682769228595,0.143008170756264
15.875344,3.54333230852957,0.14228561910133136
15.87774,3.5672630738300866,0.1416483467839311
15.880128,3.596408745436935,0.14083954770578433
15.882523999999998,3.62210929405839,0.14008593183375867
15.88492,3.643154014880954,0.13946463095590456
15.887308,3.6603343038375447,0.1389704182756863
15.889691999999998,3.6727189953683834,0.13862596478749528
15.892088,3.6843122909663033,0.13829620095017553
15.894476,3.6928325506311683,0.13807411050660906
15.896856,3.7042860766022283,0.13777311830726816
15.899252,3.716950307386787,0.13742205793114998
15.90164,3.726821041492011,0.13713648678739054
15.90402,3.736459458171758,0.1368001716444765
15.906415999999998,3.7473085796650034,0.13641466730601837
15.9088,3.7497772111202443,0.13623382392315173
15.911196,3.751594216269427,0.13604857883443633
15.913592,3.7487553936197187,0.13597318755130902
15.915976,3.7480584413432867,0.13582581385336479
15.918356,3.7481528849997736,0.13567058219728417
15.920751999999998,3.7531826957088716,0.13537913965836823
15.923136,3.7540685352982766,0.13521779867160028
15.925532,3.7563048493280395,0.13499065326908025
15.927928,3.745876932573244,0.13510592285840034
15.930316,3.739033908430701,0.1351488949319076
15.932695999999998,3.734053215407715,0.13514747694751467
15.935092,3.7304229968250877,0.1350794021822943
15.93748,3.7289346486157378,0.13493768177881907
15.93986,3.7246528037270523,0.13486246976485092
15.942256,3.7146441958528373,0.1349389986391987
15.944643999999998,3.7027732568590657,0.13505596593586014
15.94704,3.690902317865294,0.13516991898477945
15.949436,3.6802420836850214,0.1352356643663448
15.951824,3.6730269724901414,0.1352392757194482
15.954204,3.6627388253622066,0.13533710759611922
15.956608,3.654964635659886,0.1354011259167132
15.958996,3.646910906703845,0.13549213793477002
15.961376,3.6425818399869163,0.13549522067731043
15.963772,3.635831363642991,0.1355992211156733
15.96616,3.6272185561795083,0.13574909955333775
15.96854,3.6158122520366915,0.1359610768813042
15.970944,3.6057564223342333,0.13610856634424012
15.973332,3.5977026933781917,0.13619677847826284
15.975712,3.6004508640871524,0.1359847386698422
15.978108,3.6059925314754486,0.13570885493658305
15.980496,3.6146072347968,0.13534328970935858
15.982876,3.6209402981180143,0.13506419503700795
15.98528,3.624200325506173,0.1348793113079732
15.987668,3.630393619200527,0.13461620824855156
15.990048,3.641382510320633,0.13422344838989117
15.992451999999998,3.649158595880823,0.13393834224039303
15.994839999999998,3.6549325806945956,0.1337122201925897
15.99722,3.6644312277474826,0.13340170870924203
15.999616,3.6700654429343955,0.13319447594749048
16.002000000000002,3.6791447811067024,0.13292918017516261
16.004384,3.69301971670476,0.1325463104545756
16.006776000000002,3.7059634867430393,0.13218640345831909
16.009164,3.721840523087513,0.13175920955625958
16.011544,3.737857329058848,0.13131728270388485
16.013939999999998,3.755596696522879,0.13084271397897532
16.016328,3.771985589546552,0.13042867001265274
16.018707999999997,3.7908884399958387,0.12998772002089198
16.021112000000002,3.8064387152583494,0.12966324860309972
16.0235,3.8218492208940007,0.129364315215894
16.02588,3.8324641291039,0.12917986567450399
16.028280000000002,3.8406576276868014,0.12909260664594097
16.030668,3.8527155581356762,0.12891513969080629
16.033051999999998,3.8672874460101663,0.12870635143258594
16.035448000000002,3.8811604857503545,0.12856634146227872
16.037836,3.897966791796738,0.12835967415616584
16.040216,3.9189170689628163,0.1280362699455517
16.042616000000002,3.942800612435089,0.12764524998548082
16.045,3.963750889601166,0.12733048388567808
16.047379999999997,3.9836302315806056,0.12704187284636204
16.04978,4.001275155388151,0.12675863482271765
16.052168,4.018268452889637,0.12647933941056666
16.054547999999997,4.036984311883821,0.12617901558265965
16.056944,4.0519755086388916,0.1259565552038154
16.059336000000002,4.066966705393962,0.1257340948249712
16.061715999999997,4.0840997725223085,0.12545379466651374
16.064120000000003,4.102443544464155,0.1251278922661358
16.066508,4.1170626541668875,0.12487483503977118
16.068888,4.134754799802676,0.12454140121750336
16.071284,4.146440643199214,0.12435098605622323
16.073672000000002,4.161339292155667,0.12406906855069805
16.076051999999997,4.172792818126727,0.12382943471635034
16.078456000000003,4.180661451485534,0.12365030885251088
16.080840000000002,4.188157997792004,0.12344053464302754
16.083219999999997,4.194491061113218,0.12320245554426465
16.085616,4.19588875738182,0.12307705679042823
16.088003999999998,4.195284352904005,0.12299920456539155
16.090384,4.191746682119995,0.12298507229584671
16.092779999999998,4.190211112082403,0.12292454560782166
16.095163999999997,4.19468184428406,0.12272722971431575
16.097544,4.199943972418636,0.1225255033492091
16.099956,4.197337467194403,0.12249388519513886
16.102344000000002,4.192496543798278,0.12246283615829977
16.104723999999997,4.1865846852155135,0.12246076646832962
16.107124,4.184956567379303,0.12234351639561328
16.109512000000002,4.180534952863758,0.1222747770121454
16.111891999999997,4.1802573094679065,0.12210687611784603
16.114283999999998,4.181050601258693,0.12191091552859393
16.116672,4.186127633796035,0.12160993985669799
16.119048,4.193626075960373,0.12122698868454833
16.121464000000003,4.199913813311214,0.12088489993566659
16.123848000000002,4.20913481696825,0.1204814706007724
16.126227999999998,4.222220252491259,0.12000821457314326
16.128632000000003,4.232372421708073,0.11959297027749327
16.13102,4.248391123537276,0.1190721778148776
16.1334,4.267343091672675,0.11849212739135577
16.135804,4.284572498315379,0.1179275076550547
16.138188,4.303804005704498,0.11732143176012369
16.140572,4.320242016414283,0.11676386490016973
16.142967999999996,4.333467221564151,0.11629433697540265
16.145352000000003,4.349625693020216,0.11577601765558752
16.147731999999998,4.375654898581504,0.11506911992759034
16.150135999999996,4.402987356754908,0.11438118061833337
16.152520000000003,4.43139075011495,0.11366586061988825
16.154904000000002,4.451366431608745,0.11314680438723808
16.157308,4.476137710528293,0.1125533082428164
16.159692,4.492900586462172,0.11211872922099816
16.162072000000002,4.50952369276919,0.11169604580603713
16.164476,4.520931892769877,0.11139454156181545
16.166863999999997,4.537927086129233,0.1110194179572459
16.169244,4.558926480981422,0.11057682155966057
16.171639999999996,4.579786106206752,0.11014577305804853
16.174024000000003,4.5944996595659715,0.10983564662355008
16.176403999999998,4.6118669399776655,0.10949714488903649
16.178800000000003,4.620666738896251,0.10935000001639543
16.181188,4.629746077068556,0.10918287195297141
16.183568,4.644552178226393,0.108932408391659
16.185972,4.659218509757368,0.10869482236572094
16.188360000000003,4.6766783379676795,0.10842224049289084
16.190739999999998,4.691624208752376,0.10816416433937279
16.193136000000003,4.703217504350296,0.10798743884696452
16.195520000000002,4.706662627335689,0.10796062444700508
16.197899999999997,4.7094561240150234,0.10792489379790016
16.200316,4.7141119518139165,0.10786604874816612
16.2027,4.721049419612945,0.10774938040343
16.205080000000002,4.7229117507325,0.10772546578885323
16.207484,4.732502945584003,0.10758482029810701
16.209871999999997,4.7413027445025895,0.10744537134405074
16.212252,4.750102543421175,0.10730592238999447
16.214647999999997,4.754106744914008,0.10723844959697869
16.217036,4.75410674491401,0.10723844959697869
16.21942,4.758250716033705,0.1071631362095155
16.221823999999998,4.766538658273092,0.10701128127901946
16.224207999999997,4.77482660051248,0.10686040211090618
16.226588,4.787817592379002,0.10659125005022223
16.228991999999998,4.800808584245525,0.10632515905770394
16.23138,4.8079330434996566,0.10614787873842968
16.233759999999997,4.818410077940565,0.10590174952177865
16.236164000000002,4.82474314126178,0.10572832579318774
16.238548,4.834800866822106,0.10551238135948636
16.240927999999997,4.845417670889875,0.10525656832799198
16.243332000000002,4.865393352383669,0.1048393840188198
16.24572,4.886579738690962,0.10439528305206781
16.2481,4.906043563505558,0.10396623943779826
16.250496,4.930442755372767,0.10346853140730485
16.252879999999998,4.95311938574728,0.10297543958725669
16.25526,4.971419727576622,0.10252050746733198
16.257664,4.995726371645214,0.10198391779506143
16.260052,5.022174886087083,0.10141244440793845
16.262431999999997,5.0475524653423145,0.10085962372274736
16.264836000000003,5.071207483104848,0.10031464780380352
16.267224,5.090858299374547,0.09983592748408424
16.269604,5.110788654897968,0.09934271771059383
16.272,5.132488793742328,0.09879053775401117
16.274388000000002,5.150976127026772,0.09829477377716184
16.276767999999997,5.168392525124578,0.09782024057555576
16.279172000000003,5.18888195915544,0.09729905239881985
16.28156,5.202154386133553,0.09689112890178755
16.283943999999998,5.221992193858357,0.09636733437373553
16.286344,5.240107440090465,0.09585609672370446
16.288732000000003,5.258222686322572,0.09534670146375371
16.291112,5.267118824755513,0.0949749027562639
16.293512,5.274804258374955,0.09463156996075096
16.295896,5.284072483860234,0.09429150226219091
16.29828,5.2894762774795385,0.09399565976052525
16.300683999999997,5.2980928766587585,0.09364656506818388
16.303067999999996,5.307221332517177,0.09331628594011651
16.305448,5.308201615763066,0.09309820416990228
16.307851999999997,5.303175596769708,0.09295541484074403
16.31024,5.299080743336125,0.09280425853604178
16.312620000000003,5.296987990648961,0.09262715727025693
16.315016,5.29303290684224,0.09246594671672931
16.317403999999996,5.2849338519158255,0.09236439160993345
16.319784,5.2701296466158585,0.09238451309436005
16.322180000000003,5.257467311689169,0.0923698646755339
16.324564000000002,5.2428028760160625,0.09238108786140041
16.326943999999997,5.223994469223261,0.09245353403942239
16.329348000000003,5.207188163176878,0.09250186249796048
16.331736,5.186098116383939,0.09261661899333842
16.334116,5.16579946552392,0.09273061890869097
16.33652,5.148154541716375,0.0928269448242051
16.338907999999996,5.134653589028524,0.09286428508159074
16.341288,5.1207333274600915,0.09292925255750895
16.343684000000003,5.102948634025687,0.09303594969335297
16.346072,5.088748833203534,0.09311843225838826
16.348447999999998,5.077062989806997,0.09319325272084157
16.350851999999996,5.0695211175301536,0.09320873172765215
16.35324,5.065843677119283,0.09318469555428417
16.355624,5.069103704507443,0.0930794422331671
16.358019999999996,5.074505602268879,0.09294163785086255
16.360404000000003,5.080279587082651,0.09283217291830007
16.362783999999998,5.092711500441733,0.09266249597551841
16.365187999999996,5.110730407159485,0.09244767339877305
16.367576,5.135547012049406,0.09216044926925182
16.369956000000002,5.160875473618524,0.09189362877614778
16.372352,5.188997431866977,0.09160313920961324
16.374740000000003,5.227129893847515,0.0911988587468876
16.377124000000002,5.265262355828052,0.0907920746448139
16.37952,5.302044343368229,0.09041759481198208
