Time,Force,Position
14.345487999999998,0.20974333352750624,0.0
14.347868,0.2081337666104471,0.0
14.350263999999996,0.20079743670785785,0.0
14.352651999999996,0.1943922723650469,0.0
14.355036,0.1861247769026793,0.0
14.357431999999998,0.17585518069389486,0.0
14.359819999999996,0.16572535411197065,0.0
14.3622,0.15266226122385126,0.0
14.364608,0.13838846352223313,0.0
14.366996,0.12132116914128004,0.0
14.369379999999998,0.10504527069324504,0.0
14.371776,0.08583610593901486,0.0
14.374164,0.06741833711770281,0.0
14.376543999999996,0.051142438669667833,0.0
14.378948,0.034866540221632845,0.0
14.381336,0.02324646957248945,0.0
14.383715999999998,0.012697334109984594,0.0
14.386112,0.005248009631758028,0.0
14.388495999999998,0.0015233473926447468,0.0
14.390875999999995,0.0022221955269457975,0.0
14.393275999999998,0.006672480951583041,0.0
14.395659999999998,0.011122766376220287,0.0
14.398043999999995,0.013570951054440679,0.0
14.400448,0.015087970172882754,0.0
14.402831999999998,0.017536154851103145,0.0
14.405211999999995,0.01956503064874291,0.0
14.407616,0.021454136819522462,0.0
14.410004,0.022272307803663485,0.0
14.412383999999998,0.026023745093999677,0.0
14.41478,0.03163751350389251,0.0
14.417167999999998,0.03725128191378534,0.0
14.419547999999995,0.041654345510179436,0.0
14.421943999999998,0.04791974022613017,0.0
14.424331999999998,0.05497653087499901,0.0
14.426712,0.06189355189700764,0.0
14.429107999999998,0.06480637142618259,0.0
14.431495999999996,0.06692779502243942,0.0
14.433891999999998,0.06702034282105647,0.0
14.436288,0.06818382580631206,0.0
14.438676,0.06892799991098701,0.0
14.441055999999998,0.0664593684557464,0.0
14.44346,0.06291980181386723,0.0
14.445848,0.0644553718514603,0.0
14.448232,0.06799304263547022,0.0
14.450628,0.07045977823284161,0.0
14.453016,0.07576723233779112,0.0
14.455396,0.08321655681601768,0.0
14.457799999999995,0.09387868685415984,0.0
14.460187999999995,0.10174732021296704,0.0
14.462568,0.10360965133252367,0.0
14.464971999999998,0.1053322128252201,0.0
14.467359999999998,0.10812570950455506,0.0
14.46974,0.1099880406241117,0.0
14.472135999999995,0.11026757987783212,0.0
14.474523999999995,0.11096642801213316,0.0
14.476904,0.11674041282590646,0.0
14.479307999999998,0.12330579357259785,0.0
14.481695999999998,0.1320130446925663,0.0
14.484076,0.13485376320014442,0.0
14.486471999999996,0.1367633161479442,0.0
14.488859999999995,0.13478166217854762,0.0
14.491244,0.1357600495665691,0.0
14.493639999999996,0.13259446583489665,0.0
14.496027999999995,0.129289112476364,0.0
14.498412,0.12547190243863365,0.0
14.500807999999996,0.11909351314704561,0.0
14.503192,0.10975508249803949,0.0
14.505572,0.09827478147575631,0.0
14.507975999999998,0.08665471082661293,0.0
14.510359999999997,0.07917861129716346,0.0
14.51274,0.07184228139457419,0.0
14.515136,0.06464572111884512,0.0
14.517524,0.05651799528333775,0.0
14.519899999999998,0.04918166538074848,0.0
14.522307999999995,0.041565796224438796,0.0
14.524692,0.03287899188149058,0.0
14.527076,0.024358732216625482,0.0
14.529472,0.015532158246817055,0.0
14.531856,0.010596791194205032,0.0
14.53424,0.006705584277008628,0.0
14.536643999999995,0.009665625634426713,0.0
14.539028,0.00780329451487007,0.0
14.541408,0.010224704141867552,0.0
14.543811999999996,0.009712847462669863,0.0
14.546199999999995,0.00861513722480842,0.0
14.54858,0.007657196613807186,0.0
14.550983999999998,0.01033769871750485,0.0
14.553371999999998,0.011016100074785661,0.0
14.555752,0.011414962178346052,0.0
14.558147999999996,0.011953593908766654,0.0
14.560535999999995,0.012492225639187256,0.0
14.562916,0.012492225639187256,0.0
14.565311999999995,0.012492225639187256,0.0
14.5677,0.012492225639187256,0.0
14.57008,0.012492225639187256,0.0
14.572479999999995,0.012492225639187256,0.0
14.574864,0.012325680961104134,0.0
14.577248,0.012325680961104134,0.0
14.57964,0.014839638386718675,0.0
14.582028,0.0203136371697513,0.0
14.584407999999998,0.022967364222226047,0.0
14.586812,0.03148762388709114,0.0
14.5892,0.03572414280540211,0.0
14.59158,0.04196276247012994,0.0
14.593976,0.05158073237285648,0.0
14.596364,0.06133847190244322,0.0
14.598748,0.06348034227572028,0.0
14.601144,0.06827593970147211,0.0
14.603528,0.07349084600780455,0.0
14.605907999999998,0.07935737862019489,0.0
14.608316,0.08229064492639006,0.0
14.6107,0.08562277333614561,0.0
14.613079999999998,0.09188816805209635,0.0
14.615476,0.09922449795468562,0.0
14.617864,0.10642105823041469,0.0
14.620243999999998,0.11389715775986416,0.0
14.622648,0.12244419247595216,0.0
14.625036,0.12698702569920647,0.0
14.627415999999998,0.124446293222369,0.0
14.629816,0.11897229443933638,0.0
14.6322,0.11335852602944355,0.0
14.634579999999998,0.10481149131335554,0.0
14.636984,0.09733539178390606,0.0
14.639372,0.08985929225445659,0.0
14.641752,0.08024132235173005,0.0
14.644152,0.07048358282214331,0.0
14.646536,0.06566121034516859,0.0
14.648915999999998,0.06018721156213597,0.0
14.651316,0.05457344315224312,0.0
14.653704,0.048331031771776806,0.0
14.656099999999997,0.053400480877641314,0.0
14.658495999999998,0.06498619304408483,0.0
14.660883999999998,0.08266885939052669,0.0
14.663264,0.10900965917082461,0.0
14.665659999999995,0.14042369977272556,0.0
14.668047999999995,0.17686375936798632,0.009592809366240643
14.670428,0.21618796758332984,0.01965857739081915
14.672824,0.27040892889725726,0.029068232941665648
14.675212,0.34183505836112876,0.03769272455572305
14.677592,0.4223386301394369,0.045995963746452706
14.679991999999997,0.5085670690454059,0.0543575049643726
14.68238,0.601311771011954,0.06274080395924132
14.68476,0.701224362345139,0.07114475853942577
14.687156,0.8124488141646549,0.07928704189571247
14.689544,0.9314002338582483,0.08736547002304766
14.691923999999998,1.056216290306363,0.09547175099416257
14.69432,1.1875486098150565,0.10360606209121626
14.696708,1.3248853357051316,0.11174258027398945
14.699104,1.4719983520439444,0.11963668527989935
14.701503999999998,1.6179702280323909,0.12766549093594864
14.703891999999998,1.7547721139077836,0.13571089369990358
14.706272,1.8857565848568987,0.1436786223499217
14.708671999999998,2.007198978640622,0.15162378581712524
14.711055999999996,2.1163511245499937,0.15973996850184002
14.713436,2.2220128215035984,0.16784145846140786
14.715831999999995,2.3227882690907036,0.1662912334787331
14.718219999999995,2.420307481005388,0.1641706289213581
14.7206,2.5074932198217637,0.16262887183471353
14.722996,2.583599415577286,0.16184130328985696
14.725384,2.6519314216304863,0.1613822925028203
14.727768,2.7164008916755824,0.16079767558600533
14.730164,2.775704573100459,0.16010319951704863
14.732548,2.8311929403454745,0.15922131706868736
14.734947999999996,2.8710857063576043,0.1588004577250975
14.737343999999998,2.903903130801716,0.15844753158224087
14.739731999999998,2.9305763792375847,0.15810356701998685
14.742111999999995,2.9508731342397354,0.157713148152084
14.744512,2.9665159573008637,0.15723324868513727
14.746895999999998,2.969588993233919,0.15709357303741045
14.749279999999995,2.9773650787941093,0.15668957156044488
14.751675999999998,2.9895174528994706,0.1561629797168163
14.754063999999998,3.0026935403632278,0.15568880815536795
14.756447999999995,3.0102354126400708,0.15549543934310348
14.758848,3.0211298601036902,0.15511678512266752
14.761235999999998,3.0312329116343912,0.15475676476812394
14.763615999999995,3.0443617772699048,0.15436490778179726
14.766011999999998,3.058374586636954,0.15404395948530064
14.768399999999998,3.067824116003728,0.153961244845978
14.77078,3.0719661912655525,0.15404179723340786
14.773175999999998,3.0746652442884015,0.15413362306153622
14.775563999999996,3.0769449884306694,0.15428059550508155
14.777944,3.079317280371555,0.15450373905394735
14.780339999999995,3.0784767667525244,0.15487542331829698
14.782727999999995,3.0792662668275734,0.1551303078436735
14.785123999999998,3.0794041405965644,0.1553811143972683
14.78752,3.0794022447386946,0.1556510230730027
14.789908,3.080051975186884,0.15592349696866442
14.792287999999996,3.0784200656349348,0.15631781103822182
14.794683999999998,3.0797214223891807,0.15659560676463405
14.797071999999998,3.076366951344536,0.1570378741147416
14.799451999999995,3.067425486941221,0.15767629600617675
14.801856,3.0548991299256536,0.15843259646408447
14.804244,3.0515918807092515,0.15878315350446584
14.806623999999998,3.045910443694096,0.159181352082838
14.809024,3.038925754066824,0.15957324208204385
14.811412,3.02742500626752,0.16011182043498615
14.813791999999998,3.0123393658559636,0.16077141476878104
14.816188,3.001257926937241,0.1612700404484035
14.818575999999998,2.995623711750328,0.16158094658198033
14.820959999999998,2.989198100630497,0.16191068721756174
14.823356,2.98146923689855,0.16223286736313247
14.825743999999998,2.9725768901813474,0.16252765545051429
14.828123999999995,2.9614029034640077,0.16295593125163396
14.830524,2.9588889460383934,0.16302243879078376
14.832907999999998,2.9565147582396385,0.1630700016451216
14.835288,2.95777268488138,0.1629031730014512
14.837683999999998,2.961312251523259,0.16261814267077193
14.840071999999996,2.9676453148444732,0.16223555544715598
14.842452,2.974909543725466,0.16182324792153044
14.844851999999998,2.9843156429797353,0.16131101676114368
14.847239999999998,2.9977259437268384,0.16063226006572834
14.849623999999997,3.015140445966776,0.15978637926267952
14.852019999999998,3.032415178579853,0.15898777893605906
14.854407999999998,3.055137134924739,0.15803281716030787
14.856804,3.0805128183221,0.15701296807069884
14.8592,3.1089615376525166,0.15587145898791938
14.861588,3.141693997729487,0.15454089275083693
14.863967999999998,3.178290889672431,0.15310172763355342
14.866364,3.214096385682457,0.15169522103883623
14.868752,3.252555608744958,0.15022092319577235
14.871131999999998,3.2938083284867936,0.14868628483599378
14.873528,3.3332912649076896,0.1472699019485857
14.87592,3.3775697987543376,0.14568702173429085
14.878299999999998,3.414351786294516,0.14446201933208216
14.8807,3.4525767960736706,0.14324047458610542
14.883088,3.488100856972107,0.14219799911582975
14.885471999999998,3.519480946750849,0.1413258165870585
14.887868,3.5516524324625105,0.14046503325714202
14.890256,3.5824734437338117,0.13968074311447418
14.892639999999998,3.611664441311034,0.1390037834735833
14.895036,3.638573798888119,0.13843146118664168
14.897424,3.664272451651705,0.13792560403514884
14.899807999999998,3.6868980684822352,0.1375340751304308
14.902204,3.7053797141930724,0.13729380056659043
14.904592,3.7243732165831065,0.13708254677070064
14.906975999999998,3.7441581149060594,0.13687233311162503
14.909372,3.762312999534933,0.13676279381923548
14.91176,3.7783260137905295,0.1367333452926989
14.914144,3.794059488792405,0.13673278740665717
14.91654,3.8092811071150834,0.136715104916258
14.918924,3.8195673583851493,0.13683238576354628
14.921303999999996,3.835348055215269,0.13676201869357787
14.923708,3.847543859433135,0.13676300760698865
14.926096,3.863511547718357,0.13660599113401728
14.928475999999998,3.8791071489512423,0.13641898076854095
14.930872,3.8946102023855103,0.13617260745917414
14.93326,3.912115356566195,0.13587099450584397
14.935639999999998,3.9251044525748475,0.13565916179524262
14.938036,3.940514958210499,0.1353554603890079
14.940423999999998,3.957555477540229,0.1349654080282557
14.942803999999995,3.9768776368700967,0.13449793642452712
14.945199999999998,3.995548169893906,0.13402597774249414
14.947587999999998,4.013147767731077,0.13358319735575447
14.949988,4.0299559696353295,0.13314322832092138
14.952383999999997,4.040525551874856,0.13281701526184764
14.954772,4.046579075942349,0.13258116282652813
14.957152,4.051049808144007,0.13235879282421784
14.959555999999996,4.053937748479828,0.13215174793984277
14.96194,4.056593371390171,0.13189914324278354
14.96432,4.058178059113876,0.13168093161332395
14.966719999999995,4.060833682024221,0.131427226012542
14.969107999999997,4.0584141682550925,0.13131508822124704
14.971488,4.061861187098355,0.1310605131299374
14.973887999999995,4.060093299635285,0.13095531883237452
14.976272,4.056323311425797,0.1309018504251618
14.978656,4.053204949522368,0.13085474144268444
14.981052,4.047944717245662,0.13087221490760126
14.98344,4.046548916834929,0.13079983961804187
14.98582,4.039566123065527,0.13084240118492546
14.98822,4.0284393581764295,0.13100234022413582
14.990608,4.01917492440689,0.13111859636216833
14.992988,4.011121195450848,0.1311887294503473
14.995384,4.004837249815747,0.13116346673719004
14.997776,4.0011144834345025,0.13103691662122446
15.000156,4.00204754485215,0.1308166304240919
15.002552,4.005634333322273,0.13055260934395332
15.00494,4.0113629921656715,0.13022586248666942
15.007324,4.017231420635932,0.12988712896149907
15.00972,4.0224010009718905,0.12961300366454542
15.012108,4.02635987649435,0.12938241274860204
15.014487999999998,4.029527356083891,0.12915570958117273
15.01688,4.031391583061318,0.1289123692933378
15.019268,4.0223141407468805,0.1289455566459673
15.021647999999995,4.016961360671558,0.12890246540154174
15.024059999999997,4.013470911715791,0.12882023555417946
15.026448,4.00597626126719,0.1288429777852624
15.028828,4.0010427900724475,0.1287597794237098
15.031231999999996,3.9931760525715094,0.12874793271428642
15.033615999999997,3.9920597914144964,0.12864703801220587
15.035996,3.9970896021235953,0.1283767822036043
15.038399999999998,3.9929475268617702,0.12828679882881372
15.040787999999996,3.986384041972948,0.12828849368540532
15.043168,3.9791217089498243,0.12835582184358754
15.045563999999995,3.969298196672844,0.12852685840849487
15.047948,3.959893993276443,0.12865559062666168
15.050328,3.9487672283873474,0.12880853506119058
15.052731999999995,3.936941615363949,0.1290254554680222
15.055119999999995,3.922694592713554,0.12933492154666584
15.0575,3.9092861878243204,0.12956446194595284
15.059896,3.8960175525619465,0.12978368615514982
15.062287999999995,3.889267076218021,0.12986765791722915
15.064668,3.886473579538686,0.12992377704523925
15.067071999999998,3.893038960285377,0.129717790897312
15.069459999999998,3.8980215491662324,0.1295233171887958
15.07184,3.9025848291665066,0.12936937901083606
15.074235999999996,3.907008339539921,0.1292246537677056
15.076623999999995,3.9140855769658107,0.12904037580596614
15.079004,3.9190209440184227,0.12891751712405647
15.081407999999998,3.922653058458919,0.12878253493799455
15.083791999999995,3.9230723673394996,0.1287436340290326
15.086176,3.9305216918177264,0.12859383241575836
15.088571999999996,3.9398333474155094,0.1284057952474059
15.090959999999995,3.951147103759709,0.1281686829311349
15.09334,3.9653941264101045,0.12786315408514376
15.095735999999995,3.9781509049932797,0.1276306345118972
15.098123999999997,3.9898367483898176,0.12742700407186627
15.100508,4.000219339174239,0.12720758883093897
15.102903999999995,4.01181263477216,0.12693865698747994
15.105291999999997,4.025780118168835,0.12665884558151816
15.107672,4.042820637498565,0.1262996960421948
15.110068,4.053203228282987,0.1260866964810972
15.112456,4.065355602388348,0.12578520513202057
15.11484,4.073084466120294,0.12562050479894862
15.117236,4.085748696904854,0.12534863036872992
15.119624,4.098972006196854,0.12502935073364657
15.122019999999996,4.1212746536611595,0.12450184551749689
15.124411999999998,4.138781703699713,0.12407750680697785
15.126799999999998,4.164716465604515,0.12344338045306304
15.12918,4.188928666016621,0.12283692736449828
15.131579999999998,4.212209700868948,0.12224434668134204
15.133963999999995,4.2339079438554394,0.12166400664992845
15.136348,4.253092229416317,0.1211055364413518
15.138751999999998,4.272556054230913,0.12053238844846131
15.141139999999998,4.291368252739453,0.11995830471346924
15.143519999999995,4.311670695315211,0.1193252634495873
15.145915999999998,4.335837569756942,0.11862007104982406
15.148303999999998,4.3640086456915075,0.11783933064656196
15.150684,4.396183923118906,0.11698267500586808
15.153088,4.4224926679339145,0.1162390378447687
15.155475999999998,4.445728376815868,0.11556711845647268
15.157855999999995,4.471897352004017,0.1148378545003489
15.16026,4.493503047191892,0.11424259093128587
15.162648,4.517390382379901,0.1135845431089341
15.165027999999998,4.536202580888441,0.11304083634211783
15.167428,4.55501477939698,0.11250317321545433
15.169816,4.569171150106627,0.1120480424122576
15.172195999999998,4.586121017495611,0.11155533168651387
15.1746,4.595714108204984,0.11122562884748215
15.176988,4.602094393354441,0.1109655509122616
15.179367999999998,4.611547714436954,0.11064584748875064
15.181764,4.623934301825662,0.11028068521051193
15.184152,4.637763911453345,0.10991969175016153
15.186531999999998,4.6495914203346125,0.10959850791326946
15.188936,4.66034799402924,0.10930276344307589
15.191324,4.66975409328351,0.10905348566550398
15.193704,4.67916019253778,0.10880776614612458
15.1961,4.6856330254858545,0.10861195184125633
15.198488,4.69131446250101,0.10842110498382979
15.200867999999998,4.701931266568778,0.10815084950078897
15.203264,4.715481336942741,0.10783660362266305
15.205652,4.727960472130066,0.10754550616027415
15.208031999999998,4.737925649891777,0.10726379449612314
15.210432,4.749333849892462,0.10699338208162246
15.212815999999998,4.761673215452927,0.10671053176699566
15.215199999999998,4.770799775453476,0.10649321396461395
15.217596,4.777365156200167,0.1063511607221507
15.219983999999998,4.779926335454025,0.10627621027796641
15.222363999999995,4.783418680267662,0.10618868640737127
15.224759999999998,4.791054996200993,0.10602187538514804
15.227147999999998,4.794407571387768,0.10594441215401498
15.229528,4.794547341014628,0.10593401215288452
15.231923999999998,4.801112721761319,0.10579406025119895
15.234311999999996,4.80767810250801,0.10565447087494001
15.236692,4.814103713627842,0.10552529380890344
15.239091999999998,4.818387454374395,0.1054384091478599
15.241479999999996,4.819737928814756,0.10539627139180538
15.243875999999998,4.817735828068338,0.10542959716960387
15.246272,4.812381152135145,0.10553810601595683
15.24866,4.807166245828812,0.10563465033158392
15.251039999999998,4.799949238776063,0.10576269671984316
15.25344,4.79473433246973,0.10585774914002387
15.255828,4.798039685828264,0.10584437658560063
15.258207999999998,4.7989708513880425,0.10583364186840856
15.260604,4.800972952134459,0.10580234722377668
15.262992,4.806048088813932,0.10571885817065003
15.265371999999996,4.810611368814206,0.10561514653187659
15.267767999999998,4.816105814374258,0.10549923792395592
15.270155999999998,4.8249528351210875,0.10531074001271629
15.272539999999998,4.835382647733752,0.10512343062680819
15.274944,4.85023597071983,0.10484346240145226
15.277332,4.862295797026575,0.10459285397770768
15.279716,4.863413954041457,0.1045126801877364
15.282112,4.865183737362397,0.10444195458619496
15.2845,4.866022355123559,0.10438182438277703
15.286879999999998,4.87435751919119,0.10417850425972322
15.289276,4.886417345497934,0.10393422146448539
15.291664,4.906345805163486,0.10357751203811977
15.294047999999998,4.927345200015676,0.10319870792820882
15.296444,4.944340393375032,0.10288286408963956
15.298828,4.96068396042833,0.10255763109284048
15.301211999999998,4.976375901175571,0.10222761190157881
15.303608,4.988482949310558,0.10193472061986888
15.305996,4.998587896699128,0.10167089770863802
15.308379999999998,5.00883261371456,0.10139962867892467
15.310784,5.018285934797072,0.10113004808977234
15.313175999999997,5.031743457372419,0.1008035767831287
15.315556,5.048553555134541,0.10041156553976557
15.317955999999995,5.064292717710025,0.100043660912535
15.320343999999997,5.076586757300116,0.09969689952838304
15.322724,5.086599156890069,0.09939920227547058
15.325127999999998,5.104108102786491,0.09897495364816605
15.327511999999995,5.128973825362523,0.09842913598690416
15.329896,5.149742798647106,0.09788856010016063
15.332291999999995,5.172793411931826,0.09730309251109358
15.334679999999995,5.189697953350434,0.09681737395495786
15.33706,5.201434810290953,0.09635792382218582
15.339463999999998,5.206933047566745,0.09594468283834279
15.341851999999998,5.211639888909617,0.09553022475285793
15.344232,5.215555334319573,0.09511126117605653
