Time,Force,Position
15.78022,0.1583032731491366,0.0
15.782604,0.16258701389569072,0.0
15.784984,0.16729006352282547,0.0
15.787388,0.1709221779633217,0.0
15.789776,0.16668565904501076,0.0
15.792156,0.16831567273909015,0.0
15.794552,0.16915429050025144,0.0
15.79694,0.17599921050066325,0.0
15.799320000000002,0.18046994270232075,0.0
15.801724,0.18494067490397822,0.0
15.804112,0.18075137781391037,0.0
15.806492,0.17749324628362087,0.0
15.808896,0.16888043882013865,0.0
15.811284,0.1565351554794983,0.0
15.813664,0.14699118245623785,0.0
15.81606,0.13558487831342075,0.0
15.818448,0.12990533715613375,0.0
15.820828,0.12874185417087816,0.0
15.823224,0.12236346487929015,0.0
15.825612,0.11146120377762582,0.0
15.827991999999998,0.10055894267596151,0.0
15.830388,0.09137924306699363,0.0
15.832776,0.08205977383116554,0.0
15.835168,0.07274030459533744,0.0
15.837564,0.06728526722548285,0.0
15.839952,0.05982812910921141,0.0
15.842332,0.05344192617957848,0.0
15.844736,0.04398268731689017,0.0
15.847124,0.03517507476025977,0.0
15.849504,0.026367462203629368,0.0
15.851896,0.020493115953194134,0.0
15.854284,0.014618769702758896,0.0
15.856668,0.012888394572017577,0.0
15.859064,0.013687604142980578,0.0
15.861448,0.010886293825600725,0.0
15.863828000000002,0.010087084254637724,0.0
15.866228,0.007425543564118083,0.0
15.868612,0.0021102758211236903,0.0
15.870992,0.004391915821260962,0.0
15.873408,0.006913686884920393,0.0
15.875792,0.011437558694996675,0.0
15.878172,0.011957229012239255,0.0
15.880568,0.011957229012239255,0.0
15.882956,0.011957229012239255,0.0
15.885336,0.011957229012239255,0.0
15.887732,0.011957229012239255,0.0
15.89012,0.011957229012239255,0.0
15.892504,0.011957229012239255,0.0
15.8949,0.011957229012239255,0.0
15.897288,0.011957229012239255,0.0
15.899684,0.011957229012239255,0.0
15.902080000000002,0.011957229012239255,0.0
15.904468,0.011957229012239255,0.0
15.906848,0.011158019441276255,0.0
15.909244,0.011158019441276255,0.0
15.911632,0.011158019441276255,0.0
15.914012,0.011158019441276255,0.0
15.916416000000002,0.011158019441276255,0.0
15.918804000000002,0.007565313190978294,0.0
15.921184,0.005043542127318863,0.0
15.923583999999998,0.00051967031724258,0.0
15.925968,0.0,0.0
15.928348,0.0,0.0
15.930751999999998,0.0,0.0
15.933136,0.0,0.0
15.935516,0.0,0.0
15.937912,0.0,0.0
15.9403,0.0,0.0
15.94268,0.0,0.0
15.945076,0.0,0.0
15.94746,0.0,0.0
15.949839999999998,0.0,0.0
15.952252,0.0,0.0
15.954636,0.0,0.0
15.95702,0.0,0.0
15.95942,0.0,0.0
15.961808,0.0,0.0
15.964188,0.0,0.0
15.966584,0.0,0.0
15.968968,0.0,0.0
15.971364,0.0,0.0
15.973764,0.0,0.0
15.976152,0.0,0.0
15.978532,0.0,0.0
15.980936,0.0,0.0
15.98332,0.0,0.0
15.9857,0.0,0.0
15.988104,0.0,0.0
15.990492,0.00010036143666194899,0.0
15.992871999999998,0.003925385112437179,0.0
15.995268,0.006679473601573879,0.0
15.997656,0.009293792463850368,0.0
16.000036,0.011768341699266648,0.0
16.00244,0.01396335168096251,0.0
16.004828,0.01396335168096251,0.0
16.007208,0.01396335168096251,0.0
16.009612,0.013963351680962511,0.0
16.011996,0.013963351680962511,0.0
16.014376,0.01629813128951858,0.0
16.01678,0.017841514965156537,0.0
16.019164,0.017841514965156537,0.0
16.021544,0.017841514965156537,0.0
16.023948,0.017841514965156537,0.0
16.026336,0.017841514965156537,0.0
16.028716,0.017841514965156537,0.0
16.031112,0.017841514965156537,0.0
16.0335,0.017841514965156537,0.0
16.03588,0.017841514965156537,0.0
16.038276,0.01774115352849459,0.0
16.040664,0.013916129852719361,0.0
16.043044,0.011162041363582662,0.0
16.04544,0.00854772250130617,0.0
16.047824,0.00607317326588989,0.0
16.050204,0.00387816328419403,0.0
16.052608,0.00387816328419403,0.0
16.054996,0.00387816328419403,0.0
16.057376,0.00387816328419403,0.0
16.05978,0.00387816328419403,0.0
16.062168,0.0015433836756379594,0.0
16.064548,0.0,0.0
16.066944,0.0,0.0
16.069332,0.0,0.0
16.071716,0.0,0.0
16.07412,0.0,0.0
16.076504,0.0,0.0
16.078884,0.0,0.0
16.081288,0.0,0.0
16.083676,0.0,0.0
16.086056,0.0,0.0
16.08846,0.0,0.0
16.090848,0.0,0.0
16.093224,0.0,0.0
16.095628,0.0,0.0
16.098016,0.0,0.0
16.100396,0.0,0.0
16.102792,0.0,0.0
16.105176,0.0,0.0
16.10756,0.0,0.0
16.109964,0.0,0.0
16.112348,0.0,0.0
16.114728,0.0,0.0
16.117132,0.0,0.0
16.11952,0.0,0.0
16.1219,0.0018682488997322877,0.0
16.124304,0.007506486008951765,0.0
16.126692,0.021151230245969408,0.0
16.129068,0.037308036050732345,0.0
16.131464,0.06277460159540924,0.0
16.133852,0.09489719982752536,0.0
16.136232,0.13381560037394089,0.0
16.138635999999998,0.17552560174182213,0.009315593577143011
16.141024,0.22761629803625588,0.01799815293530046
16.143404,0.2865953444436061,0.026778428599382856
16.1458,0.3538132154042318,0.035414984126394065
16.148188,0.4256850183058798,0.04421633329234875
16.150568,0.5042128538949671,0.05296945940137915
16.152964,0.5893967221714935,0.06168189848700125
16.155348,0.6817484798146569,0.07039113799407944
16.157728,0.7843411627575125,0.07886883248704168
16.160136,0.8957317487610843,0.0871782706946011
16.16252,1.015640698571652,0.09539162233727702
16.1649,1.138853105882883,0.10383058951869292
16.167308,1.2667194451351365,0.11236937639249209
16.169692,1.3971391500032029,0.12093466776392915
16.172072,1.5321221348715437,0.12923622854538067
16.174476,1.6644060667170357,0.1373510895385889
16.176864,1.8001842392340333,0.14519959623650594
16.179244,1.9275838175708953,0.15301490213905197
16.181648,2.050189694339874,0.1607650052775312
16.184036,2.169584661406807,0.16840682535557625
16.186416,2.2894008332121896,0.16659079099174448
16.18882,2.3991158493447404,0.16537371398024736
16.191204,2.5045036946182324,0.16391778517393293
16.193584,2.6015129457115886,0.16262221459980536
16.195984,2.696382222289537,0.161111841304103
16.198368,2.784967553232384,0.1596877187383223
16.200748,2.8676882474207095,0.15829321466541948
16.203152,2.9433808218692588,0.15688565535150126
16.20554,3.004968039152142,0.15583751069074872
16.20792,3.057338044493728,0.15500794817161204
16.210316,3.1018413123343764,0.15427919393644463
16.212704,3.1451829930476385,0.15323486849120233
16.215084,3.182148180327182,0.15213054010983607
16.217488,3.216973393091317,0.1508942522816487
16.219876,3.240671840966356,0.1500055231229542
16.222256,3.2549188636167514,0.14947151393184527
16.224652,3.25980700884112,0.14936678942127127
16.227036,3.266837024438766,0.1491669612691486
16.22942,3.2701423777972987,0.1490938200466319
16.231816,3.266929572237384,0.14924197459080976
16.2342,3.2602244218638314,0.14956852859441117
16.23658,3.2541708977963375,0.14989670775032723
16.238984,3.245416424848126,0.15038400310922576
16.241368,3.2372210304073548,0.15080081487099495
16.243752,3.222926785928717,0.15138026669653126
16.246148,3.206537892905044,0.15197067186000315
16.248536,3.1904285391350924,0.1525197269224214
16.250916,3.1753901205517785,0.1530150458384583
16.25332,3.168499874580993,0.15318347873607374
16.255708,3.163239642304287,0.15323607587419086
16.258088,3.1556052222288264,0.15332732783856007
16.260492,3.14475799659345,0.15355727428528354
16.262876,3.1396375339436045,0.15359077192413106
16.265256,3.1331665968533993,0.15370033671047878
16.26766,3.130420322002307,0.1536970243460168
16.270048,3.13209755752463,0.15349178038745098
16.272424,3.134333871554393,0.15321102488227828
16.27482,3.129632717785127,0.15319786397349786
16.277208,3.124791794389002,0.1532045761026002
16.279588,3.123023906925931,0.15308012773331864
16.281992,3.1224667242763595,0.15288774529174928
16.284375999999998,3.1181848793876745,0.1528243737755461
16.28676,3.115113739312488,0.15269218702166057
16.289156,3.1085502544236667,0.15274977904900056
16.291544,3.108504928453293,0.15257706162129128
16.293924,3.1081800632291983,0.15243950136993684
16.29632,3.106784262818466,0.15235435975016628
16.298708,3.1041777575942344,0.15233920909633653
16.301088,3.0968682027428676,0.15257900966888843
16.303492,3.0884877127048633,0.15286564047683293
16.305876,3.0819695537864145,0.15309024982273128
16.308256,3.075451394867966,0.1533186009356301
16.31066,3.061995768150489,0.15382696086567935
16.313048,3.0477487455000936,0.15434542140877006
16.315428,3.0316393917301414,0.1549285159665618
16.317832,3.0180439953858045,0.155440108105439
16.32022,3.0121774627734137,0.15566075546833355
16.3226,3.011897923519694,0.15569653340970546
16.325004,3.0194870176247806,0.155434333795756
16.327392,3.0275879684090645,0.15519532654936896
16.329772,3.036759854379987,0.15491400992209836
16.332168,3.051518733709581,0.15445287555943787
16.334556,3.0641357426658966,0.15408653668847408
16.336936,3.0836902194212414,0.15345979713043
16.339332,3.100311429870391,0.1529507360462995
16.341716,3.1248012736783477,0.15217346619554126
16.344096,3.149151347859444,0.15141157683432713
16.3465,3.175223983533237,0.1506161544403906
16.348888,3.204509424766946,0.14969329649024146
16.351268,3.235377657866491,0.1487574215623059
16.353668,3.2655470428317344,0.14789940090674203
16.356056,3.3014431907825084,0.1468745851406263
16.358436,3.339993065785757,0.14575521287931062
16.36084,3.377332235975507,0.14469224152579832
16.363224,3.419467003591009,0.143490175005929
16.365607999999998,3.456945943407619,0.1424375647421366
16.368004,3.48734764579834,0.14166250357348548
16.370388,3.5180288874427816,0.14087335206811472
16.372772,3.5416328916613344,0.1403522156916551
16.375172,3.5657959743873264,0.13977463996274486
16.37756,3.588888121926681,0.13924894979367178
16.37994,3.609838399092759,0.13881293936037306
16.382336,3.633721942565032,0.1382892759584013
16.384724,3.6526701189846924,0.13792597269102103
16.387104,3.6693366554042157,0.13765009039362727
16.389499999999998,3.6812075943979874,0.1375214461528863
16.391888,3.695360173391896,0.13730500925644668
16.394272,3.7087213564528874,0.13710049577227734
16.396672,3.7194288124614032,0.13695349884857774
16.39906,3.727482541417445,0.1368597233318743
16.40144,3.7394479240677025,0.13658772237672323
16.403836,3.746105852613011,0.13642323642935017
16.406224,3.75304332041204,0.13622993021164323
16.4086,3.760120557837929,0.13602032645130144
16.411004,3.762262428211206,0.13594919821730161
16.413391999999998,3.770270831196873,0.13572361745881895
16.415772,3.7825629749290943,0.13535710198382384
16.418176,3.793923953101538,0.13501734606431123
16.42056,3.807706340900979,0.13458045076974015
16.42294,3.820278023886921,0.1341949502521807
16.425336,3.830195979820388,0.1338569126804726
16.427724,3.840021387955238,0.13345934605241003
16.430104,3.8498467960900884,0.1330676611997768
16.432504,3.8627452401579934,0.13259004253961773
16.434888,3.8843509353458674,0.13184341445918277
16.437272,3.9033029034812667,0.13114274009636953
16.439668,3.920904397176307,0.13050989982439298
16.442056,3.935572624565152,0.1299455982718618
16.444452,3.9490301471404985,0.12942543554753874
16.446848,3.963698374529344,0.12885839876741093
16.449236,3.9730119259849963,0.12845847060323473
16.451616,3.9806954637465695,0.12814039322487253
16.454012,3.9894499366947813,0.1277910365781436
16.4564,4.002208611135826,0.12734166517396622
16.458784,4.014175889643954,0.12689275505463343
16.461184,4.022138966659247,0.1265542550373827
16.463572,4.030102043674541,0.126221925469552
16.465952,4.037133955130057,0.12590987470198575
16.468356,4.042955161772072,0.1256435685324664
16.470744,4.045703332481033,0.12545571527430546
16.47312,4.048963359869192,0.1252865946222116
16.475524,4.050313834309551,0.1252281932902773
16.477912,4.046077315391241,0.12528375103047168
16.480292,4.04090963091315,0.12535671437053447
16.482696,4.025963760128455,0.1257238828899596
16.485084,4.013392077142512,0.1260755682853027
16.487464,3.9980268974772355,0.12648577353679305
16.489868,3.9837326529985972,0.12686952690423403
16.492256,3.9705093437065972,0.12722312559219975
16.494636,3.956587186280296,0.1276436680410022
16.497032,3.9485315614663863,0.1279208542405381
16.49942,3.9459703822125287,0.12802412128118718
16.5018,3.943409202958671,0.1281264248586477
16.504196,3.936564282958259,0.12835343725670048
16.506584,3.935725665197098,0.12843065557022504
16.508964,3.9348870474359363,0.12850787388374962
16.51136,3.927762588181804,0.12876020080287107
16.513748,3.9211499856068692,0.12903245222194415
16.516128,3.9125352822855177,0.12935688592729636
16.518524,3.9128601475096123,0.12946234632089312
16.520912,3.9153268831069834,0.1295054855793506
16.523288,3.926221330570603,0.12931785038292323
16.525696,3.942702771392892,0.12902061959931474
16.52808,3.958113277028543,0.12875602429664057
16.530464,3.978878458597386,0.12833391679423148
16.53286,3.997781309046673,0.12794656363820214
16.535248,4.018826029869237,0.12749317144283825
16.537632,4.0417330818113575,0.12700300687380336
16.540028,4.064779903380338,0.12650082440596977
16.542416,4.090527673830037,0.12588941926920655
16.544796,4.111619616480844,0.12537715064217925
16.5472,4.129358983944876,0.12497564283456883
16.549588,4.146679042528326,0.12461432085229013
16.551968,4.164278640365497,0.12422337791475836
16.554372,4.176663331896336,0.12397483258268635
16.55676,4.188116857867396,0.12374251897659877
16.55914,4.206647621264346,0.12333568675464945
16.561544,4.226808398355374,0.12285501613438757
16.563928,4.251113146566096,0.12226854649955698
16.566308,4.267828800671733,0.12184117389242034
16.568712,4.284684224404228,0.12140542937412911
16.5711,4.288456108471585,0.12127113213994832
16.57348,4.288363560672968,0.12121466591950875
16.57588,4.288410782501211,0.12114607024456063
16.578264,4.285664507650121,0.12112653386592005
16.580644,4.283989167985666,0.12107860507004717
16.583044,4.283244993880991,0.12101439890635889
16.585428,4.281849193470258,0.12094234103344828
16.587804,4.2816640978730245,0.12083044534898538
16.590208,4.278266196715874,0.12080193259652783
16.592592,4.274868295558725,0.12077337534126592
16.594972,4.274031573655433,0.12065380216190112
16.597368,4.274033469513302,0.12046386950299144
16.599756,4.279110502050644,0.12016461200694993
16.602136,4.285677778655204,0.11980299505323837
16.604532,4.292384824886625,0.11942788115417596
16.60692,4.29736930962535,0.11907598496257103
16.6093,4.297278657684602,0.1188330966049099
16.611704,4.295325674624297,0.11862075203045323
16.614092,4.296166188243328,0.11836421617537737
16.616476,4.2983571763027175,0.1180613293811089
16.618872,4.307625401787996,0.11760542148095002
16.62126,4.320897828766109,0.11706744103848488
16.623639999999998,4.335241190930859,0.11650647764560537
16.626036,4.351726423468887,0.11589569720639226
16.628424,4.372355627126608,0.1152030681079104
16.63082,4.390051564478135,0.11456320462779485
16.633216,4.406676566643023,0.1139490225020065
16.635604,4.424232734367689,0.11333016296099707
16.637984,4.441928671719216,0.11269688384822152
16.64038,4.461347170563439,0.11204778521000583
16.642768,4.476342159034248,0.11151264714242091
16.645148,4.489195277131779,0.11103055973362733
16.647544,4.49604209299006,0.1106664800142898
16.649932,4.5023298303409005,0.11034762948815373
16.652312,4.508617567691741,0.11002758272820065
16.654708,4.513694600229082,0.10974446938035191
16.657096,4.522636064632396,0.10939556856261336
16.659476,4.532089385714909,0.10906829064925992
16.66188,4.540471771610784,0.10876662738922865
16.664268,4.544151107879523,0.10859570543691033
16.666648,4.551834645641096,0.10835543683516276
16.669052,4.556864456350194,0.10814344491674195
16.67144,4.559612627059156,0.10798936863831694
16.67382,4.559799618514258,0.1079148113526998
16.676216,4.553980307730112,0.10794698263680966
16.678604,4.5528168247448555,0.10791759549887435
16.680984,4.557380104745132,0.10780563688625217
16.683388,4.557380104745132,0.10780563688625215
16.685776,4.558962896610968,0.10780297570285387
16.688156,4.561476854036582,0.10778860297979936
16.690552,4.56785524332817,0.1077160653689521
16.69294,4.57753898597829,0.10762887965836437
16.69532,4.588945290121107,0.10752742637814937
16.69772,4.602353695010341,0.1073924601256063
16.700104,4.618276057325188,0.10724382254296991
16.702484,4.634338189266898,0.10708505355266623
16.704892,4.652262652328163,0.10690686461371769
16.707276,4.673399920949345,0.10666817928259328
16.70966,4.697749995130442,0.10636987903283264
16.712056,4.726383810058093,0.105984529029164
16.714444,4.745007121253659,0.10576270812171389
16.71682,4.768006720994396,0.10550986392958969
16.719216,4.79314819110841,0.1052147444115924
16.7216,4.820431531595702,0.104875949322273
16.72398,4.850368599135469,0.10451200488979115
16.726396,4.877651939622761,0.10417575909282517
16.72878,4.899999913057441,0.1039205502841683
16.73116,4.9277025624253135,0.10356245208478511
16.733564,4.958757786979961,0.10314107544326293
16.735952,4.990092550788329,0.10270733182246462
16.738332,5.019704753104001,0.10228786964649653
16.740736,5.046663228367199,0.10189242129724603
16.743124,5.07161960288398,0.10152264515849312
16.745504,5.093922250348285,0.1011753488750028
16.747896,5.11757537225295,0.10079530554073407
16.750284,5.1410887245307535,0.10042539361413261
16.752664,5.159806479382807,0.10011588124218039
16.755068,5.174799571995746,0.09985012485873809
16.757456,5.185648693488992,0.09965283083054632
16.759836,5.193844087929763,0.09947552345020749
16.762232,5.207114619050007,0.0992196350813828
16.76462,5.2152174656921595,0.09899439689938899
16.766996,5.2214579812147575,0.09878829825133581
16.769404,5.228909201550853,0.09855615791173293
16.771788,5.233986234088194,0.09832340320656739
16.774168,5.241344906625672,0.0980465207201625
16.776572,5.247772413603373,0.09777811736181612
16.778956,5.251266654274878,0.0975480949560294
16.781336,5.248894362333994,0.09739059592356404
16.783736,5.244799508900412,0.09724178335165351
16.786124,5.24191536028033,0.09706641671130833
16.788504,5.240241916473745,0.09686480214649747
16.7909,5.245413392667572,0.09653337133514424
16.793284,5.253657904794456,0.09616072273936538
16.79568,5.259900316174922,0.0958168614316427
16.79808,5.26642226680911,0.09545572520279808
16.800468,5.274946318189713,0.09506831002185337
16.802848,5.280257564010401,0.0947298848891955
16.805252,5.285708579457949,0.09438134745605267
16.807636,5.291950990838416,0.09403344915011869
16.81002,5.301266438151938,0.09364666820646846
16.812416,5.313887238823992,0.0932553723688044
16.814804,5.327299435428963,0.09286440908799995
16.817184,5.335916034608184,0.09252217413748914
16.81958,5.3479777567727975,0.0921664915736123
16.821968,5.357618069310413,0.09186440558545844
16.824348,5.367258381848028,0.09156098158271363
16.826744,5.373825658452589,0.09129707502140079
16.829132,5.384257366923124,0.09099336786557045
16.831512,5.391336500206883,0.0907475526368005
16.833908,5.3973446983040025,0.0905198683994885
16.836296,5.402561500468205,0.09029229691250798
16.838676,5.401212921885716,0.09017305741485993
16.84108,5.395720372183534,0.09010986552103487
16.843468,5.38929665692157,0.0900539348564146
16.845848,5.382593402405888,0.09001527911291625
16.848252,5.373888047143789,0.09000008190852113
16.85064,5.369047123747662,0.08994664170906531
16.85302,5.366999697030871,0.08987094891184752
16.855415999999998,5.362810399940803,0.08982752397960828
16.857804,5.354197592477322,0.08985737352398977
16.860188,5.342651518707644,0.08991804696130774
16.862584,5.332176380124605,0.08996219608297615
16.864968,5.326357069340458,0.08996965216159651
16.867348,5.318815197063613,0.08998260833505546
16.869748,5.3082002888537145,0.09003577975063227
16.872136,5.296514445457177,0.09010613732826159
16.874532,5.289763969113252,0.09012173314005538
16.876928,5.279009291276492,0.09018450884299736
16.879316,5.272119045305707,0.09020909949064708
16.881696,5.263459016013982,0.09029501022667745
16.884092,5.253168973028178,0.09043315490308193
16.88648,5.246603592281486,0.09054095839374023
16.88886,5.24283170821413,0.09062622588423565
16.891264,5.238920054519913,0.09072032469152531
16.893652,5.236079336012335,0.09079767135405784
16.896031999999998,5.236963279743871,0.0908448527282565
16.898436,5.236124661982709,0.09089819268092664
16.900824,5.231281842728714,0.09099941327933046
16.903208,5.23258509534083,0.09101992462412099
16.905604,5.235378592020164,0.09099754012207645
16.907988,5.239802102393579,0.0909234638577434
16.910368,5.242503051274296,0.09085558413360703
