Time,Force,Position
16.255995999999996,0.14276450849490196,0.0
16.258376,0.12449429927165455,0.0
16.260779999999997,0.1052929244886288,0.0
16.263168,0.09102691675821509,0.0
16.265544,0.07890277940107843,0.0
16.267947999999997,0.06505608055124533,0.0
16.270336,0.05242008651491097,0.0
16.272715999999996,0.03857338766507788,0.0
16.27512,0.028870659934938703,0.0
16.277507999999997,0.022240968137854904,0.0
16.279888,0.017753146714048172,0.0
16.282291999999998,0.013405094917101647,0.0
16.284675999999997,0.006123776813959951,0.0
16.287056,0.0031261994573723775,0.0
16.289456,0.002130722847201655,0.0
16.29184,0.0011352462370309323,0.0
16.294219999999996,0.0,0.0
16.296624,0.0,0.0
16.299011999999998,0.0,0.0
16.301392,0.0,0.0
16.303787999999997,0.0,0.0
16.306176,0.0,0.0
16.308555999999996,0.0,0.0
16.310952,0.0,0.0
16.313339999999997,0.0,0.0
16.31572,0.0,0.0
16.318115999999996,0.0,0.0
16.320504,0.0,0.0
16.322884000000002,0.0,0.0
16.325283999999996,0.0,0.0
16.327672,0.0,0.0
16.330052000000002,0.0,0.0
16.332448,0.0,0.0
16.334835999999996,0.0,0.0
16.337232,0.0,0.0
16.339627999999998,0.0,0.0
16.342016,0.0,0.0
16.344395999999996,0.0,0.0
16.346787999999997,0.0,0.0
16.349176,0.0,0.0
16.351556000000002,0.0,0.0
16.35396,0.0,0.0
16.356344,0.0,0.0
16.358724000000002,0.0,0.0
16.36112,0.0,0.0
16.363507999999996,0.0,0.0
16.365904,0.0,0.0
16.368299999999998,0.0,0.0
16.370683999999997,0.0,0.0
16.373064,0.0,0.0
16.375459999999997,0.0,0.0
16.377848,0.0,0.0
16.380228000000002,0.0,0.0
16.382632,0.0,0.0
16.385019999999997,0.0,0.0
16.3874,0.0,0.0
16.389795999999997,0.0,0.0
16.392184,0.0,0.0
16.394563999999995,0.0,0.0
16.39696,0.0,0.0
16.399344,0.0,0.0
16.401739999999997,0.0,0.0
16.404136,0.0,0.0
16.406523999999997,0.004487821423806734,0.0
16.408904,0.011769139526948429,0.0
16.411299999999997,0.019050457630090122,0.0
16.413688,0.026471545360092028,0.0
16.416067999999996,0.031890532343677086,0.0
16.418464,0.037169749700401926,0.0
16.420851999999996,0.04244896705712677,0.0
16.423248,0.049590515533408264,0.0
16.42564,0.05659229438282954,0.0
16.428027999999998,0.06359407323225082,0.0
16.430408,0.06873352096211545,0.0
16.432803999999997,0.07401273831884028,0.0
16.435192,0.07836079011578682,0.0
16.437576,0.08471094265915019,0.0
16.439971999999997,0.09092132557565336,0.0
16.442355999999997,0.09792310442507464,0.0
16.444752,0.10399371771471759,0.0
16.447156,0.10792246063108349,0.0
16.449543999999996,0.11366631283876287,0.0
16.451923999999998,0.12387900139023049,0.0
16.454319999999996,0.1310922167272413,0.0
16.456708,0.13658097471368644,0.0
16.459088,0.14751506057407204,0.0
16.461484,0.16789867580123183,0.0
16.463872000000002,0.20094462595508134,0.0
16.466251999999997,0.2392035865573941,0.008300054551170145
16.468648,0.2814648527946713,0.016877098510069424
16.471032,0.32437584948013715,0.02604239112515118
16.473416,0.3727321740395435,0.035371369908236784
16.475811999999998,0.4276047616595289,0.04463107672337665
16.4782,0.4903440867804522,0.05379569903663596
16.480579999999996,0.557877113469258,0.06300711494782166
16.482976,0.6303436113528066,0.07234247435313419
16.485363999999997,0.7054619404309608,0.08178329577365612
16.487747999999996,0.7875158414502746,0.09109868201974075
16.490144,0.8726408825447746,0.10054557455191016
16.492531999999997,0.9677745315134894,0.1096631601589548
16.494915999999996,1.0681211909306676,0.11893565479550855
16.497307999999997,1.1682808588927422,0.12839195626962044
16.499696,1.2689523835340148,0.13773397361196993
16.502091999999998,1.3719527700036678,0.14695181374171348
16.504488000000002,1.4766776138238862,0.15600751017115216
16.506876,1.5780990001434414,0.16490984595620253
16.509256,1.667649447469225,0.1739908878140586
16.51166,1.742116150241321,0.18342419306646948
16.514048000000003,1.810019368124595,0.18472488394086167
16.516427999999998,1.8775051729851577,0.1855418760532096
16.518824000000002,1.944341247397532,0.18565915577047612
16.521212,2.006151302816546,0.185561436284674
16.523595999999998,2.063307426294538,0.18542607751805779
16.525992000000002,2.1185558926825996,0.18522840154701092
16.52838,2.1729676371673685,0.18483666728026169
16.53076,2.2257512638159276,0.1842506604426548
16.533155999999998,2.2768142248296597,0.1834031988592463
16.535544,2.324526506514485,0.1825542693722682
16.537923999999997,2.372752540736377,0.18141374181116532
16.54032,2.4130646156290885,0.18062615925928036
16.542707999999998,2.456963478991922,0.1794033329032623
16.545104000000002,2.502447030078461,0.1778362554270682
16.5475,2.5412273266493175,0.17643300626038802
16.549887999999996,2.575910873928723,0.17519166640086153
16.552267999999998,2.612037443447105,0.1739985436630169
16.554664000000002,2.6463942296445473,0.17299866791314936
16.557052,2.6839638214019055,0.17178700217512358
16.559432,2.727819254652234,0.17015808413310782
16.561831999999995,2.7748874934624785,0.168315868336429
16.56422,2.8178117611530293,0.1667510957264591
16.5666,2.8579425321642455,0.16532999535463208
16.568996,2.8988646991083793,0.16391026915803047
16.571384000000002,2.9372729086268983,0.16259389605318225
16.573763999999997,2.9707929729210485,0.16144920841659743
16.57616,2.997143251990693,0.1605869418955438
16.578547999999998,3.0249837751275566,0.15964556427151352
16.580931999999997,3.0489598663984463,0.1588923665556689
16.583335999999996,3.067908042818107,0.15829528591639278
16.585720000000002,3.0806175995730394,0.15792486743234804
16.588099999999997,3.092023903715856,0.15754923789048592
16.590496,3.0957013441267267,0.15750658884167523
16.592883999999998,3.097888540470377,0.15757477996714017
16.595267999999997,3.1045917949860597,0.1574941093343859
16.597664,3.111714358382323,0.1573577711854376
16.600048,3.1159508773006337,0.1572499596225897
16.602444,3.1223764884204654,0.1569530345610376
16.604847999999997,3.1292214084208765,0.15660781712585717
16.607236,3.1366254069287294,0.15620219854129982
16.609615999999995,3.1476615198770785,0.155624227248604
16.61202,3.1592567113328682,0.15497552212351437
16.614404,3.174576565027771,0.15421708743767315
16.616788,3.190687814655592,0.15345829215715345
16.619191999999998,3.207171151335751,0.1527340397649966
16.62158,3.224306114321967,0.15201103335717223
16.623956,3.2457248180547382,0.15109698527069274
16.626364000000002,3.2624876939886174,0.15034174814717943
16.628752,3.280181735482275,0.1495543238460728
16.631127999999997,3.3001101951478264,0.14874371713500012
16.633532000000002,3.3248342522391297,0.1477781474406738
16.63592,3.347835747837736,0.14684255332488327
16.6383,3.3739102793693982,0.14579083187193775
16.640704,3.399193414968142,0.14476498863115625
16.643091999999996,3.421683053887551,0.14383846297084257
16.645471999999998,3.444964088739878,0.14290639259953516
16.647872,3.4650323180322893,0.14210692824956847
16.650256,3.481328663257344,0.1415110453113912
16.652639999999998,3.49613476441518,0.14101176409093258
16.655035999999996,3.5091710822520765,0.1406439261534584
16.657424,3.5147108537825034,0.14057432105442216
16.659804,3.521601099753289,0.14043388973382087
16.662203999999996,3.5230441219922657,0.14043010475694415
16.664592,3.5181087549396537,0.1405899733614309
16.666972,3.514943171207982,0.14062896087547264
16.669368,3.512988292289808,0.14061107666269926
16.671756000000002,3.510893643744774,0.14060824787617293
16.674135999999997,3.50865922557288,0.14062118639228807
16.676539999999996,3.5042829370277087,0.14071706432473793
16.678928,3.4992550221764795,0.14080691066859227
16.681308,3.4926443154594145,0.14091184978195154
16.683704,3.4888271054216835,0.14094308045879778
16.686092000000002,3.4820766290777576,0.14106309858607316
16.688471999999997,3.4713219512409985,0.14131666335018034
16.690872,3.460427503777379,0.141586380301573
16.693260000000002,3.447530955567343,0.1419226461749775
16.695639999999997,3.4332839329169476,0.1423442939201721
16.69804,3.418245514333635,0.14278588444389703
16.700428000000002,3.3993426638843482,0.14336650406727677
16.702807999999997,3.3797881871290034,0.14394107046648424
16.705204000000002,3.360373480000519,0.14451571740973296
16.707591999999998,3.3373266584315386,0.14527981645385654
16.709972,3.31879589503459,0.14591994002293862
16.712376,3.3071553776084266,0.14640515741072913
16.71476,3.29439670316738,0.14701953463383197
16.71714,3.282569194286114,0.14759567146248875
16.719540000000002,3.2685998150315694,0.14826093905175092
16.721924,3.2534197309635267,0.14899964992586873
16.724303999999997,3.2443857187615945,0.14949536404725958
16.726712,3.2362828721194408,0.14996087113535797
16.729096,3.2226855799172345,0.1506757611020482
16.731476,3.2072259565954715,0.15144800973332254
16.733871999999998,3.1936286643932648,0.15216289970001282
16.73626,3.1881795448035852,0.15256202472147262
16.738644,3.182730425213906,0.1529620345953172
16.741039999999998,3.1795629456243657,0.1532555315693164
16.743428,3.1820296812217372,0.15329232632348982
16.745807999999997,3.188500618311942,0.1531829481155147
16.748204,3.200838088014537,0.15286515974945666
16.750591999999997,3.213175557717132,0.15254737138339863
16.752972,3.2295172289125613,0.1520806856779559
16.755367999999997,3.2473491441752094,0.15150571938865282
16.757756,3.263458497945161,0.15097973539655402
16.76014,3.280266699849414,0.15038703620697724
16.76254,3.2979135195148284,0.14969935513228536
16.764927999999998,3.3118356769411292,0.1491255727701173
16.767308,3.3278997047407075,0.14846313396738145
16.769708,3.3491786388466176,0.14759898919383715
16.772092,3.370457572952528,0.1467725554733713
16.774476,3.3918762766852986,0.14593932318263414
16.776871999999997,3.41944105228418,0.14487157327771905
16.77926,3.4500788638161164,0.14370048843815209
16.781639999999996,3.479925279415135,0.14254737965962505
16.784044,3.502834227215125,0.141642758741002
16.786431999999998,3.5272334190823336,0.14065736087966865
16.788815999999997,3.552563776509321,0.1396659995150074
16.791212,3.574401789122673,0.13883325857062145
16.793599999999998,3.5954484058031055,0.13802401969256026
16.795983999999997,3.6189164321105363,0.13713513873102423
16.79838,3.644386559164384,0.13619482635073132
16.800767999999998,3.6661320239791175,0.13534787036876017
16.803148,3.690670985473187,0.13443948591565041
16.805543999999998,3.7180034436465914,0.13347877093322896
16.807932,3.744544505887077,0.13255205270315867
16.810311999999996,3.767732992940787,0.131742334398506
16.812708,3.795437538166529,0.13084507461768655
16.815095999999997,3.8243527882057693,0.12991570915582115
16.817479999999996,3.850055232685094,0.12910204755712207
16.819876,3.8685406701116696,0.1285010347805219
16.822263999999997,3.8851637764186884,0.12794192502730944
16.824647999999996,3.898574077165792,0.12748515322180004
16.827044,3.911425299405454,0.12708950094432564
16.829431999999997,3.9275818750036495,0.12666272631095982
16.831815999999996,3.946252408027459,0.12620125974998025
16.834212,3.9651552584767455,0.12579401632443565
16.836599999999997,3.9834990304185918,0.12544680900216484
16.83898,4.006638399786189,0.1249980337354796
16.84138,4.031360561019623,0.12454886850427123
16.843767999999997,4.051519442252783,0.12425745736779527
16.846151999999996,4.07260948904572,0.12395779991659926
16.848548,4.097936054756969,0.12361035912473427
16.850935999999997,4.12219168528158,0.12329865332138416
16.853319999999997,4.1421635750596355,0.12310548940764147
16.855724000000002,4.159574285583833,0.12301000083656022
16.858112,4.184993399093699,0.12273860464021495
16.860492,4.2064083111107315,0.12255814077457647
16.862887999999998,4.224982504620185,0.12249595136992622
16.865276,4.245558798876056,0.12239085208326138
16.867655999999997,4.27027906425162,0.12218047300327228
16.870052,4.2984444526125785,0.12193215133641755
16.872439999999997,4.331824747279868,0.12156057428631378
16.87482,4.363762019708183,0.1211882472274896
16.877215999999997,4.390531607658408,0.12087830826076497
16.879604,4.415578634115937,0.1205857908091769
16.881988,4.439182638334489,0.12029173209460213
16.884383999999997,4.462414555500704,0.11997086034910363
16.886772,4.4819218104278065,0.11971705044696188
16.889167999999998,4.495282993488797,0.1195993146273593
16.891564000000002,4.5087839461766475,0.1194688161921376
16.893948,4.514276495878831,0.11950740080792605
16.896332,4.520467893715317,0.11948938740375248
16.898728,4.529732327484855,0.1194058746267831
16.901116000000002,4.541418170881394,0.11924674514228831
16.903495999999997,4.551381452785234,0.11910386899752487
16.905899999999995,4.554686806143767,0.11907895542736749
16.908288,4.559342633942659,0.11900518210091142
16.910668,4.564976849129573,0.11885221981611344
16.913067999999996,4.569959438010427,0.11869328111824275
16.915456,4.575221566145002,0.11851339398649735
16.917836,4.578109506480823,0.11834468982768755
16.920232,4.577272784577532,0.11823352838227176
16.922620000000002,4.575644666741323,0.11812511241423009
16.924999999999997,4.576949815211307,0.11796421388188018
16.927396,4.582818243681567,0.11768495693619381
16.929783999999998,4.587895276218908,0.11740835258245928
16.932167999999997,4.590039042450055,0.11718312827397645
16.934564,4.591391412748282,0.11696019820574662
16.936951999999998,4.59544473192723,0.11664146300894518
16.939332,4.6008485255465335,0.11627704021405161
16.941727999999998,4.6126779302856695,0.11575843655185769
16.944116,4.621574068718612,0.11529841213094844
16.946495999999996,4.625674609725801,0.1149211539157389
16.948895999999998,4.632987956292904,0.11447798660384174
16.951284,4.645655978793202,0.11391868681003252
16.95368,4.657392835733721,0.11336898018961458
16.956075999999996,4.669269462301101,0.1128098681659899
16.958464,4.681937484801399,0.11225219589888308
16.960848,4.690461536182,0.11177571943673373
16.963243999999996,4.700056522749243,0.1112812434810584
16.965632,4.711374070809182,0.11077592803715934
16.968012,4.7224120796154,0.11029242189755564
16.970411999999996,4.736383354727813,0.1097649114593748
16.9728,4.747002054653452,0.10931475599701475
16.97518,4.753057474578814,0.10897899651912252
16.977576,4.758693585623595,0.10867314337599823
16.979968,4.7672629629745735,0.10832043831138272
16.982343999999998,4.7795570025646645,0.1079222196526755
16.984740000000002,4.797717574767146,0.10743996356452654
16.987128,4.813876046223211,0.10699278700084758
16.989508,4.8278926473059975,0.10659097541865269
16.991912,4.838696442828869,0.10625188848658207
16.994296,4.845635806485768,0.1059653095732744
16.996676,4.842564666410581,0.10584853422677531
16.999083999999996,4.832416288909506,0.10585570352568173
17.001467999999996,4.822128141781572,0.10587425741800094
17.003852000000002,4.812771160213414,0.105879761692603
17.006248,4.802063704204898,0.10592789602156275
17.008635999999996,4.798573255249131,0.10584158181496091
17.011015999999998,4.7907990655468105,0.10584299128933652
17.013412000000002,4.780231379165155,0.10587830841652675
17.0158,4.7679411312908035,0.10592674212045271
17.01818,4.753229473789453,0.10603803996143386
17.020579999999995,4.742801557034658,0.10606229502955364
17.022964,4.7303715395334445,0.10612227070026126
17.025343999999997,4.717150126099313,0.10618514220830082
17.027744,4.701786842291905,0.1062920192929973
17.030127999999998,4.680696795498967,0.10647978147637993
17.032524000000002,4.651458576093502,0.10680993427095413
17.034928,4.621940817434316,0.10716395763352642
17.037315999999997,4.596939116947162,0.10746523646062744
17.039696,4.57673301388576,0.10769960125046898
17.042091999999997,4.565838566422141,0.10781777215840163
17.04448,4.56625787530272,0.10778643166364069
17.046860000000002,4.57291580384803,0.10769402024861977
17.049256,4.585300495378867,0.10752244218473546
17.051643999999996,4.597265878029125,0.10738362218008313
17.054024,4.609510799933105,0.10722403440085113
17.056419999999996,4.615609649970971,0.10717593734813116
17.058808,4.623710600755256,0.1070940417963734
17.061192,4.635815753032373,0.1069481522614821
17.063595999999997,4.64871230124241,0.10679985183290937
17.065979999999996,4.658675583146251,0.10669383578557709
17.068363999999995,4.666636764303675,0.10662261444190874
17.070763999999997,4.679812851767431,0.10645228725095275
17.073152,4.701276881470576,0.10613569398676032
17.075531999999995,4.7267451126665545,0.10575773706359834
17.077928,4.754075674982089,0.10535189505754633
17.080315999999996,4.784619042857539,0.1048769518485301
17.082699999999996,4.818514985919765,0.10432968641852543
17.085096,4.847103474877042,0.10383452197216574
17.087483999999996,4.875180107155122,0.10332678861503436
17.089864,4.896878350141613,0.10289007883366326
17.092259999999996,4.909544476784041,0.1025431582024152
17.094651999999996,4.9182536237618795,0.10219996328321425
17.097032,4.923517647754325,0.10188241941868026
17.099432,4.927198879880934,0.10156553976287472
17.101819999999996,4.930880112007543,0.10124899088963694
17.1042,4.9365634448805675,0.10090077924307869
17.1066,4.942386547380453,0.10054284683306085
17.108987999999997,4.94127218208131,0.10028602534908491
17.111368,4.943370622342082,0.0999698406438449
17.113771999999997,4.951894673722687,0.0995341667180185
17.116155999999997,4.96055849473015,0.09908950663398647
17.118536,4.967499754244916,0.09865824245497433
17.120939999999997,4.96308003558724,0.09841356992028402
17.123323999999997,4.954795885063591,0.09821743369426963
17.125707999999996,4.948793374540079,0.09797299017207364
17.128099999999996,4.947726231069179,0.09766500392786373
17.130488,4.943446282038363,0.09741354377657777
17.132868000000002,4.942099599313742,0.09712508703484779
17.135272,4.9416840821489005,0.09682968015562515
17.137656,4.945412536103753,0.09647164932956216
17.14004,4.954727983417274,0.09606058467118755
17.14244,4.963624121850215,0.09567511114350434
17.144827999999997,4.9680967499097415,0.09536969757176113
17.147208,4.9714984427826305,0.09508105287262943
17.149603999999997,4.97490013565552,0.09479270281881218
17.151987999999996,4.980164159647964,0.09448822171278047
17.154384,4.98463678770749,0.09418287900206851
17.156779999999998,4.992694308379269,0.09384859036814969
17.159163999999997,5.0014034553571065,0.09352945014502802
17.161544,5.006899796775029,0.09326757192056447
17.163947999999998,5.011045663752593,0.09304210139892352
17.166336,5.015843157036213,0.09282807455168346
17.168715999999996,5.028509283678642,0.09251670629333368
17.171112,5.0378228351342935,0.09226496906866498
17.173499999999997,5.044714976962949,0.09206918935508786
17.17588,5.041177306178939,0.09203602340659006
17.178283999999998,5.0405729017011245,0.09196756435685505
17.180667999999997,5.039409418715868,0.09193720020700334
17.183051999999996,5.03368265573034,0.09199749543169293
17.185448,5.029259145356925,0.0920769371889295
17.187835999999997,5.023345390916292,0.09220091189318111
17.190216,5.025951896140524,0.09224241949257128
17.192619999999998,5.035356099536924,0.09220936914660588
17.195008,5.049555900359076,0.09212763334584709
17.197387999999997,5.062544996367729,0.09207192844786208
17.199784,5.073392222003106,0.09205103699444356
17.202168,5.086613635437236,0.09203424499306964
17.204552,5.101837149617784,0.09199284932867643
17.206955999999998,5.112125296745719,0.09200908765910129
17.209344,5.123204839806572,0.09202690067184735
17.211723999999997,5.137357418800481,0.09200349577778465
17.21412,5.152301393727308,0.09198241519209172
17.216507999999997,5.166174433467496,0.09197924848517135
17.218888,5.187264480260434,0.09187815919083328
17.221283999999997,5.213569433359703,0.09170648680650711
17.223672,5.248022559071502,0.0914264941524624
17.226051999999996,5.281404749596661,0.09116651805117057
17.228456,5.313064378629124,0.09091211417677338
17.23084,5.3470056476617245,0.0906119993308146
17.233219999999996,5.374288988149016,0.09037459765984786
17.235619999999997,5.403481881584107,0.09007179213301819
17.238008,5.424154515354334,0.08984894338082355
17.240387999999996,5.442173422072085,0.0896414591828917
17.242787999999997,5.4584697672971405,0.08944290045059401
17.245176,5.47904985326875,0.08918388346256377
17.247555999999996,5.500980413680719,0.08889338587281427
17.24996,5.5216077214805726,0.08858504291316158
17.252344,5.540792007041449,0.08826766992085991
