Time,Force,Position
17.250231999999997,0.16134931902603025,0.0
17.252616,0.16972980906403512,0.0
17.254996,0.17303516242256778,0.0
17.257403999999998,0.17755122059459919,0.0
17.259787999999997,0.1835575228338498,0.0
17.262168,0.18649078914004497,0.0
17.264571999999998,0.18635101951318475,0.0
17.266959999999997,0.18569939320712686,0.0
17.269344,0.18225427022173402,0.0
17.271739999999998,0.1777382120497026,0.0
17.274127999999997,0.17146357157610148,0.0
17.276511999999997,0.16518893110250035,0.0
17.278907999999998,0.158774521002039,0.0
17.281295999999998,0.14807637015502353,0.0
17.283676,0.13843795347527676,0.0
17.286071999999997,0.12760003300140108,0.0
17.288459999999997,0.11717022038873617,0.0
17.29084,0.10433019916844363,0.0
17.293239999999997,0.09149017794815112,0.0
17.295624,0.07571689042166344,0.0
17.298008,0.0620854732684528,0.0
17.300403999999997,0.049385221675020484,0.0
17.302792,0.03975800601464355,0.0
17.305187999999998,0.030130790354266617,0.0
17.307584,0.020363805067029474,0.0
17.309972,0.012738690153069394,0.0
17.312351999999997,0.008326380799024907,0.0
17.314752,0.0037743018181202064,0.0
17.31714,0.0017722010717033557,0.0
17.319519999999997,0.0010845539567721487,0.0
17.321915999999998,0.0016324314448431451,0.0
17.324303999999998,0.002180308932914142,0.0
17.326684,0.00687215754067905,0.0
17.329088,0.007420035028750046,0.0
17.331476,0.007839343909330677,0.0
17.333855999999997,0.010249552516958318,0.0
17.336251999999998,0.00998121428260774,0.0
17.338639999999998,0.010109782890098104,0.0
17.341019999999997,0.010109782890098106,0.0
17.343415999999998,0.010109782890098106,0.0
17.345803999999998,0.010109782890098106,0.0
17.348187999999997,0.010109782890098106,0.0
17.350583999999998,0.01023835149758847,0.0
17.352971999999998,0.010238351497588472,0.0
17.355352,0.011298085664857158,0.0
17.357747999999997,0.012218050205265635,0.0
17.360135999999997,0.012218050205265634,0.0
17.36252,0.015791741798148864,0.0
17.364915999999997,0.018026159970042983,0.0
17.367303999999997,0.019085894137311665,0.0
17.369699999999998,0.021879390816646627,0.0
17.372096,0.024672887495981594,0.0
17.374484,0.02052891637628768,0.0
17.376863999999998,0.023601952309343057,0.0
17.379264,0.02588359230948033,0.0
17.381648,0.026442670816921164,0.0
17.384031999999998,0.031693597932126914,0.0
17.386428,0.03495362532028566,0.0
17.388816,0.04034432206235162,0.0
17.391195999999997,0.04773711955083443,0.0
17.393591999999998,0.05219665073312206,0.0
17.395984,0.05651641228854949,0.0
17.398363999999997,0.05884527411692992,0.0
17.40076,0.06037153899302238,0.0
17.403147999999998,0.06069830007498596,0.0
17.405527999999997,0.06037343485089163,0.0
17.407923999999998,0.062179238980704515,0.0
17.410311999999998,0.0586055473878213,0.0
17.412695999999997,0.05568348210099597,0.0
17.415091999999998,0.05815211355623661,0.0
17.417479999999998,0.05712840019784123,0.0
17.419863999999997,0.05996911870541934,0.0
17.422259999999998,0.06453239870569388,0.0
17.424647999999998,0.062018441280079335,0.0
17.427044,0.06215821090693956,0.0
17.42944,0.060156110160522705,0.0
17.431828,0.05773470053352522,0.0
17.434207999999998,0.05731539165294459,0.0
17.436604,0.057035852399224166,0.0
17.438988,0.05275211165267003,0.0
17.441367999999997,0.05326396833186773,0.0
17.443763999999998,0.053915594637925626,0.0
17.446147999999997,0.06043375355637386,0.0
17.448548,0.07002494840787749,0.0
17.450944,0.08282894881929671,0.0
17.453332,0.09735551072341236,0.0
17.455712,0.10866926706761242,0.0
17.458108,0.11885556123543019,0.0
17.460496,0.12610858909705278,0.0
17.46288,0.1268999850299709,0.0
17.465276,0.12797092021660944,0.0
17.467664,0.12178882754162537,0.0
17.470043999999998,0.11806416530251208,0.0
17.472448,0.12048557492950956,0.0
17.474836,0.11890278306367334,0.0
17.47722,0.12011348787717209,0.0
17.479616,0.11728397038896382,0.0
17.482004,0.11431468327389535,0.0
17.484384,0.1092035257855498,0.0
17.48678,0.10609446904362112,0.0
17.489168,0.1011230811821358,0.0
17.491547999999998,0.09615169332065046,0.0
17.493944,0.08717610396633145,0.0
17.496332,0.07605864423873535,0.0
17.498711999999998,0.06186814857808385,0.0
17.501108,0.046746487357654055,0.0
17.503496,0.03362692688364111,0.0
17.505892,0.02344063271582334,0.0
17.508287999999997,0.01618760485420074,0.0
17.510676,0.011867843298773311,0.0
17.51306,0.00981852072411331,0.0
17.515455999999997,0.011157794145102417,0.0
17.51784,0.012181507503497797,0.0
17.520224,0.008653141880988476,0.0
17.52262,0.00726664663175622,0.0
17.525008,0.005088755449605852,0.0
17.527392,0.005088755449605852,0.0
17.529788,0.005636632937676848,0.0
17.532176,0.010468251172301967,0.0
17.53456,0.017301970153343938,0.0
17.536956,0.021993818761108844,0.0
17.539344,0.02654589774201354,0.0
17.541724,0.029375415230221816,0.0
17.544124,0.031133997531791552,0.0
17.546512,0.03289257983336129,0.0
17.548892,0.03289257983336129,0.0
17.551292,0.03289257983336129,0.0
17.55368,0.03289257983336129,0.0
17.556064,0.03289257983336129,0.0
17.55846,0.03289257983336129,0.0
17.560848,0.03155330641237218,0.0
17.563228,0.03021403299138307,0.0
17.565631999999997,0.027803824383755435,0.0
17.568019999999997,0.027803824383755435,0.0
17.5704,0.027803824383755435,0.0
17.572795999999997,0.027803824383755435,0.0
17.575184,0.027803824383755435,0.0
17.577564,0.02725594689568444,0.0
17.579967999999997,0.02242432866105932,0.0
17.582352,0.015590609680017353,0.0
17.584732,0.01279711300068239,0.0
17.587135999999997,0.010143385948207637,0.0
17.589523999999997,0.010934781881125746,0.0
17.591904,0.00917619957955601,0.0
17.594299999999997,0.0074176172779862725,0.0
17.596684,0.0074176172779862725,0.0
17.599064,0.008105264392917479,0.0
17.601471999999998,0.008105264392917479,0.0
17.603855999999997,0.008792911507848685,0.0
17.606236,0.010691263436278632,0.0
17.608639999999998,0.010691263436278632,0.0
17.611027999999997,0.01095960167062921,0.0
17.613408,0.01095960167062921,0.0
17.615803999999997,0.01095960167062921,0.0
17.618191999999997,0.01095960167062921,0.0
17.620572,0.015413445279309117,0.0
17.622971999999997,0.027174947881486132,0.0
17.625359999999997,0.048618297275914595,0.0
17.627744,0.0749478960368427,0.0
17.630139999999997,0.10816584491068729,0.0
17.632527999999997,0.14572216566296048,0.0
17.634912,0.1899345191026729,0.010719236447356844
17.637307999999997,0.23987173967004619,0.021044623362280173
17.639695999999997,0.30232032451787927,0.030994207304892784
17.642076,0.37165725947862877,0.040901036337742294
17.644471999999997,0.4541683860452657,0.05007961961835125
17.64686,0.539435092624495,0.05950971359762062
17.64924,0.6348389756854297,0.06865034567099855
17.651636,0.7362112443188725,0.07773174655293835
17.654024,0.8424697623188149,0.08687103697433321
17.656404,0.958446147919882,0.09597876821391066
17.6588,1.0805306887203172,0.1050876211067934
17.661192,1.2131717148830388,0.11387627676289999
17.663587999999997,1.3506536644418856,0.1226183090272651
17.665983999999998,1.4906023495981042,0.1313799627075058
17.668376,1.6295423141310357,0.14001723418510834
17.670755999999997,1.759684375603251,0.1487776419779954
17.673156,1.8773510936038798,0.15766581353162235
17.675544,1.9901315622380087,0.1665539850852493
17.677923999999997,2.096303220012942,0.1753998148640126
17.680324,2.198380024354293,0.18411918466040636
17.682712,2.2964545230606803,0.18201714956822287
17.685091999999997,2.3863827450124093,0.18041047638743435
17.687488,2.4682119120377224,0.17915910220152112
17.689871999999998,2.547017160816093,0.17777234043238138
17.692252,2.613439613921494,0.17709501697282068
17.694643999999997,2.682145602884902,0.17592697788808706
17.697032,2.7436364806534295,0.17501699672956078
17.699427999999997,2.7989831824137155,0.17418623438259648
17.701824,2.8498157218598394,0.173265028944716
17.704212,2.89776411268588,0.1721752191183541
17.706591999999997,2.9413381108246197,0.17100415939917957
17.708987999999998,2.973553026648785,0.1702016821044622
17.711375999999998,3.0038602853830194,0.16933595612670627
17.713756,3.0354254707589963,0.16833164077868365
17.71616,3.0682013609484713,0.16731007190459107
17.718548,3.1054007615113606,0.16606850263248843
17.720927999999997,3.1483269250597816,0.16460542718285107
17.723332,3.1921842541679792,0.1631167678735266
17.72572,3.2364136703285147,0.1616749633531728
17.728099999999998,3.278221676862053,0.1603895475904249
17.730504,3.3149545467161183,0.15931888993603333
17.732892,3.3551797613838206,0.15806843250897337
17.735272,3.3967554504918813,0.15675805286866865
17.737668,3.4326043766144125,0.1556763215463224
17.740052,3.463797474938051,0.15473287869881241
17.742435999999998,3.4840489039698275,0.1542292174468719
17.744832,3.504207785202987,0.15366902681913816
17.74722,3.523575270503228,0.15312031022293648
17.749599999999997,3.544293230243829,0.15250620156394126
17.751996,3.559144657372039,0.15211937182507174
17.754383999999998,3.571993983753832,0.15181267032570955
17.756763999999997,3.5877765764418204,0.15140363249043765
17.759168,3.601417298756532,0.1510931409725693
17.761556,3.6110538195784088,0.15093215751818542
17.763935999999998,3.6129614766683398,0.15102547059230947
17.76634,3.6139379681984924,0.15114525122297617
17.768728,3.609327466369975,0.1514256369536745
17.771107999999998,3.6012718415560645,0.15178451835196727
17.773504,3.593635525622734,0.15209465250108967
17.775892,3.588141080062681,0.15231918943408926
17.778271999999998,3.590282950435958,0.15223661994686608
17.780676,3.5863259707713673,0.1522913796288426
17.78306,3.58050665998722,0.15239590248905116
17.785439999999998,3.577760385136129,0.1523933360815572
17.787836,3.5828827436438444,0.1521403308558546
17.790224,3.5952221092043084,0.15162337038120577
17.792603999999997,3.6042088995779977,0.15124783521962729
17.794999999999998,3.6118924373395704,0.15086069648599304
17.797387999999998,3.614920147302252,0.15060666626756156
17.799764,3.6165048350259568,0.15035670867949538
17.802159999999997,3.614225090883689,0.15022743718795706
17.804547999999997,3.6110141811816425,0.1501253315285504
17.806943999999998,3.605801170733179,0.1500926305534151
17.80934,3.6040805050983526,0.14990326989325217
17.811728,3.605572645023441,0.14958596756354778
17.814107999999997,3.6061336193887503,0.1492981419638797
17.816512,3.6099999471125925,0.14894819973348755
17.8189,3.6156813841277495,0.14862111782126877
17.821279999999998,3.6202918859562665,0.1483382701441133
17.823676,3.6230400566652277,0.14811109090784433
17.826064,3.6176400547616616,0.1481730348768583
17.828443999999998,3.618618442149683,0.14806612931434274
17.83084,3.6170356502838468,0.14808840688167985
17.833228,3.6142421536045117,0.14816726789175064
17.835607999999997,3.606373520245705,0.14841950065134904
17.838003999999998,3.5978532605808393,0.148661824544323
17.840391999999998,3.5951069857297475,0.14865713812315712
17.842775999999997,3.595666064237189,0.14859809286967382
17.845171999999998,3.6019519057301603,0.14837935394434124
17.847559999999998,3.6132656620743604,0.1480745599628577
17.849956,3.632308282150508,0.14754617046533028
17.852352,3.6494885711070983,0.1470664586973737
17.85474,3.668298873757768,0.1464873439415437
17.85712,3.6828254356618833,0.14607004240180585
17.859516,3.6980036238720566,0.1456598576935629
17.861904,3.7101087761491747,0.14534880664891725
17.864283999999998,3.7227730069337333,0.14498295972255493
17.86668,3.739488661039369,0.14442188660105643
17.869072,3.754621523279169,0.1438760939382663
17.871451999999998,3.767100658466494,0.143381394239177
17.873856,3.784515160706431,0.14273503018748418
17.876244,3.7996480229462306,0.1421908014751655
17.878628,3.8161313596263895,0.1415694232815915
17.881024,3.8327544659334083,0.14093434686853096
17.883412,3.8516592122405644,0.14020838854492645
17.885792,3.8690737144805016,0.13956929679786323
17.888188,3.879643296720026,0.13920768554895813
17.890576,3.8886300870937154,0.13886677573062556
17.89296,3.8885375392950983,0.1388041846260122
17.895356,3.8829977677646714,0.13886655606306594
17.89774,3.8737333339951316,0.13901730740442445
17.900119999999998,3.86553983541223,0.1391316586049506
17.90252,3.8606516901878614,0.13919503716797926
17.904904,3.8549721490305746,0.1392684139657304
17.907283999999997,3.8466388808208123,0.13939655962532393
17.909684,3.8404474829843274,0.1394520054289895
17.912072,3.8299723444012885,0.13965845003953814
17.914468,3.815213465071696,0.14000882318663144
17.916863999999997,3.804830874287274,0.1402712302308299
17.919252,3.7989643416748837,0.14043529234817226
17.921632,3.7910957083160763,0.14065641236592205
17.924031999999997,3.7832270749572685,0.1408762804240288
17.926419999999997,3.7813647438377127,0.14091964010494964
17.9288,3.777081003091159,0.14106311209025998
17.931196,3.7711672486505257,0.14129744774582584
17.933584,3.7661846597696704,0.14150957362060154
17.935968,3.7642751068218705,0.14162917786854606
17.938364,3.7630171801801287,0.14175409224235974
17.940752,3.769767656524054,0.14164519367264974
17.943127999999998,3.7788923206667335,0.14150739807033777
17.945532,3.787737445555693,0.14139790414302486
17.94792,3.799236297497127,0.14123775524136342
17.9503,3.8050083864530313,0.14122684921583345
17.9527,3.815576072834687,0.14109199110309364
17.955088,3.8318705222018727,0.14081408255861835
17.957468,3.850678928994673,0.14050331938642438
17.959871999999997,3.8794978395195576,0.13991938884073662
17.962256,3.911901642656696,0.1392684661213502
17.96464,3.94016147467414,0.13874530933111634
17.967035999999997,3.968281537064723,0.13824508367323932
17.96942,3.9982639305748635,0.13770882356545422
17.971804,4.024242122592171,0.13727270092219154
17.9742,4.047007509049562,0.13695498000366052
17.976584,4.074987801813285,0.1364849097023851
17.978968,4.103387403457589,0.13597244367790443
17.981364,4.135279349915529,0.13535216128828878
17.983748,4.167590605254051,0.1347004092959258
17.986148,4.204045831712264,0.13395321371730776
17.988543999999997,4.235286151864147,0.1333522230017317
17.990931999999997,4.2692274208967484,0.1326438539907128
17.993316,4.3074524306759026,0.13182627326401983
17.995711999999997,4.338879742282889,0.13115800934252167
17.998099999999997,4.372448924263151,0.13042152753823333
18.000484,4.4020139047505795,0.12979040849101903
18.002879999999998,4.42464141743898,0.12932704913329007
18.005267999999997,4.440750771208932,0.12898953718204936
18.007652,4.4457786860601605,0.12892966038941536
18.010047999999998,4.447361477925997,0.12891804536924403
18.012435999999997,4.453088240911527,0.128798365933831
18.014816,4.456161276844583,0.12872051810388813
18.017212,4.456580585725163,0.1286843124016112
18.019604,4.4624943401657955,0.128486152632658
18.021984,4.465474828300234,0.12835393692647046
18.02438,4.468595086061533,0.1282126096108348
18.026768,4.475859314942525,0.12797057324533878
18.029152,4.4807021341965205,0.1278130087458117
18.031548,4.485125644569935,0.1276909805760782
18.033936,4.481680521584542,0.12773230516652903
18.03632,4.48466100971898,0.1276098352641063
18.038716,4.487082419345979,0.12753382488973974
18.041104,4.4861512537862005,0.1275490458198373
18.043488,4.492948951958368,0.12741994917553467
18.045884,4.500258506809734,0.1273090564560418
18.048272,4.509570162407518,0.12715632897854795
18.050652,4.523165558751856,0.1268961957736303
18.053048,4.5464919195745574,0.12645194269086268
18.055436,4.57503318670359,0.12587825933486257
18.05782,4.603434684205764,0.12531244403975003
18.060224,4.63011362021524,0.12477565828738246
18.062612,4.659446283277191,0.124204786955436
18.064996,4.691153134137897,0.12362214313797566
18.067392,4.719507409811828,0.12313377783205237
18.06978,4.748001455112618,0.12262964999439609
18.07216,4.770349428547298,0.12226240617992389
18.07456,4.784549229369451,0.12207366364519187
18.076948,4.7916717927657135,0.12203431808853497
18.079328,4.798002960229058,0.12199946529005193
18.081724,4.810480199558515,0.12182764744526729
18.084112,4.8168113670218595,0.12179399691661781
18.086496,4.819557641872952,0.12181029836128694
18.088892,4.820441585604487,0.12185717219613283
18.09128,4.815598766350492,0.12200646841813964
18.093664,4.811315025603938,0.122110925304119
18.096064,4.8090333856038,0.12217327416924184
18.098452,4.8092657030292765,0.12221239981503881
18.100832,4.803631487842363,0.12235713854839346
18.103236,4.7998596037750065,0.12247202106574417
18.10562,4.801023086760262,0.12249655402015151
18.108,4.800184468999102,0.12255878566704147
18.110404,4.7968318938123256,0.12264099198002994
18.112792,4.791105130826796,0.12273278505370017
18.115172,4.788730943028042,0.12274232959367562
18.117576,4.786216985602427,0.12276244212936388
18.11996,4.788778164856286,0.12268319462732266
18.122344,4.7973456463493935,0.12248923586353909
18.124744,4.81313013489525,0.12214152566768119
18.127132,4.823839486761636,0.12189092774487173
18.129516,4.828914623441109,0.12178721366206677
18.131912,4.837062796053636,0.121618542944135
18.1343,4.84693353015886,0.12143008963011993
18.13668,4.858154738704442,0.12119438603701665
18.139084,4.871657587250162,0.1208955850877925
18.141468,4.884089500609244,0.1206242898716211
18.143852,4.892656982102353,0.12042355090838394
18.146248,4.896708405423429,0.12028546301697515
18.148636,4.9008995983713675,0.12013690227141031
18.151016,4.899364028333774,0.12008402499871275
18.153412,4.893824256803347,0.12010788516181775
18.155796,4.8904263556461975,0.12008285298988025
18.15818,4.889030555235465,0.12001962299064514
18.160576,4.8904282515040665,0.11991543124971096
18.16296,4.893548509265365,0.11979668205495123
18.165344,4.899881572586579,0.11960811627861889
18.16774,4.903560908855319,0.11944964058649822
18.170128,4.905377914004501,0.11931802764558705
18.172512,4.905612127287848,0.11919264265446432
18.174912,4.914274052437443,0.11889361562848387
18.177296,4.925916465721476,0.11848596391479939
18.17968,4.937838418259228,0.11806165409555582
18.182076,4.954323650797257,0.11753321074380693
18.184464,4.97267121445484,0.11698469781680237
18.186848,4.997164849978536,0.1163380651821784
18.189244,5.0227294206888695,0.1156734830172412
18.191632,5.048573530652924,0.11498711097897886
18.194016,5.072695079124282,0.11430958548016996
18.196412,5.0940231309163035,0.11366422461788411
18.198804,5.120426319387799,0.11292882323203796
18.201184,5.144315550433679,0.1122056011093972
18.203588,5.167413385546642,0.11148975603792713
18.205972,5.190511220659604,0.11078018888391492
18.208352,5.2090929976005365,0.11011996087928122
18.210748,5.222739407488856,0.10954319413388088
18.213136,5.235594421444256,0.10897424415533975
18.215516,5.2503117665192125,0.10838431512466419
18.217912,5.266239816407669,0.10776715747913913
18.220296,5.282819492602184,0.10716133381526567
18.222676,5.301121730289394,0.1065581387980333
18.225084,5.321006759842442,0.10595840220058224
18.227468,5.3426143508881845,0.10535568359781833
18.229848,5.357004934881178,0.10487313961711202
18.232252,5.369253648500894,0.10443155135199521
18.234636,5.37386604618728,0.10413549396901028
18.237016,5.380201005366364,0.10383219984790452
18.23942,5.39119179234434,0.10348497833546888
18.241808,5.410283530106599,0.10307535995335994
18.244188,5.436824592347085,0.10259546687757683
18.246584,5.466671007946103,0.10211720266094373
18.248972,5.505549539889185,0.10157456448932928
18.251356,5.543449684444245,0.10109108861700969
18.253752,5.582932620865142,0.1006141174011649
18.25614,5.628654176950764,0.10009661159160976
18.25852,5.677169229715725,0.09955480334409607
18.260924,5.726056369533022,0.09904461284979159
18.263308,5.77838863233571,0.09852856899735356
18.265688,5.830813442937016,0.09805861607167823
18.268092,5.881096383165047,0.09762164681959913
18.27048,5.9272353522733825,0.09725178648181111
18.272864,5.971884077314497,0.09692581890231074
18.27526,6.013319996795698,0.09665131406351261
18.277648,6.062205240755126,0.09631677485444196
18.280028,6.1089486143412755,0.09601024731727659
18.282432,6.155831757554287,0.09569129315506295
18.28482,6.196708598528046,0.09544345470506659
18.2872,6.231439367635695,0.09527671440631322
18.2896,6.258720812265118,0.09517448081983555
18.291988,6.279344328349232,0.09513529344156477
18.294368,6.2906561888355625,0.09517215508170737
