Time,Force,Position
17.016728,0.18928067454786765,0.0
17.019112,0.19091068824194699,0.0
17.021491999999995,0.1934718674958047,0.0
17.023891999999996,0.192960010816607,0.0
17.02628,0.19165675820449116,0.0
17.028659999999995,0.19435770708520908,0.0
17.031059999999997,0.1930544544730933,0.0
17.033443999999996,0.18788676999500403,0.0
17.035827999999995,0.18057721514363773,0.0
17.038224,0.1724762643593533,0.0
17.040611999999996,0.16279252170923258,0.0
17.042995999999995,0.15711298055194559,0.0
17.045392,0.15129366976779837,0.0
17.047779999999996,0.1442636541701524,0.0
17.050163999999995,0.13644224263958835,0.0
17.05256,0.12955199666880263,0.0
17.054947999999996,0.12173058513823862,0.0
17.057331999999995,0.11069636804775897,0.0
17.059728,0.09949560627919621,0.0
17.06212,0.08922601007041178,0.0
17.064499999999995,0.07988757942140566,0.0
17.066896,0.07306310619801408,0.0
17.069283999999996,0.06437630185506585,0.0
17.071667999999995,0.05662066307189596,0.0
17.074064,0.04858548503500565,0.0
17.076451999999996,0.03868797587855869,0.0
17.078835999999995,0.0317237330283069,0.0
17.081232,0.025690655737833436,0.0
17.083624,0.01965757844735997,0.0
17.086003999999996,0.014555666716664827,0.0
17.0884,0.012925653022585455,0.0
17.090792,0.010364473768727761,0.0
17.093171999999996,0.01087633044792545,0.0
17.095568,0.01152795675398335,0.0
17.09796,0.01311074861981957,0.0
17.100339999999996,0.01390214455273768,0.0
17.102736,0.01362260529901726,0.0
17.105128,0.018278433097908865,0.0
17.107507999999996,0.021238474455326943,0.0
17.109904,0.02699201249207999,0.0
17.112296,0.029672514595777657,0.0
17.114675999999996,0.03449488707275238,0.0
17.117072,0.04117959066928374,0.0
17.119459999999997,0.04586219351939826,0.0
17.121843999999996,0.04840292599623571,0.0
17.12424,0.05094365847307317,0.0
17.126627999999997,0.053344621323050415,0.0
17.129011999999996,0.05467464898638912,0.0
17.131408,0.0587981733290628,0.0
17.133795999999997,0.06105936655217983,0.0
17.136179999999996,0.06077982729845941,0.0
17.138576,0.06171099285823773,0.0
17.140963999999997,0.060360518417878775,0.0
17.143347999999996,0.06180354065685479,0.0
17.145744,0.06110469252255374,0.0
17.148131999999997,0.05919513957475394,0.0
17.150515999999996,0.06128978811978785,0.0
17.152912,0.05646741564281313,0.0
17.155299999999997,0.056280424187709774,0.0
17.157683999999996,0.05437087123990997,0.0
17.16008,0.057536454971582406,0.0
17.162472,0.058420398703117576,0.0
17.164851999999996,0.05581199762101675,0.0
17.167248,0.05529824508394982,0.0
17.16964,0.06181450814452881,0.0
17.172019999999996,0.06679330530964551,0.0
17.174416,0.0750302340050517,0.0
17.176803999999997,0.0873166901636655,0.0
17.179187999999996,0.09657543635959782,0.0
17.181584,0.11425999856390895,0.0
17.183971999999997,0.13808873677646158,0.0
17.186355999999996,0.16377791025070165,0.0
17.188752,0.19374892861362655,0.0
17.191139999999997,0.2297243533579328,0.0
17.193523999999996,0.2754288467227336,0.009517469270381499
17.19592,0.3299312431482507,0.018706932397215076
17.198307999999997,0.38336080852926,0.0283883129322131
17.200691999999997,0.4497118013136592,0.03758147247489968
17.203088,0.5191543809502648,0.04673224489546342
17.20548,0.591248791781476,0.05609027463130403
17.207859999999997,0.6662745730610131,0.06547863601412326
17.210256,0.7473047607219315,0.07481850800197024
17.212643999999997,0.835597281405973,0.08402274850422477
17.215027999999997,0.9294295736204414,0.09310694753990552
17.217424,1.0233544136335269,0.10208608942687523
17.219811999999997,1.1230060166321423,0.11099868959800371
17.222195999999997,1.2222855325784203,0.11987868722912486
17.224596,1.3231950622187776,0.12862277177414666
17.226984,1.4284355544339324,0.13721661033857163
17.229363999999997,1.5289276710515785,0.1458358655363497
17.23176,1.6290949224451308,0.15433937813513374
17.234152,1.7272147471218915,0.16289083447492114
17.236531999999997,1.822775288402664,0.1714206304930856
17.238928,1.910701409607976,0.1800196264275512
17.24132,1.9929952114842442,0.17903549424507828
17.243704,2.0665836580984127,0.17853663657180097
17.2461,2.140266548369068,0.17754557235022847
17.248488000000002,2.2057559400568216,0.17713123384450985
17.250872,2.265613012415531,0.17682543568253437
17.253268,2.3229108013782525,0.1763327839142203
17.255656000000002,2.376019293250906,0.1758959192443685
17.25804,2.425078257660352,0.17552530550923423
17.260436,2.473253278338263,0.175155566122213
17.262824000000002,2.518961563418802,0.1748209774195229
17.265203999999997,2.56057309920789,0.17465156436616078
17.26762,2.5991588208921663,0.17456762537869266
17.270007999999997,2.6368133770166637,0.17453414392518227
17.272388,2.67102281015577,0.17465484099752976
17.274783999999997,2.704021538481375,0.17488357370016716
17.277172,2.7375793453144226,0.1750276583633468
17.279556,2.7706252954682724,0.17517416400501237
17.281956,2.8053012593162014,0.17518185998073818
17.284343999999997,2.8410481583507687,0.1751411031519817
17.286724,2.877214366265917,0.1750318735338367
17.289124,2.9092838248896142,0.17504112819294634
17.291508,2.9461961027673067,0.17473780896286564
17.293892,2.9845060769136005,0.17426799107796903
17.296292,3.0263556177017743,0.1735189989258409
17.298676,3.0718372729304444,0.1725697678221013
17.30106,3.118017776293415,0.17154306738666467
17.303455999999997,3.166666911111627,0.1703009628570541
17.305844,3.2147116414520234,0.16898388282016602
17.308228,3.257216600261993,0.1678131099329197
17.310623999999997,3.295485040153652,0.16676944768687535
17.313012,3.3339404715004144,0.1656234470812547
17.315396,3.3721635854217,0.1644318632990727
17.317796,3.40978229486517,0.1631661005454522
17.32018,3.448379391696662,0.16180099493623085
17.322564,3.4854409184905606,0.16040908840599927
17.324959999999997,3.5213389622992035,0.15902280029061752
17.327348,3.5540714223761745,0.15772102014453068
17.329732,3.5870834217068657,0.15642432891780392
17.332127999999997,3.6158589021192453,0.15523085373342949
17.334516,3.642260194732871,0.15407035563952132
17.336895999999996,3.667218465107521,0.152901430866575
17.339295999999997,3.6878004469369996,0.15186860393760945
17.341684,3.706892184699259,0.15095359622526885
17.344063999999996,3.7176959802221305,0.15035792444671678
17.346463999999997,3.7235644086923907,0.14993688529140742
17.348852,3.7277102756699536,0.14955791173973218
17.351231999999996,3.726781005968044,0.1493601028108561
17.353631999999998,3.7215679955195813,0.14933036348826512
17.35602,3.7160754458173977,0.1493320963595437
17.358399999999996,3.7137957016751293,0.14920607775307013
17.360799999999998,3.71272666234636,0.14902361516195942
17.363188,3.7120769318981712,0.14879691278836868
17.365572,3.710496035890204,0.14859664000813655
17.367972,3.703048607269847,0.14858060977387533
17.370356,3.695321639395769,0.14859219831113354
17.37274,3.6825195348422195,0.14877901406341149
17.375152,3.669437891034949,0.1489946434669026
17.377539999999996,3.6518401890556476,0.14931934587991214
17.37992,3.635033883009264,0.14963862316637033
17.382315999999996,3.620881304015355,0.14989651844575386
17.384707999999996,3.606029876887144,0.1502423642409019
17.387088,3.5904796016246334,0.15066896876189503
17.389483999999996,3.5699939593095107,0.15126733023415107
17.391875999999996,3.554443684047,0.15170667898732762
17.394272,3.5401041135979874,0.15208886664800383
17.396671999999995,3.526555939081893,0.1524561563548854
17.39906,3.5165926571780513,0.15272901444314158
17.401443999999998,3.515057087140458,0.15267044304776187
17.403839999999995,3.514592452289504,0.15256884944635019
17.406228,3.5087731415053574,0.1526835015297716
17.408611999999998,3.5014635866539914,0.15288452129161678
17.411007999999995,3.491453082921907,0.15323298303916158
17.413396,3.4807437310555214,0.15365980327902962
17.415776,3.476552538107584,0.15389745242896855
17.418175999999995,3.47021947478637,0.15422084522769794
17.420564,3.469333635196966,0.15439760743922545
17.422944,3.467376860420923,0.1546187094077827
17.42534,3.4695168349363303,0.15476329392342267
17.427728000000002,3.477383572437269,0.15472880028543626
17.430112,3.4843191443784285,0.1547219844371457
17.432508,3.5024759248651707,0.15432198069420036
17.4349,3.5224950364714696,0.15386503494230935
17.43728,3.546658119197463,0.15324721383628195
17.439679999999996,3.5718921371100945,0.15259881483987325
17.442068,3.5957756805823675,0.1520184995323682
17.444452,3.6225924903608355,0.15136191704962412
17.446847999999996,3.651690940139441,0.15063238308893837
17.449236,3.673013304357856,0.15022145879843746
17.451616,3.695127064509189,0.1498019046036796
17.454012,3.7224557309668547,0.14919425091585295
17.456399999999995,3.7489930014916015,0.14859889339319896
17.458784,3.780745178322682,0.1478286593317217
17.46118,3.812916664034343,0.14700996116205062
17.463567999999995,3.844156984186225,0.14623595568719394
17.465952,3.8764682395247454,0.1454175990633444
17.468348,3.9073364726242907,0.1446113178970079
17.47074,3.942208907216669,0.1436876040236033
17.47312,3.9745673843834335,0.14281711159917398
17.475519999999996,4.003201199311084,0.14206569178861003
17.477908,4.034768280544929,0.1412439915214722
17.480288,4.058187189166248,0.14069553619222475
17.482687999999996,4.082165176295008,0.1400988505177379
17.485076,4.105863624170045,0.13953384819536524
17.487456,4.127559971298668,0.13902977009235412
17.489855999999996,4.154610994360482,0.1383649316125607
17.492244,4.175004088876987,0.13786044615904716
17.494628,4.1876683196615465,0.13754592084531223
17.497023999999996,4.2050356000732405,0.13705902851668736
17.499412,4.2249640597387925,0.13647816070162172
17.501796,4.244101123471425,0.13591323946576753
17.504191999999996,4.261375856084502,0.13538347062391826
17.50658,4.274925926458466,0.13494001901658767
17.508964,4.289826471272788,0.13444323257958835
17.511364,4.303004454594413,0.13397587427041555
17.513751999999997,4.3172533731026785,0.13347951144783965
17.516135999999996,4.332573226797582,0.1329556450844229
17.518532,4.3430974830667335,0.13253875561122436
17.520924,4.350688473029689,0.1321858041586526
17.523303999999996,4.355206427059589,0.13191282983146307
17.5257,4.35399761810396,0.1317647174641607
17.528092,4.348272750976298,0.13169842363535283
17.530471999999996,4.341616718288859,0.131650362514306
17.532871999999998,4.336311160041778,0.13154574303901995
17.535263999999998,4.329003501048281,0.1314914167680601
17.537644,4.316760475002172,0.13155280331171887
17.540044,4.307450715262259,0.13154729769237566
17.542431999999998,4.301865617761458,0.13146733575575476
17.544815999999997,4.291857009887243,0.13152593708037197
17.547212000000002,4.276214186826116,0.13176578799563674
17.549599999999998,4.25828972376485,0.13208048162454425
17.55198,4.243298527009779,0.13232661899362114
17.554380000000002,4.227376164694931,0.13259188030901337
17.556767999999998,4.211174263126362,0.13287725657102442
17.559151999999997,4.192970260811376,0.13321490965561145
17.561548000000002,4.174486719242671,0.13357439545123534
17.563935999999998,4.153721537673826,0.13400789846636194
17.566319999999997,4.135889622411179,0.13437394476857076
17.568715999999995,4.124064009387781,0.13459029283148122
17.571107999999995,4.1165221371109375,0.134682072231869
17.573492,4.113775862259846,0.13466903517603862
17.575888,4.1195498470736185,0.13447635680859116
17.578272,4.123042191887254,0.13435757896611358
17.580652,4.124392666327614,0.13430176310695602
17.583047999999998,4.128816176701028,0.13416512817679488
17.585431999999997,4.13375154375364,0.13404671904462886
17.587812,4.138407371552532,0.13395336236970914
17.590215999999998,4.146136235284479,0.13378163886961444
17.592599999999997,4.157217674203203,0.1335039947827219
17.59498,4.173793558681978,0.13306073224116655
17.597383999999998,4.193582248720668,0.13252748023873936
17.599767999999997,4.215233269878916,0.1319676723843141
17.602148,4.238606852529861,0.13138490965935498
17.604551999999998,4.260769730367306,0.13084678231050398
17.60694,4.288799140817141,0.1301835970209935
17.609319999999997,4.31631669458778,0.1295052663169166
17.611716,4.346115888358555,0.12875616520482308
17.6141,4.37577531250247,0.12802582201457097
17.616479999999996,4.40250147034019,0.1273702346243966
17.618884,4.428016923364411,0.1267659840185943
17.621271999999998,4.452601210828855,0.12618661938760523
17.623652,4.470387800121129,0.1257473200880837
17.626044,4.495111857212433,0.12516559553377926
17.628431999999997,4.519835914303736,0.12458387097947485
17.630812,4.546562072141456,0.12396971547622107
17.633215999999997,4.574918243673255,0.12328576938652153
17.635604,4.604485120018554,0.12256567483155287
17.637983999999996,4.631118730057657,0.1219135212919558
17.640388,4.65747280084304,0.12128989138733019
17.642772,4.67861196532209,0.12079014082940136
17.645151999999996,4.694675993121669,0.12039817571905691
17.647548,4.706084193122354,0.12008311482393161
17.649935999999997,4.7177719323767615,0.11974872298024689
17.652316,4.729739210884888,0.11939227085099383
17.654711999999996,4.736631352713544,0.11914487220189393
17.6571,4.745246056034895,0.11888181781594831
17.659479999999995,4.753720989729386,0.11863194687582312
17.661876,4.759262657117682,0.11843449070492125
17.664263999999996,4.762662454132701,0.11828627710127661
17.666655999999996,4.764991315961082,0.11816364600046535
17.66906,4.765318077043046,0.11808032458269242
17.671447999999998,4.772582305924039,0.11786598679677654
17.673831999999997,4.7741197718195005,0.11774847888097131
17.676228000000002,4.776867942528462,0.11759637982170697
17.678615999999998,4.775891450998309,0.11749947381499189
17.680996,4.771562384281381,0.11748527543484825
17.6834,4.766302152004673,0.11748420819864831
17.685787999999995,4.759691445287608,0.11752862520226307
17.688167999999997,4.753360277824264,0.11755114865604308
17.690571999999996,4.751312851107473,0.11747823517531884
17.69296,4.757273827376349,0.11725858673075801
17.69534,4.766959465884339,0.11698691210686048
17.697736,4.776505334765469,0.11672803127376599
17.700123999999995,4.786982369206377,0.11645761218177035
17.702503999999998,4.797599173274145,0.1161749010014216
17.704907999999996,4.8043515454759405,0.1159546282099432
17.707296,4.812035083237514,0.11572382764781372
17.709676,4.823722822491921,0.11542143937138663
17.712072,4.841416863985577,0.11501444734560663
17.714459999999995,4.854175538426622,0.11468573744881819
17.716839999999998,4.870007248800723,0.1142994897896604
17.719243999999996,4.88197452730885,0.11397970990597826
17.721632,4.893662266563258,0.11367865400694234
17.724016,4.903068365817528,0.11343401607740565
17.726411999999996,4.912846552124134,0.11321717203031038
17.728795999999996,4.924347299923436,0.1129828384485551
17.731175999999998,4.9397124795887155,0.11269178617779274
17.733576,4.959361400000546,0.11231166883388233
17.73596,4.977659845972018,0.1119763191457563
17.73834,4.993536882316492,0.11170922116800255
17.740736,5.0041990123546345,0.11154738882898431
17.743119999999998,5.012579502392639,0.11144013127575515
17.7455,5.019609517990285,0.11137478568532282
17.7479,5.0274309295208495,0.11130857304153974
17.750284,5.037114672170969,0.11121886541846084
17.752668,5.048520976313786,0.11111435135987387
17.755072,5.05578330933691,0.11108686130094828
17.757460000000002,5.0613230808673375,0.11107384289540617
17.759839999999997,5.061927485345151,0.11113879923081411
17.76224,5.070260753554914,0.11109089840000533
17.764628000000002,5.079245648070733,0.11105274317047255
17.767007999999997,5.091024039265887,0.1109819580823754
17.769404,5.108808732700293,0.11081765388964748
17.771791999999998,5.129806231694613,0.11059257107725086
17.774172,5.152014435502433,0.11033728061953459
17.776572,5.178785919310526,0.10998625387438829
17.778956,5.1984801656927315,0.10975011535305793
17.78134,5.2121681098356865,0.10960742894479569
17.783735999999998,5.225995823605502,0.10945503331076037
17.786119999999997,5.239032141442398,0.10930319993147314
17.788503999999996,5.252347998533015,0.10913246770982245
17.7909,5.2690164308104075,0.10889363038803979
17.793287999999997,5.28610417196838,0.10862622707573222
17.795684,5.300398416447019,0.10839186935027166
17.79808,5.31390126499274,0.10815985452566297
17.800463999999998,5.331687854285014,0.10785206212826585
17.802844,5.352687249137204,0.10748335863339555
17.805248,5.373127565481954,0.10715186579619312
17.807635999999995,5.393567881826702,0.10681838499497603
17.81002,5.415358672611811,0.10645516106375179
17.812416,5.432493635598027,0.10614448454888793
17.814799999999998,5.44469323153163,0.10590417559250902
17.81718,5.451166064479705,0.10573645799602042
17.819579999999995,5.456707731868001,0.1055804006997198
17.821968,5.462528938510018,0.10540746839677204
17.824348,5.465137339592117,0.10529212670893082
17.826743999999998,5.470958546234133,0.10512053838006127
17.829132,5.485067695115539,0.10482141306737996
17.831511999999996,5.502389649556859,0.10447101438229246
17.833915999999995,5.523576035864153,0.10407680352639398
17.8363,5.544762422171447,0.10368345425916985
17.838679999999997,5.562084376612766,0.10333867652753434
17.841083999999995,5.580477266240725,0.10297809718793423
17.843472,5.601012026241959,0.1025828973249974
17.845852,5.620615620683416,0.10219657920536143
17.848247999999998,5.6362150136320395,0.10186812882875616
17.850636,5.650883241020884,0.10154986461897385
17.85302,5.668252417290448,0.1011653181887135
17.855415999999998,5.687903233560148,0.10073905785221035
17.857804,5.703549848337014,0.10036902451695567
17.860188,5.721338333487158,0.09996411591368959
17.862587999999995,5.743270789756996,0.09950030530089242
17.864976,5.7641323108401945,0.09905071725967314
17.867356,5.779918695243921,0.09866704265639219
17.86976,5.793842748528093,0.09830177496647687
17.872147999999996,5.80283143475965,0.09799421241115629
17.874527999999998,5.811959890618067,0.09767875988274258
17.876923999999995,5.813871339423736,0.09746730002106731
17.879312,5.810847421176794,0.09731479288893108
17.881692,5.803447214384679,0.09718664152987817
17.884088,5.794324446099869,0.09706603677476253
17.886476000000002,5.7824081811357235,0.09696979318088554
17.888855999999997,5.768489815425161,0.09689806272437254
17.891256,5.751638183408403,0.09685902886743765
17.893644000000002,5.736928421764923,0.0967857636920074
17.896023999999997,5.71728329306883,0.09677160711811367
17.898427999999996,5.698848869186237,0.09673076960454748
17.900812000000002,5.680274675676784,0.09669570633244204
17.903191999999997,5.658487676607414,0.09670926128486805
17.905588,5.634698576791627,0.09674766032962291
17.907975999999998,5.6117008729087585,0.09678503454715363
17.910371999999995,5.585909672346555,0.0968442437653712
17.912776,5.561841033277049,0.09689731293659873
17.91516,5.54429055312599,0.09689562352682292
17.917544,5.528322864840768,0.0968943788686412
17.919939999999997,5.5174303132350175,0.09682809346625212
17.922323999999996,5.508260323121963,0.09675389825495903
17.924707999999995,5.499881728941828,0.09668032367214426
17.927104,5.493085926627528,0.09660766256637264
17.929491999999996,5.489455708044902,0.09653675866651207
17.931875999999995,5.48712874207439,0.09648371251713521
17.934272,5.489969460581969,0.09640741248084402
17.936659999999996,5.495603675768882,0.09630713725382248
17.93904,5.506964653941326,0.0961512251106564
17.941435999999996,5.518837488792967,0.09601466383316741
17.943824,5.539510122563192,0.09578149748935628
17.946208,5.557761346706422,0.09559864076676187
17.9486,5.570518125289597,0.09550544353229294
17.950987999999995,5.588210270925385,0.09535701513316297
17.953372,5.608835682867368,0.09517641070316371
17.955768,5.63039226036913,0.09499051900899777
17.95816,5.653671399363588,0.094798732145921
17.96054,5.681374048731461,0.09453873796108625
17.962936,5.704979948807882,0.09428480257201483
17.965328,5.727934222578245,0.09402329241347789
17.967708000000002,5.74981756116197,0.09377931160115448
17.970112,5.769978338252999,0.09354414559188509
17.972499999999997,5.792420755344165,0.0932701913801435
17.97488,5.8143513157561335,0.09297853669799629
17.97728,5.833116292436429,0.09268382220199178
17.979664,5.855513383557221,0.09232154503701853
