Time,Force,Position
18.012956,7.451858787353607e-05,0.0
18.015344,0.00014903717574707214,0.0
18.017724,0.0006428646442012392,0.0
18.02012,0.0006428646442012391,0.0
18.022508,0.0006428646442012391,0.0
18.024892,0.0006428646442012392,0.0
18.027284,0.0006428646442012392,0.0
18.029672,0.0006428646442012392,0.0
18.032056,0.0006428646442012392,0.0
18.034452,0.0006428646442012392,0.0
18.03684,0.0006428646442012392,0.0
18.03922,0.0006428646442012392,0.0
18.041624,0.0006428646442012392,0.0
18.044012,0.0008571528589349854,0.0
18.046392,0.0052154121933626445,0.0
18.048796,0.008642505968011983,0.0
18.051184,0.017144736422133555,0.0
18.053568,0.024576031689616598,0.0
18.055964,0.03372988844979606,0.0
18.058352,0.043814910769753856,0.0
18.060732,0.05596728487511517,0.0
18.063128,0.07105292528667165,0.0
18.065516,0.08371715607123066,0.0
18.067896,0.0956645095107451,0.0
18.070292,0.10747209332339931,0.0
18.07268,0.11848828120313544,0.0
18.075064,0.12522072833631742,0.0
18.07746,0.13195317546949942,0.0
18.079848,0.13561258666962603,0.0
18.082244,0.14299666010886594,0.0
18.08464,0.15038073354810583,0.0
18.087028,0.15883574217398422,0.0
18.089408,0.17050355635977824,0.0
18.091808,0.17888404639778313,0.0
18.094196,0.1799077597561785,0.0
18.096576,0.18079170348771367,0.0
18.09898,0.17273607867380314,0.0
18.101368,0.1653047834063201,0.0
18.103748,0.1561509266461406,0.0
18.106152,0.1460659043261828,0.0
18.10854,0.13383901163294798,0.0
18.11092,0.11867885263351793,0.0
18.113316,0.10552079438050477,0.0
18.115704,0.09357344094099035,0.0
18.118084,0.08176585712833612,0.0
18.12048,0.07074966924859999,0.0
18.122868,0.0660938414497084,0.0
18.125248,0.06036707846417826,0.0
18.127644,0.06064661771789869,0.0
18.130032,0.05454776768003107,0.0
18.132412,0.050451018388580314,0.0
18.134812,0.04356077241779459,0.0
18.137196,0.03189295823200057,0.0
18.139576,0.023652237820855893,0.0
18.141976,0.0218371285295424,0.0
18.14436,0.024026220731062614,0.0
18.146756,0.029939975171696106,0.0
18.149152,0.03923360155873579,0.0
18.15154,0.04931862387869358,0.0
18.15392,0.059683185452371786,0.0
18.156316,0.06990797739918979,0.0
18.158704,0.07813066859959093,0.0
18.161088,0.0834200934937969,0.0
18.163484,0.08842997913428247,0.0
18.165872,0.09194962070754888,0.0
18.168252,0.09593389713176982,0.0
18.170648,0.1002610679908286,0.0
18.173036,0.11338614191060366,0.0
18.175416,0.1264620981442663,0.0
18.177816,0.1533166504616312,0.0
18.180204,0.18715210069052962,0.0
18.182584,0.2330435855104338,0.009002133149486434
18.18498,0.28701609604600975,0.017964313608601415
18.187368,0.34715081180057067,0.026895149329695785
18.189764,0.4060257050555204,0.036472707007516474
18.19216,0.4665740421170542,0.0463800387300114
18.194548,0.5366644563439793,0.05605893978701859
18.196928,0.6135034510569606,0.06548893434508783
18.199324,0.6977898743902992,0.07475983966275529
18.201712,0.788033482276776,0.08405163051399202
18.204092,0.8843740443432512,0.09341835968688504
18.206492,0.9923985539483946,0.10262666294775702
18.208876,1.1126188677714042,0.11177205894423889
18.21126,1.2450822076405228,0.12064249006159777
18.213664,1.3836897235178827,0.12958859689815327
18.216052,1.5286756286868308,0.13838483593606726
18.218436,1.6738485253108824,0.1471789250739525
18.220832,1.8073828003666397,0.1562531761951906
18.223216,1.9417575890414271,0.16516317178927747
18.2256,2.0637042560728713,0.17407524079442632
18.227996,2.17564421108797,0.18294977667125656
18.230384,2.2759474403926436,0.18282397270436515
18.232768,2.370665572196516,0.18269755162219667
18.235164,2.4613813983654245,0.18252247528000964
18.237552,2.55480006927292,0.18151076090986362
18.239936,2.6478957708141904,0.17995323748678677
18.242332,2.730425681831674,0.17860342127151446
18.24472,2.8007597886312925,0.1775716803146975
18.2471,2.859642265317719,0.17686482616165888
18.249496,2.913591270809403,0.1761379901024027
18.251884,2.967309854733479,0.17510312760060628
18.254268,3.014559397425219,0.17407258495303082
18.256664,3.0523140847798107,0.1730505796636608
18.259052,3.074660162356621,0.17240137939512318
18.261432,3.09835861023166,0.17142860789389328
18.263828,3.1169365954568526,0.1705605834826199
18.266212,3.1366327376969267,0.16957444473872205
18.268608,3.167178001430246,0.16806313769050946
18.271004,3.1953490773648117,0.1666430930721852
18.273392,3.2229610747919364,0.16527433963978358
18.275772,3.2494549152041787,0.1640291784989502
18.278176,3.277624095280875,0.16281763051270517
18.280564,3.302021391290215,0.16181574822457243
18.282944,3.32390472987394,0.16089386593447888
18.285344,3.338478513606299,0.16023454546848823
18.287728,3.3439729591663516,0.15996308164894624
18.290112,3.353424384390995,0.15961813191266716
18.292508,3.366832789280229,0.15919265680691136
18.294896,3.386107726781853,0.15852748387537224
18.297276,3.4070126779775567,0.15775779935096135
18.29968,3.4224704054414508,0.15718935794061495
18.302068,3.4336443921587905,0.1568196199224382
18.304448,3.4477044233540832,0.15643481575512194
18.306844,3.4665128301468835,0.1559589758272308
18.309232,3.479687021752772,0.1557655892335688
18.311616,3.4927214437317984,0.15559278794917622
18.314012,3.5031021386583507,0.15549741512665805
18.3164,3.5056142002260966,0.1556744315404433
18.31878,3.505565082539984,0.15598324077916792
18.32118,3.506819217465987,0.15630124356076236
18.323564,3.5100754531384077,0.15654888783754461
18.325948,3.514170306571989,0.15670157135605506
18.328352,3.523527288140146,0.15656842160082657
18.330736,3.532744500081443,0.1564505486111285
18.333116,3.545267065381273,0.1562634319880859
18.335524,3.565238955159329,0.15583942441820678
18.337908,3.5810668738176905,0.15558142758189825
18.340288,3.596662475050576,0.15527796706108493
18.342684,3.608812953298068,0.15505992828772805
18.345076,3.619240870052863,0.154889100385828
18.347456,3.6261764419940232,0.1548756012247654
18.349852,3.631901309121684,0.15491918511547437
18.35224,3.6329703484504527,0.15510486717958888
18.354624,3.63674033665994,0.15514001578777448
18.35702,3.639207072257311,0.15516822593184046
18.359408,3.6380889152424296,0.15529271528948138
18.361788,3.6346891182274104,0.15552020558381596
18.364192,3.6339430482648662,0.15567862643383404
18.36658,3.635478618302459,0.1557344226467924
18.368964,3.641577468340327,0.1555875012438477
18.37136,3.6538223902443048,0.15522565548954412
18.373748,3.665648003267703,0.15491290899069332
18.376132,3.678776868903217,0.15461964443462353
18.378528,3.6928369000985084,0.15430132261588933
18.380916,3.7083871753610196,0.15390506065125967
18.3833,3.7232858243174727,0.15351449706616144
18.385696,3.74246821402048,0.15297193084346158
18.388084,3.7603001292831286,0.15249952832439456
18.390464,3.7807857715982514,0.1519720438819468
18.392864,3.799920939473016,0.15151416723580383
18.395252,3.824271013654112,0.15087481941804454
18.397632,3.852904828581763,0.15007887628102634
18.400028,3.88340097462897,0.14922317196562593
18.402416,3.906819883250288,0.14860079308041893
18.4048,3.9314494966851057,0.14792450420924613
18.407196,3.959012376426118,0.1471551797912855
18.409584,3.9885773569135465,0.14631757931146122
18.411964,4.018421876654696,0.14546703494782398
18.414364,4.0502684971422624,0.14457399678326788
18.416752,4.078110916136995,0.1438211180947604
18.419132,4.097153536213142,0.14332813902662023
18.421532,4.1154047603563715,0.14284561500094606
18.423916,4.129000156700709,0.14248093187370056
18.4263,4.141943926738988,0.14211316275166797
18.428696,4.153676991963769,0.14179941686791198
18.431088,4.164478891628772,0.14151199898931285
18.433468,4.172487294614439,0.1412920901337104
18.435864,4.182637567973383,0.14100643897347132
18.438256,4.19064597095905,0.14078944228571677
18.440636,4.198794143571577,0.1405592348957207
18.443032,4.208013251370744,0.14030161867606536
18.445424,4.213647466557657,0.1401127224248889
18.447808,4.221423552117846,0.13986019869903457
18.450216,4.230410342491535,0.13955638230116058
18.452604,4.239908989544421,0.13927197875364525
18.454984,4.24954740622417,0.1389774410343723
18.45738,4.259605131784497,0.1386477023121109
18.459768,4.267800526225267,0.13836041450874687
18.462148,4.273714280665901,0.1381530078682422
18.464544,4.279767804733394,0.13793348541683284
18.466932,4.290337386972919,0.13762864011854906
18.469312,4.301977904399084,0.13729371660724696
18.471708,4.314689357011886,0.136926294101585
18.4741,4.328192205557604,0.13655386254848573
18.47648,4.338761787797131,0.13624982271566288
18.478876,4.348260434850017,0.13597882580679618
18.481268,4.355617211529626,0.135769274238336
18.483648,4.360040721903041,0.1356307386066772
18.486044,4.365023310783896,0.13544276555956272
18.488432,4.369866130037891,0.13526695639985972
18.490812,4.370564978172192,0.13520549985758074
18.493212,4.375640114851664,0.13507438512424397
18.4956,4.381925956344636,0.1349039885333406
18.49798,4.389282733024245,0.13470121933467724
18.500384,4.395708344144076,0.13451721147779364
18.502772,4.40013185451749,0.13438259422417398
18.505152,4.404555364890904,0.1342495719884647
18.507556,4.405114443398346,0.13420100977830315
18.50994,4.406092830786367,0.13411652270649466
18.51232,4.408002383734167,0.1340141842647674
18.514716,4.409260310375909,0.133906814780934
18.517104,4.411589172204289,0.13377101865712684
18.519484,4.414849199592449,0.13361830107965253
18.52188,4.421322032540523,0.13338217087777154
18.524268,4.430867901421652,0.1330705864861114
18.526652,4.44148470548942,0.13273168006652936
18.529056,4.455034775863385,0.13232811732369817
18.531444,4.468445076610488,0.1319330759310307
18.533824,4.482646773290509,0.13153523952816829
18.536224,4.499409649224388,0.13104965269858274
18.538612,4.517522999598626,0.13051110858630832
18.540992,4.5337740188533076,0.13001320696811938
18.543388,4.543739196615017,0.1296735239426686
18.545776,4.55742903661584,0.1292706411431805
18.548156,4.573540286243662,0.12879323120306038
18.550552,4.5925848021776785,0.1282577629304622
18.55294,4.610418613298196,0.12776401153889075
18.555324,4.635050122590882,0.12713381526223452
18.55772,4.655537660763874,0.12659945908130046
18.560108,4.675094033377087,0.12608439584025866
18.562488,4.692648305243885,0.12561350028311902
18.564888,4.707129541177627,0.12521571242039978
18.567272,4.719468906738093,0.124872302423424
18.569656,4.724591265245807,0.12469718994088852
18.572056,4.729713623753523,0.12452347374514655
18.574444,4.730971550395264,0.12442296475544226
18.576824,4.729575749984531,0.1243583571274739
18.579228,4.732603459947212,0.12417609186123724
18.581612,4.733489299536617,0.12404716343951638
18.583992,4.729951628752607,0.12403576496665415
18.586396,4.7290676850210716,0.12398922007919642
18.588784,4.727532114983479,0.12393590993119148
18.591164,4.727347019386245,0.12383363239247451
18.59356,4.725579131923175,0.12374047357064741
18.595948,4.72059843890019,0.12372496508085924
18.598328,4.716828450690701,0.12367233061896547
18.600728,4.714269167294713,0.12358365844039698
18.603116,4.710499179085225,0.12353068922936512
18.605496,4.708731291622157,0.12343841746566092
18.607892,4.707754800092004,0.12334264480892775
18.61028,4.709851344494907,0.12318327047252019
18.612664,4.71194788889781,0.12302315222897296
18.61506,4.717397008487488,0.12277848082309008
18.617448,4.7251277680773045,0.12246991770668009
18.619844,4.732858527667122,0.1221635455066303
18.622236,4.743522553563132,0.1218008699037385
18.624624,4.757911241698257,0.12138126258104616
18.627008,4.768947354646605,0.12105217450512504
18.629404,4.782125337968231,0.12067352074852614
18.631792,4.797305422036274,0.12025292358238025
18.634176,4.8106231749847606,0.11986630876237649
18.636572,4.823521619052667,0.11951186638632454
18.638956,4.838142624613269,0.11913818120079185
18.64134,4.850202450920013,0.11884613413544928
18.643736,4.863333212413395,0.11852881466352229
18.646124,4.871388837227306,0.1183150411534226
18.648508,4.8800960883472735,0.11811097900387618
18.650912,4.886009842787907,0.11794849146079123
18.6533,4.895788029094514,0.11772262187189027
18.65568,4.903564114654705,0.11753400667360957
18.658084,4.9084069339087,0.11739726386017253
18.660472,4.916183019468891,0.11721067136773239
18.662852,4.921537695402082,0.11709324022049448
18.665248,4.931687968761027,0.1169022226388001
18.667632,4.94276940767975,0.11670079294662583
18.670016,4.958646444024225,0.1164309135298438
18.672412,4.972521379622281,0.11619796770942357
18.674796,4.9853253800337,0.11598636072294419
18.677176,5.000271250818399,0.11573462906892111
18.679572,5.015356891229954,0.11547337495918297
18.68196,5.027369495708456,0.11526772411570195
18.684344,5.038590704254038,0.11506345844041542
18.68674,5.053816114292455,0.1147944042203577
18.689128,5.072394099517647,0.11445082880363312
18.691524,5.090692545489119,0.1141268932156023
18.69392,5.111644718513066,0.1137749951996391
18.696308,5.130734560417457,0.11344942353979735
18.698688,5.1499641719487075,0.11311237473119616
18.701084,5.166260517173763,0.11282453283445072
18.703472,5.183767567212317,0.1125042375047426
18.705856,5.200203682064233,0.11220329995385143
18.708252,5.212635595423314,0.11197031890119176
18.71064,5.224415882476338,0.11172899230464771
18.71302,5.23140057210361,0.1115599510412505
18.715416,5.236662700238185,0.11140613825686803
18.717804,5.232985259827314,0.1113967099105926
18.720184,5.230378754603084,0.11136585438879831
18.72258,5.230985054938768,0.11127133776674132
18.724968,5.228658088968256,0.11122112025139805
18.727352,5.228193454117302,0.11114849009488889
18.729748,5.230941624826262,0.11101347236653361
18.732136,5.237833766654917,0.1108064864582222
18.734516,5.241652872550517,0.11065373054167317
18.736916,5.2454719784461155,0.11050277657153394
18.7393,5.249710393222297,0.11032415264854574
18.741696,5.253436951319279,0.11012890703214441
18.744092,5.255440947923565,0.10994492169853029
18.74648,5.259167506020547,0.10974907746313195
18.748864,5.26317360337125,0.10953495859044132
18.75126,5.2682506359085925,0.10930197218963594
18.753648,5.280125366618104,0.1089800919854757
18.756028,5.294281737327751,0.10860851353166155
18.758432,5.311231604716733,0.1082074829275034
18.76082,5.326039601732439,0.1078418100111833
18.7632,5.338565958748006,0.10752352901945197
18.765596,5.358309322816324,0.10708428922339253
18.767984,5.380334326884778,0.10660360770793416
18.770364,5.394350927967565,0.10623881402221104
18.772764,5.4079482201697715,0.10590214390305248
18.775148,5.419683181252421,0.10558847810269928
18.777532,5.427413940842237,0.10533370567785454
18.779928,5.433933995618554,0.10511100050301365
18.782312,5.437008927409479,0.1049097873757923
18.784696,5.43607965770757,0.10476735303319538
18.787092,5.437152488752079,0.10459658387776039
18.78948,5.43608344942331,0.10446340140121832
18.791864,5.437947676400737,0.10429117986955373
18.79426,5.440231212258744,0.10409267935664163
18.796648,5.444377079236307,0.10387597144306904
18.799032,5.446660615094312,0.10367894856613886
18.801428,5.439352956100815,0.10359556606283349
18.803816,5.432976462667096,0.10350235625807525
18.8062,5.423946242180902,0.10342813174634043
18.8086,5.419199762441263,0.10328041645731793
18.810988,5.416734922701761,0.10308655706026665
18.813368,5.412267982215842,0.10292120736084431
18.815768,5.403657070610228,0.10281883995872106
18.818156,5.405056662736699,0.10258092228370963
18.820536,5.406875563743751,0.10231657297170166
18.822932,5.405900968071468,0.10207845284510803
18.82532,5.410001509078658,0.10176771263545718
18.827704,5.410377387846734,0.10149369719060299
18.8301,5.416340259973481,0.10116574707269489
18.832488,5.424305232846644,0.1008095741590971
18.834872,5.431990666466085,0.10047483638730552
18.837268,5.441678200831944,0.10011217853190414
18.839652,5.4493636344513865,0.09977688760316605
18.842048,5.453836262510914,0.09949460580815665
18.844448,5.4564465594508835,0.09923146793482676
18.846836,5.461850353070188,0.09894334221160388
18.849216,5.476053945608078,0.09855121039478874
18.851612,5.488255437399553,0.09818597321264845
18.854004,5.502179490683723,0.09781323532340316
18.856384,5.5158240047141724,0.09746077426775933
18.858784,5.528397583557982,0.09712548492636795
18.861172,5.5389690616553775,0.09681636980584726
18.863552,5.551402870872329,0.09649113904751924
18.865948,5.560903413783084,0.09620368317850192
18.868332,5.569333021507202,0.09593285914858678
18.870716,5.58255822665707,0.09561332853096659
18.873116,5.593641561433662,0.09532920888579989
18.875504,5.606866766583531,0.09501193713089529
18.877888,5.616227539867426,0.09473662193553227
18.880288,5.626519478711099,0.09445456908985872
18.882676,5.632946985688801,0.09421207402404028
18.885056,5.641516363039779,0.09393918196888915
18.887456,5.651016905950534,0.09365850917291138
18.889844,5.662519549607708,0.0933531444596401
18.892228,5.671740553264743,0.09308742179142729
18.894624,5.679099225802222,0.09283876160371858
18.897016,5.68031182647359,0.0926697237079669
18.899396,5.684317923824293,0.09247887000014166
18.901792,5.686461690055439,0.09230298711443764
18.90418,5.687674290726807,0.09213489272319439
18.90656,5.6916803880775095,0.0919454009182428
18.908964,5.69768858617463,0.09173349924007529
18.911352,5.7036967842717505,0.0915227175115272
18.913732,5.706631946435813,0.0913496960983243
18.916136,5.710498274159656,0.09116939294048174
18.91852,5.712082961883362,0.09102864872746388
18.920904,5.716461146286402,0.09086784686444671
18.9233,5.720280252182001,0.09073985393336659
18.925688,5.722888653264103,0.09063449775644167
18.928068,5.723634723226646,0.09054322256186183
18.930464,5.727593598749106,0.09040644825754944
18.932852,5.729270834271429,0.09030866211251068
18.935236,5.731739465726669,0.09021240350033592
18.937632,5.735930658674608,0.09011112744704075
18.94002,5.742123952368961,0.08998754746496035
18.9424,5.748689333115651,0.08988989760167429
18.944804,5.761400785728454,0.08972017313734389
18.947192,5.774112238341258,0.08955255104915855
18.949572,5.788406482819896,0.08938769897520293
18.951972,5.805494223977867,0.0892049489063797
18.95436,5.821650799576062,0.08903063785628856
18.95674,5.836456900733898,0.08888715965185746
18.959136,5.849400670772178,0.08875692065007017
18.961524,5.866069103049572,0.088601125144278
18.963904,5.884739636073382,0.08842646937396755
18.966308,5.905552039470469,0.0882245354669199
18.968696,5.922500011001581,0.08805668768009663
18.971076,5.939867291413276,0.08786571866162303
18.973472,5.9610990036909435,0.08764176673427343
18.97586,5.985124212647945,0.08740047365578543
18.97824,6.00644847272423,0.08721825378008702
18.980644,6.027912502427374,0.08702857679956479
18.983032,6.0485851361976,0.08683811450162451
18.985412,6.070748014035045,0.08661468517025782
18.987808,6.0951925318726285,0.08635859550026315
18.990196,6.120335897844512,0.08606604312662249
18.992576,6.137470860830727,0.08585143242830316
18.99498,6.152883262324248,0.08564253732865483
18.997368,6.16885474232521,0.08540491404788451
18.999748,6.1820327256468355,0.08518616181390873
19.002144,6.193208608222044,0.08498630213390612
19.004532,6.206805900424251,0.08474672381671677
19.006916,6.220263422999597,0.08451386689697017
19.009312,6.233488628149467,0.08425185785129341
19.0117,6.243501027739421,0.08402904711644969
19.01408,6.251790865836678,0.08381091680434075
19.016476,6.261431178374294,0.08356540054410312
19.018864,6.271862886844828,0.08332290451318489
19.021244,6.282993443449664,0.08304666265385482
19.023644,6.292541208188662,0.08276784800612118
19.026032,6.305860856995018,0.08242390434140162
19.028412,6.319320275428232,0.08207342303482647
19.030808,6.333990398674946,0.08170511822935708
19.033196,6.344516550801968,0.08138033943989385
19.03558,6.353971767742348,0.08107003707288614
19.037976,6.359422783189898,0.08079261206663468
19.040364,6.374092906436612,0.0804312907032464
19.042744,6.386760928936909,0.08008593023282437
19.04514,6.399568721064068,0.07973619812679492
19.047528,6.410653951698531,0.07938800234965061
19.049912,6.424300361586848,0.07899643636825375
19.052316,6.43594467072875,0.07862328183284124
19.054704,6.448799684684151,0.07823142964033676
19.057088,6.4601644545723325,0.07787393461995373
