Time,Force,Position
17.036124,0.0,0.0
17.038528,0.0,0.0
17.040916000000003,0.0,0.0
17.043295999999998,0.0,0.0
17.045692000000003,0.0,0.0
17.04808,0.003883783746854332,0.0
17.05046,0.011771768986542365,0.0
17.052864,0.018588819039591867,0.0
17.055251999999996,0.027547739465918434,0.0
17.057631999999998,0.035715263959326886,0.0
17.060035999999997,0.04602465882601241,0.0
17.062424,0.05805661518539435,0.0
17.064804000000002,0.06622413967880281,0.0
17.067203999999997,0.07252933305265462,0.0
17.069587999999996,0.07497009456053294,0.0
17.071968,0.07713131681469085,0.0
17.074364000000003,0.07836137350907044,0.0
17.076752,0.07866026464367169,0.0
17.079132,0.07866026464367168,0.0
17.081528,0.07866026464367168,0.0
17.083911999999998,0.08030963021863188,0.0
17.086312,0.0808880606069536,0.0
17.088712,0.08088806060695358,0.0
17.091099999999997,0.08088806060695358,0.0
17.09348,0.08088806060695358,0.0
17.095875999999997,0.07700427686009927,0.0
17.098267999999997,0.06911629162041122,0.0
17.100648,0.06229924156736171,0.0
17.103043999999997,0.053340321141035145,0.0
17.105432,0.045172796647626696,0.0
17.107812000000003,0.034863401780941175,0.0
17.110211999999997,0.022831445421559227,0.0
17.1126,0.014663920928150774,0.0
17.114980000000003,0.008358727554298959,0.0
17.117376,0.0059179660464206375,0.0
17.119763999999996,0.0037567437922627358,0.0
17.122144,0.002526687097883155,0.0
17.124547999999997,0.0025266870978831544,0.0
17.126936,0.002685808605624205,0.0
17.129316000000003,0.0026858086056242045,0.0
17.131715999999997,0.0010364430306639924,0.0
17.134104,0.0004580126423423107,0.0
17.136484000000003,0.0004580126423423107,0.0
17.138883999999997,0.0004580126423423107,0.0
17.141267999999997,0.0004580126423423107,0.0
17.143651999999996,0.0004580126423423107,0.0
17.146048,0.0004580126423423107,0.0
17.14844,0.0004580126423423107,0.0
17.150819999999996,0.0004580126423423107,0.0
17.153216,0.0004580126423423107,0.0
17.155603999999997,0.0004580126423423107,0.0
17.157984,0.0004580126423423107,0.0
17.160384,0.0004580126423423108,0.0
17.162771999999997,0.0004580126423423108,0.0
17.165152,0.0004580126423423108,0.0
17.167555999999998,0.0004580126423423108,0.0
17.169944,0.0004580126423423108,0.0
17.172323999999996,0.0001591215077410503,0.0
17.17472,0.0006709781869387401,0.0
17.177107999999997,0.0037633660008749618,0.0
17.179488,0.006855753814811183,0.0
17.181883999999997,0.009948141628747404,0.0
17.184272,0.013831925375601736,0.0
17.186652000000002,0.02171991061528977,0.0
17.189056,0.02746602548170074,0.0
17.19144,0.03307237072125151,0.0
17.193820000000002,0.03639707596066499,0.0
17.196224,0.036397075960665,0.0
17.198611999999997,0.036397075960665,0.0
17.200992,0.036397075960665,0.0
17.203387999999997,0.036397075960665,0.0
17.205776,0.036397075960665,0.0
17.208156000000002,0.036397075960665,0.0
17.21056,0.036397075960665,0.0
17.212947999999997,0.036397075960665,0.0
17.215328,0.036397075960665,0.0
17.217731999999998,0.036397075960665,0.0
17.22012,0.036397075960665,0.0
17.222499999999997,0.03572609777372626,0.0
17.224904000000002,0.032633709959790036,0.0
17.227292,0.029541322145853813,0.0
17.229672,0.026448934331917598,0.0
17.232067999999998,0.02256515058506326,0.0
17.234456,0.014677165345375229,0.0
17.236835999999997,0.008931050478964255,0.0
17.239232,0.004414992306932862,0.0
17.241619999999998,0.004322444508315803,0.0
17.244,0.011558803441945936,0.0
17.246404,0.01893493200243628,0.0
17.248787999999998,0.027381995749565156,0.0
17.251171999999997,0.0419751313628048,0.0
17.253568,0.05470593585648778,0.0
17.255955999999998,0.06650557479039247,0.0
17.258336,0.0763031129778803,0.0
17.26074,0.08488994635186939,0.0
17.263123999999998,0.09319724047213804,0.0
17.265504,0.10057336903262838,0.0
17.267908,0.10794949759311874,0.0
17.270296000000002,0.1122525902205537,0.0
17.272675999999997,0.1122525902205537,0.0
17.275072,0.1122525902205537,0.0
17.277459999999998,0.1122525902205537,0.0
17.279843999999997,0.1122525902205537,0.0
17.28224,0.1122525902205537,0.0
17.284627999999998,0.11292356840749244,0.0
17.287008,0.11183328133997308,0.0
17.289403999999998,0.10913233245925517,0.0
17.291792,0.10189597352562504,0.0
17.294171999999996,0.0945198449651347,0.0
17.296568,0.08767492496472289,0.0
17.298955999999997,0.0746839330982003,0.0
17.301352,0.06741970421720786,0.0
17.303748,0.06374036794846848,0.0
17.306136000000002,0.06220290205300617,0.0
17.308515999999997,0.06094497541126427,0.0
17.310912000000002,0.06024612727696321,0.0
17.313299999999998,0.062340775821997124,0.0
17.31568,0.06564612918052978,0.0
17.318075999999998,0.07388684959167445,0.0
17.320464,0.08950369856330948,0.0
17.322843999999996,0.10512054753494449,0.0
17.325243999999998,0.11887506538702285,0.0
17.327632,0.13062748249268438,0.0
17.330011999999996,0.14023802922506884,0.0
17.332408,0.14838620183759646,0.0
17.334795999999997,0.15613441745042428,0.0
17.337179999999996,0.16242025894339523,0.0
17.339576,0.16830614343666642,0.0
17.341963999999997,0.17512319348971594,0.0
17.344344,0.18033809979604837,0.0
17.346744,0.18047786942290858,0.0
17.349131999999997,0.17503064569109886,0.0
17.351528000000002,0.1692113349069517,0.0
17.353924,0.16311248486908408,0.0
17.356312000000003,0.15794480039099482,0.0
17.358691999999998,0.1523578070323249,0.0
17.361095999999996,0.14411708662118022,0.0
17.363484,0.13745915807587178,0.0
17.365864000000002,0.12893889841100664,0.0
17.36826,0.114412336506891,0.0
17.370648000000003,0.09895460904299705,0.0
17.373032000000002,0.09122574531105007,0.0
17.375428,0.08549898232551996,0.0
17.377816000000003,0.08298502489990542,0.0
17.380195999999998,0.08126246340720897,0.0
17.382596,0.08075060672801129,0.0
17.38498,0.08196131154151003,0.0
17.387363999999998,0.08582574340748352,0.0
17.389760000000003,0.0839161904596837,0.0
17.392144000000002,0.07739613568336622,0.0
17.394528,0.08181585434104206,0.0
17.396924,0.08911972161880069,0.0
17.399312000000002,0.09581539270300607,0.0
17.401691999999997,0.11247244983318333,0.0
17.404088,0.13359644744927957,0.0
17.406480000000002,0.16160879517829232,0.0
17.408856,0.20023415525933483,0.0
17.41126,0.2392297065348455,0.0123782963435025
17.413648000000002,0.2841824423634944,0.02454422351337774
17.416027999999997,0.34175029129058987,0.03593416327445345
17.418428,0.4080688214501585,0.047004309735196044
17.420811999999998,0.47419846429675455,0.05812855876849901
17.423195999999997,0.5501497235624622,0.06878077070478782
17.425592,0.6309872321946695,0.07943163560164657
17.427976,0.7179216950068752,0.09004732277027062
17.430372,0.8136068390515538,0.10040991157568985
17.432767999999996,0.9152491676493709,0.11074831569932152
17.435156,1.0220572848674079,0.12103830784827113
17.437536,1.1454393907063511,0.1308615464041798
17.439932,1.2870727206885235,0.14010076588706077
17.442320000000002,1.4267983935807653,0.14922447861274912
17.444699999999997,1.5718806382640689,0.15806054457451713
17.447103999999996,1.7182227054469839,0.16676188370361986
17.449492,1.857536652890122,0.17535187160720517
17.451872,1.9946652998474783,0.18381556486425563
17.454268,2.1231830351992222,0.1923505045847811
17.456656000000002,2.2378749526390203,0.201070896242949
17.45904,2.3501945781379336,0.19739393902854924
17.461436,2.4576279542703467,0.1938731249616882
17.463824000000002,2.556310649170287,0.19109132728994757
17.466208,2.64903615951709,0.18855667833279832
17.468604,2.7343614630717776,0.1860220810982921
17.470992000000003,2.8080028190877973,0.18403361774104388
17.473371999999998,2.8776890912970954,0.18195394714491833
17.475768000000002,2.943000970819092,0.17985554701694922
17.478156,3.000074025787813,0.17801087217212516
17.480539999999998,3.04867593877778,0.17624407414911172
17.48294,3.090669040908553,0.1744890217206876
17.485328000000003,3.121862139232192,0.17316489166156362
17.487712000000002,3.1362017096812047,0.1725894518935185
17.490108,3.146444530838766,0.17214821891565274
17.492496000000003,3.150029423451019,0.1720133662456969
17.494880000000002,3.1506810497570767,0.1720132404084063
17.497276,3.1476080138240214,0.17216231771976737
17.499664000000003,3.1431845034506076,0.17239983775452908
17.502048000000002,3.144487756062723,0.17240094877321124
17.504444,3.1558015124069234,0.1719573648524686
17.506832000000003,3.1673948080048433,0.17148287511228874
17.509216000000002,3.178848333975904,0.1710322780605336
17.51162,3.188439528827407,0.17065098536012144
17.514007999999997,3.1963081621862144,0.1703252274220187
17.516391999999996,3.2057595874108573,0.16996242501214487
17.518788,3.2189356748746145,0.16946121588481589
17.521175999999997,3.229038726405316,0.1691015540405177
17.523559999999996,3.2400729434957958,0.16871724716240344
17.525956,3.252457635026634,0.16825384807456642
17.528343999999997,3.2693583847295042,0.1676465526557836
17.530727999999996,3.285560286298073,0.16712436685276635
17.533124,3.301762187866642,0.16660825315497904
17.535511999999997,3.322759686860963,0.16590066102171871
17.537892,3.3436174162284233,0.16520624379527882
17.540292,3.366477246342301,0.1644348853456904
17.542679999999997,3.3914789468294555,0.16357547790224541
17.54506,3.4155494817568313,0.16273481481457616
17.547455999999997,3.4388286207512895,0.16191631407630147
17.549844,3.459314263066412,0.16121907226962273
17.552228,3.4724431287019257,0.1608563807365543
17.554623999999997,3.485292455083719,0.1605307345744816
17.557012,3.4959999110922353,0.16029762455423044
17.559396,3.5074987630336696,0.16004799386302873
17.561796,3.5187180757213836,0.15983131045435348
17.564183999999997,3.5300771580359576,0.15959751722224605
17.566564,3.540644844417613,0.15938323198028784
17.568967999999998,3.5572188330385197,0.15894914257273177
17.571351999999997,3.568345597927616,0.1586763988067126
17.573732,3.575607930950739,0.15853874641651597
17.576135999999998,3.5791456017347487,0.15852005383318543
17.578524,3.587246552519033,0.15829366232606515
17.580903999999997,3.594276568116679,0.15811233797488963
17.583308000000002,3.6009344966619876,0.1579000259235781
17.585692,3.610945000394072,0.1575461284855675
17.588076,3.621095273753016,0.1571841578841969
17.590476000000002,3.6268220367385458,0.15700624877299216
17.592864,3.634271361216773,0.1567866426185246
17.595247999999998,3.6414411464412786,0.15659764761273434
17.597644000000003,3.6453981261058694,0.15653628172908438
17.600032,3.651916285024318,0.15634246489200043
17.602412,3.6585742135696266,0.15613497921289737
17.604816,3.6673740124882115,0.15584097311479592
17.6072,3.6785952210337944,0.1554354295976026
17.609583999999998,3.687954098459821,0.15508013974627388
17.611980000000003,3.699175307005404,0.154673359380196
17.614368,3.7130502426034617,0.15421137738626278
17.616748,3.7178458400292134,0.1540641414646606
17.619144,3.7314412363735507,0.1536416073808804
17.621527999999998,3.7470387334643047,0.15314837077650267
17.623911999999997,3.7624964609281992,0.15266462347976328
17.626308,3.7718081165259822,0.15240352579328592
17.628692,3.784053038429961,0.1520536542760072
17.631076,3.7942958595875225,0.15177164954750869
17.633471999999998,3.8008140185059704,0.15159528305143918
17.63586,3.8056096159317225,0.15145680591239272
17.638244,3.81389755817111,0.15117011681607512
17.640644,3.8246069100374953,0.1507798649617777
17.643028,3.8357355707844616,0.15034708156381807
17.645412,3.8492856411584246,0.14980304071640463
17.647807999999998,3.86190454597261,0.14928868929243871
17.650196,3.8757341556002936,0.14872908799337883
17.65258,3.8898433044816976,0.14814705625700011
17.654975999999998,3.901531043736105,0.14767415459165695
17.657364,3.918293919669984,0.14704449601960265
17.659748,3.933334234111167,0.14645318598588222
17.662143999999998,3.940925224074123,0.1460471363697298
17.664536,3.949726918850578,0.14557688080267714
17.666916,3.9505202106413653,0.1453582322641691
17.66932,3.953036063924849,0.14510825899006471
17.671704,3.9607668235146654,0.1446916517909099
17.674084,3.9706394534777587,0.1441983194639225
17.676479999999998,3.974925090082182,0.1438434218057698
17.678868,3.984797720045275,0.14335799753422052
17.681247999999997,3.995833832993624,0.14289516470393504
17.683644,4.006450637061392,0.14247386533556078
17.686028,4.016136275569383,0.14207849942272702
17.688408000000003,4.021538173330818,0.1418271578099629
17.690815999999998,4.0243788918383965,0.1416868383066014
17.693199999999997,4.030804502958228,0.14147470379923316
17.69558,4.036671035570618,0.14131639757196882
17.697983999999998,4.039464532249952,0.14125124426841726
17.700367999999997,4.0399763889291505,0.14126972229930196
17.702748,4.03983661930229,0.14128314624276875
17.705152,4.035552878555736,0.14142267521924867
17.70754,4.030198202622543,0.14159754846616296
17.709919999999997,4.031501455234659,0.14160780648335267
17.712316,4.039881945272665,0.14141434129688987
17.714703999999998,4.047471039377751,0.14122449163516024
17.717087999999997,4.049333370497307,0.14117993760628403
17.719484,4.04705173049717,0.14126377257887657
17.721871999999998,4.047703356803228,0.14126904268770155
17.724252,4.0514280190423415,0.14118281493104543
17.726656,4.046632421616589,0.14130326967321974
17.729039999999998,4.040673341205582,0.14140003953992641
17.73142,4.032851929675017,0.14154186483046494
17.733824,4.02647354038343,0.14167898740732937
17.736212000000002,4.025030518144453,0.1416817837722351
17.738596,4.0278712366520315,0.14154538662488014
17.740992,4.0247056529203595,0.14157750707412578
17.743380000000002,4.022611004375325,0.1415751289606938
17.745759999999997,4.02144752139007,0.1415514296181687
17.748164000000003,4.022565678404951,0.1414450197953214
17.750552,4.027408497658946,0.1412548613028876
17.752932,4.030249216166525,0.14111789810870964
17.755332000000003,4.038025301726716,0.1408497448774049
17.75772,4.0411455594880135,0.14068878861333015
17.7601,4.042123946876035,0.14059819013409772
17.762496,4.048829097249586,0.14037265925999065
17.764884000000002,4.063542650608806,0.1399334452707806
17.767263999999997,4.079187369527802,0.13947566595711963
17.769660000000002,4.089756951767327,0.1391594844912048
17.772044,4.10097816031291,0.13885103850459954
17.774428,4.115924031097606,0.13845636476133816
17.776823999999998,4.131801067442081,0.13804218686816522
17.779207999999997,4.148888808600054,0.13757609625414036
17.781608,4.164253988265332,0.13714097435921083
17.784003999999996,4.176965440878134,0.13676011310234054
17.786392,4.1880941016251,0.13639809682506673
17.788772,4.200713006439285,0.13596066270397036
17.791168,4.212959824201134,0.13549446121672962
17.793556000000002,4.22641734677648,0.13498577327460806
17.795935999999998,4.239083473418908,0.1344884535655951
17.798332000000002,4.247885168195362,0.134084310209392
17.80072,4.263112474091649,0.13349076283039413
17.8031,4.272613017002405,0.13302874268114873
17.805504,4.28169425103258,0.13259834466672782
17.807892000000002,4.285840118010142,0.1322881557958356
17.810271999999998,4.286261322748592,0.13205613757695353
17.812668000000002,4.284540657113766,0.1318889928601662
17.815056,4.28216836517288,0.13171579615399315
17.817439999999998,4.283148648418771,0.131438432240144
17.819843999999996,4.282266600545105,0.13119752227339282
17.822232,4.282735027111797,0.13090248481733946
17.824616,4.283994849611409,0.1306027406385321
17.827011999999996,4.2892588736038535,0.1302103065182447
17.829396000000003,4.292800336103602,0.1298393375265589
17.831775999999998,4.2963417986033505,0.1294692475754928
17.834179999999996,4.302397218528713,0.1290750451529613
17.836568,4.310454739200494,0.12863612191263352
17.838948000000002,4.318232720618553,0.12822250071067923
17.841352,4.324939766849974,0.12783979068472953
17.843739999999997,4.33295006569351,0.12747376294910898
17.84612,4.343893630843242,0.127047776021518
17.84852,4.355488822299032,0.12664040302475907
17.850907999999997,4.369737740807297,0.1261959142474556
17.853288,4.390412270435393,0.12559160751608886
17.855683999999997,4.417372641556459,0.12483724631800511
17.858072,4.4472662789837205,0.1240295341150843
17.860456,4.474506189358507,0.12326283856418466
17.862851999999997,4.500535394919796,0.12253384781707956
17.86524,4.527216226787141,0.12182282453817085
17.867620000000002,4.556970094587543,0.12104793875973535
17.870016,4.583091847947449,0.1203838067406726
17.872403999999996,4.609073831680493,0.11973616503443758
17.874784,4.632913945040261,0.11915181182040382
17.877187999999997,4.661549655825783,0.11848800656680876
17.879576,4.6906972232905,0.11784588246079775
17.881956000000002,4.715840589262385,0.11728729799199412
17.884352,4.740564646353688,0.11676732420562888
17.886739999999996,4.766080099377909,0.1162466759593558
17.88912,4.7873118116555755,0.11581810621790821
17.891523999999997,4.806820962440547,0.11540931315106852
17.893912,4.821674285426625,0.11507089883879332
17.896292000000003,4.830661075800315,0.11484081048239779
17.898688,4.839508096547143,0.11462265904517747
17.901075999999996,4.846073477293833,0.11446839991628281
17.903460000000003,4.8500776787866675,0.1143951413036837
17.905856,4.852731405839143,0.11436681258640381
17.908243999999996,4.8546862847573165,0.11439038036999889
17.910624,4.8585034947950465,0.11438788857550296
17.913027999999997,4.861110000019278,0.11441934058044193
17.915411999999996,4.862505800430011,0.11448417310823816
17.917796000000003,4.869396046400796,0.11442412416988461
17.920192,4.876146522744722,0.11437472439157347
17.922579999999996,4.882757229461787,0.11433618464360588
17.92496,4.883501403566463,0.11439267971448398
17.927363999999997,4.8842455776711375,0.11444900051125842
17.929747999999996,4.886060686962452,0.11448283053427709
17.932132000000003,4.885733925880488,0.11456187731993286
17.934528,4.884475999238746,0.11465318843399952
17.936912,4.89229741076931,0.11458211292397985
17.939292000000002,4.899047887113236,0.11453315748278739
17.941691999999996,4.910314421629192,0.11443176748426996
17.94408,4.9223723520780664,0.1143262483176907
17.946460000000002,4.931916325101327,0.11423781728900433
17.948856,4.936245391818256,0.11425377881967426
17.951244000000003,4.939643292975404,0.11428244814764128
17.953623999999998,4.942389567826496,0.11430335605709768
17.956024,4.9495593530510025,0.11422239476961582
17.958412000000003,4.957939843089008,0.11410997513891988
17.960808,4.964458002007456,0.1140222297388048
17.963203999999998,4.972047096112543,0.11391315621030627
17.965592,4.977214780590632,0.11387026731246534
17.967976,4.982010378016384,0.11380003671559535
17.970371999999998,4.9855952706286395,0.11376177112851689
17.97276,4.997840192532617,0.11359741004212538
17.975139999999996,5.008502322570759,0.11343708684975867
17.977544,5.024519128542092,0.11317403675128111
17.979931999999998,5.0458906104466195,0.112808091689859
17.982312,5.067401861978007,0.11243295963027973
17.984707999999998,5.084257285710503,0.1121213657232107
17.987091999999997,5.105536219816413,0.11172113572355107
17.989475999999996,5.12988818985538,0.11127892864692975
17.991872,5.158523900640899,0.11076041543846857
17.994259999999997,5.193026144038809,0.11016554251857132
17.99664,5.232883063369913,0.1094682319391895
17.999035999999997,5.2751613923280125,0.10871832765226863
18.001424,5.3143666853530585,0.10801276165666422
18.003808,5.348776380952351,0.1073739802385881
18.006203999999997,5.379973270991729,0.10679696641812007
18.008592,5.414382966591023,0.10616328874038272
18.010972000000002,5.445859395884121,0.10557244631231824
18.013368,5.476684198871161,0.10497516180564577
18.015756,5.506018757790982,0.10442471151081043
18.018136,5.5368435607780215,0.10382879322208004
18.02054,5.557797629659839,0.10337425985991461
18.022928,5.581545195220988,0.10289165289910551
18.025312,5.597935984102531,0.10253812743108848
18.027708,5.6092516363046,0.10226361502870712
18.030096,5.620287749252949,0.10200697521285164
18.03248,5.627971287014521,0.1018136797757228
18.034884,5.632162479962458,0.10169571446822516
18.037272,5.628624809178448,0.10167223399524022
18.039656,5.622805498394301,0.1016935303825981
18.042052,5.610700346117183,0.10181371499010654
18.04444,5.592588891600814,0.10201670292613059
18.046824,5.568982991524393,0.10232004443167962
18.049228,5.550452228127443,0.10255046128012267
