Time,Force,Position
21.029544,0.09634051709815131,0.0
21.031924,0.09634051709815131,0.0
21.03434,0.09634051709815131,0.0
21.036724,0.09465736379565313,0.0
21.039108,0.08976140493323939,0.0
21.041504,0.08379451088418709,0.0
21.043892,0.07568574646185773,0.0
21.046272,0.06543511166625132,0.0
21.048668,0.05518447687064491,0.0
21.051056,0.043071510955481854,0.0
21.05344,0.031098314667179,0.0
21.055836,0.021127219125293008,0.0
21.058224,0.013158224329823862,0.0
21.060604,0.00733109990763178,0.0
21.063004,0.0036458458587167596,0.0
21.065392,0.0007519877427198491,0.0
21.067772,0.0,0.0
21.070168,0.0,0.0
21.072556,0.0,0.0
21.074936,0.0,0.0
21.077332,0.0,0.0
21.07972,0.0,0.0
21.082104,0.0,0.0
21.0845,0.0,0.0
21.086888,0.0,0.0
21.089272,0.0,0.0
21.091668,0.0,0.0
21.094056,0.0,0.0
21.096436,0.0,0.0
21.098836,0.0,0.0
21.101224,0.0,0.0
21.103604,0.0,0.0
21.106,0.0,0.0
21.108392,0.0,0.0
21.110772,0.0,0.0
21.113168,0.0058629711032197876,0.0
21.11556,0.027179877954595047,0.0
21.11794,0.05813140976997862,0.0
21.120336,0.10076688912403042,0.012041744559468269
21.122728,0.15136165377763727,0.02349552945435171
21.125108,0.20800615078299933,0.035064623374715165
21.127504,0.2765196909242639,0.04608906987669062
21.129892,0.35797320938806926,0.056596246269209234
21.132276,0.4518548494952179,0.066704825712739
21.134672,0.557560206767895,0.07637632453095854
21.137064,0.664007842287378,0.08653472671169649
21.139444,0.7786470805318931,0.09663781547911754
21.14184,0.9055746707928912,0.10651023670691125
21.144232,1.0454422393764304,0.11618800031241117
21.146612,1.199367943297392,0.12554614008034287
21.149008,1.3621840980776874,0.1348129553688744
21.151396,1.5312369766648408,0.14409235112158053
21.15378,1.7049437871930169,0.1534227079232596
21.156176,1.8882871185430705,0.1625113289570164
21.158568,2.0820130406775457,0.1712308236489114
21.160948,2.274067184656738,0.17971318274780376
21.163348,2.44596623911851,0.18820606289884795
21.165736,2.606275789698099,0.19669712028571187
21.168116,2.75420254460472,0.19322240559484957
21.170528,2.897847454622655,0.19029251366952749
21.172916,3.0390275249010887,0.18714663457912334
21.175292,3.165871816446248,0.18452732106397507
21.177688,3.277728702952076,0.18236202449066902
21.180072,3.369987682590054,0.1808023093690365
21.182452,3.4486531617415643,0.17980523099573376
21.184868,3.5334666086170547,0.1781378862018597
21.187256,3.618748482059238,0.1762414757401106
21.189636,3.6919289949400413,0.17448859390649618
21.192032,3.7477006931545165,0.17297748376111213
21.194416,3.783967032299758,0.17194046760562243
21.196796,3.812925712451503,0.17096720592469364
21.199208,3.839092791781783,0.16989826277109354
21.201592,3.8659606151042327,0.16857223613650482
21.203972,3.8816563475672115,0.16743877862787931
21.206368,3.8800792432749827,0.16683117160961203
21.208752,3.8692358093553447,0.16664848793915465
21.211132,3.8609044370034526,0.16662465439351
21.213524,3.855551656928129,0.16663517749258253
21.215912,3.8564847183457767,0.16639165384355264
21.218288,3.8535080219270768,0.1661450333040198
21.220684,3.8435013099107307,0.16608516836834017
21.223068,3.837683894984453,0.1659999554035403
21.225448,3.8358687856931395,0.16598158180390385
21.227864,3.845599750171503,0.16564470294854525
21.230248,3.857100497970807,0.16518226797016708
21.232628,3.8602679775603486,0.1649148095635151
21.23504,3.849840060805553,0.165105029242906
21.237428,3.8394574700211312,0.16542890641734273
21.239808,3.8373609256182277,0.16564979992252496
21.24222,3.846950224611862,0.1655496489917217
21.244604,3.8545374228590794,0.1655200714524393
21.246984,3.8596106636806824,0.16554632415876497
21.24938,3.862122725248428,0.1656983874668611
21.251764,3.867194070212162,0.16593081810737884
21.254144,3.88418357599791,0.16590642904773656
21.256544,3.913977082195078,0.1654726385662318
21.258928,3.95038319096718,0.1647139962482554
21.261308,3.9859053560077475,0.16391023648067227
21.263724,4.015840527689645,0.16328455097944944
21.266112,4.049173600528692,0.16266680229544989
21.268492,4.09233018564472,0.16182652880720935
21.270908,4.135486770760747,0.16100053013860913
21.273292,4.175617541771963,0.16020333034832776
21.275672,4.211232254611148,0.1595295770895264
21.278076,4.248429759316168,0.1588384552513114
21.280464,4.290235869991837,0.15810168096611635
21.282844,4.344706211452065,0.1570136376137003
21.285248,4.4002947099271745,0.1558270462175881
21.287632,4.451274602431636,0.1547036911671605
21.290012,4.496015875271369,0.15374691040039232
21.292416,4.546763450350351,0.15263842549470008
21.294804,4.602446392481947,0.1514322096887311
21.297184,4.652402571628014,0.15036808203660423
21.299588,4.700543641482766,0.1492793784460915
21.301976,4.742865400553371,0.14829743685819846
21.304356,4.775456195145613,0.14758308374660375
21.306752,4.806137436790054,0.14699300825115547
21.30914,4.841474506233387,0.14631935920098507
21.31152,4.877882510863358,0.1456185685213216
21.313916,4.910473305455599,0.1449518329826001
21.316304,4.9368254803831135,0.14441110635858062
21.318684,4.964528129750986,0.14382973639274915
21.32108,4.995583354305634,0.14315342605341205
21.323464,5.030410462927638,0.14235842378756428
21.32586,5.065284793377886,0.1415162163867724
21.328264,5.101417050469876,0.14060100590395508
21.330648,5.12888927827014,0.13987808297504226
21.333028,5.155011031630045,0.13920718950627226
21.335424,5.182203720176589,0.13850957655030735
21.337812,5.20595128573774,0.13785025832880218
21.340192,5.220666734954829,0.13733893195039504
21.342596,5.22765332043997,0.1369826786898018
21.34498,5.2395752729777225,0.1365246240366985
21.347364,5.256572362194948,0.1359621831628584
21.34976,5.26984478917306,0.13545595203716138
21.352144,5.282465589845116,0.13493848817335316
21.354524,5.289267079733023,0.13448263965930127
21.356928,5.288759014769563,0.13414885117293399
21.359316,5.287459553873186,0.13382159288858445
21.361692,5.288953589656144,0.13344740437450153
21.364088,5.287654128759766,0.1331194173168366
21.366476,5.281419300810777,0.13289241575312583
21.368856,5.273973768048288,0.13270197189852048
21.371252,5.261964955285525,0.13263389817329116
21.37364,5.243530531402931,0.1327207963435398
21.376032,5.217087704534671,0.1329700916337494
21.378428,5.19106418654699,0.13318930913808957
21.380812,5.166251373372809,0.1333703166713249
21.383192,5.142509495385266,0.13352215677979323
21.385596,5.122492279636836,0.1336143712006814
21.387984,5.108062057247076,0.1336141954243631
21.39036,5.095913474857452,0.13355240292558
21.392756,5.078969295042078,0.13357810289428013
21.39514,5.056810208920371,0.13371762530795198
21.39752,5.045033713583085,0.13367889838429603
21.399916,5.037773276417832,0.13357500754338056
21.402304,5.035680523730667,0.13341072399766973
21.404684,5.034099627722701,0.13326081102142254
21.40708,5.030376861341456,0.1331620239598344
21.409468,5.02064779272096,0.13318739457612544
21.411848,5.014643386339579,0.1331506406189279
21.414244,5.007707814398419,0.133130377267568
21.416632,4.996768040964426,0.13319571469783562
21.419008,4.98769059864999,0.13322901846488885
21.421424,4.988204351187056,0.1330810728342657
21.423808,4.99030089558996,0.13292007447051285
21.426188,4.9926297574183405,0.13279614540843543
21.4286,4.994679079993001,0.1326943877761771
21.430988,4.994306992940663,0.13266786140170034
21.433368,4.995238158500442,0.1326517965093342
21.435768,4.990954417753889,0.1327589189502024
21.438156,4.983178332193699,0.1329694473130281
21.44054,4.982339714432537,0.13303351892575443
21.442936,4.980569931111598,0.1331143696448708
21.445324,4.973073384805128,0.1332997847773474
21.447704,4.961991945886404,0.1335379645181528
21.450108,4.948117010288345,0.13382288488398136
21.452496,4.93931721136976,0.1339960763435735
21.454876,4.934381844317148,0.1340956512855203
21.45728,4.938386045809981,0.13401227995274417
21.459668,4.942390247302815,0.1339296756339461
21.462048,4.952121211781181,0.13374421515014448
21.464444,4.963994046632821,0.13350378287652845
21.466828,4.97707758629796,0.13323007148445945
21.469208,4.986576233350847,0.133012628379782
21.471612,5.000079081896567,0.13271442930873145
21.474,5.014280778576589,0.1323651680247727
21.476384,5.024757813017496,0.13207435080278687
21.478776,5.036166013018182,0.13176685937309895
21.481164,5.046131190779892,0.13146020053393667
21.483548,5.062382210034574,0.13101138984517913
21.485944,5.084639531528506,0.1304398465759992
21.488332,5.1018217163429656,0.12998086534884198
21.490712,5.122728563396538,0.1294619936028632
21.493108,5.14349564082325,0.1289539305817527
21.495496,5.167195984556159,0.12839085640116585
21.497892,5.192107033102565,0.12779177766265432
21.500288,5.214876211275694,0.12725102474172365
21.502672,5.232989561649934,0.126783350309857
21.505052,5.245376149038643,0.12641957482973093
21.507456,5.254969239748016,0.12609846291847623
21.509844,5.265121408964829,0.12574438066421662
21.512228,5.280348714861114,0.12529670482018607
21.514632,5.293573920010983,0.12488933767878413
21.517016,5.30773029072063,0.12447321301804158
21.519396,5.322957596616917,0.12404095262951542
21.5218,5.338836528819261,0.1236174759494089
21.524188,5.360581993633995,0.12309863639489804
21.526568,5.384888637702588,0.12251135354660052
21.52896,5.411197382517596,0.1218942834314962
21.531348,5.4347126306532685,0.12132290129215172
21.533728,5.455993460617048,0.12075860318740707
21.536132,5.480487096140742,0.12013352530545687
21.538516,5.50446887498524,0.11949928350592369
21.5409,5.531523689762794,0.11881751442481
21.543296,5.560720374913624,0.11810515936587394
21.54568,5.592850326370649,0.11735843831910944
21.548064,5.624328651521616,0.1166083941025084
21.55046,5.6626046748447525,0.11576702538761742
21.552848,5.700601158914168,0.11494081538642081
21.555228,5.742462074849557,0.11406331291744665
21.557632,5.781761811531089,0.11326502983585741
21.56002,5.814775706719649,0.11258168986948361
21.5624,5.846578897094711,0.11192492191465794
21.564796,5.875309051536717,0.11132064743828787
21.567184,5.901245709299387,0.11075470371070538
21.569564,5.92732213668892,0.11018446426078204
21.57196,5.951396463332033,0.10965015540460386
21.574348,5.971978445161512,0.10919127972170009
21.576728,5.991629261431211,0.10874716347681561
21.57912,6.014445661432585,0.10830219025499845
21.581504,6.036004134792216,0.10793277700375223
21.583884,6.054861659271128,0.10763447566337132
21.5863,6.073951501175519,0.10737054158301167
21.588684,6.08703504084066,0.10718897148792293
21.591064,6.097417631625082,0.10707765263416091
21.593468,6.1041681079690076,0.10704402348344083
21.595852,6.112501376178768,0.10700868843814079
21.598232,6.11920463069445,0.10702367906415551
21.600636,6.128561612262608,0.10701970144972892
21.60302,6.1395013856966,0.10701500334551894
21.6054,6.149370223943955,0.10702699330838666
21.607804,6.162963724430424,0.10700349658731757
21.610188,6.17762816010353,0.1069628279524312
21.612568,6.1960172580157495,0.10688747538146476
21.614968,6.211845176674112,0.10686845139837706
21.617356,6.227393556078754,0.10686610397451723
21.619736,6.240800065110118,0.10689708519299145
21.62214,6.259002171567234,0.10687687885906953
21.624528,6.274643098770494,0.10691314803038375
21.626908,6.286047507055442,0.10696988767647067
21.629312,6.29908192903447,0.10697867251313449
21.6317,6.312815199147798,0.10694828919488762
21.63408,6.326316151835648,0.10688857002686247
21.636484,6.343961075643193,0.10677062900556712
21.638868,6.359231811651984,0.10665462808453918
21.641248,6.3752013957950755,0.10649939012987028
21.643652,6.390519353632109,0.10633901963140063
21.64604,6.402811497364332,0.10617518328986766
21.64842,6.415662719603993,0.10598265668454865
21.650824,6.422135552552067,0.1058415593785206
21.653212,6.427025593634307,0.10570131705665124
21.655592,6.42954144691779,0.10556352178667057
21.657988,6.433407774641632,0.10539495321028436
21.660372,6.431826878633665,0.10526848498481604
21.662752,6.432946931506417,0.10507911675320096
21.665156,6.431553026953552,0.10489920528221912
21.667544,6.431509596841049,0.10468772890897468
21.669924,6.425507086317537,0.10450393670617639
21.672324,6.4224850639284625,0.10424253241740744
21.674708,6.4241188693382805,0.10394170576906192
21.677088,6.4243096525091214,0.10363468260417578
21.679484,6.424500435679963,0.10332793532901398
21.681868,6.422828887731248,0.1030374314055495
21.684248,6.419295008662977,0.1027628266761788
21.686652,6.420044870341259,0.10242716240257424
21.68904,6.420003336086625,0.10209166261921314
21.69142,6.418379009966152,0.10175698334170775
21.693824,6.416614914218821,0.10142913345233713
21.696212,6.412197091419014,0.10111726779815709
21.698592,6.410712534925404,0.10077405532861834
21.701,6.412440783991707,0.10038560596685892
21.703384,6.417381838617927,0.09995382890933789
21.705764,6.42153149731123,0.0995236973215718
21.708168,6.4278230263778084,0.09906182804918173
21.710556,6.435976886563944,0.09858794766337206
21.712936,6.449205883429552,0.09805828194798312
21.71534,6.460572549175603,0.09754217807895622
21.717724,6.473522006787489,0.09702453717955394
21.720104,6.485400529212737,0.09652453056526687
21.722508,6.486896460853564,0.09610760102074625
21.724896,6.4911858891737255,0.09567138717785405
21.727276,6.493612986374331,0.09524821975911502
21.729672,6.491896112455241,0.09487181600448608
21.73206,6.4872459722299585,0.09452156992205389
21.734444,6.475239055325066,0.09426445896712635
21.73684,6.4650944695397285,0.0939928781614677
21.739224,6.454390805246951,0.09375048108534746
21.741604,6.441545270580896,0.09353612489308519
21.744012,6.428000887780541,0.09335890287326029
21.746396,6.413665109047266,0.0931803864081695
21.748776,6.395836985500357,0.09306009564243471
21.75118,6.374656286766671,0.09298943647890805
21.753568,6.352776739898684,0.09295567849667837
21.755948,6.333271380829451,0.09292309437365319
21.758352,6.309622050640526,0.092939345736817
21.76074,6.279127800451188,0.09306332423556832
21.76312,6.25450008287424,0.09312917545370795
21.765516,6.232386322722906,0.09318913098462538
21.767904,6.208363009623773,0.09330778840309512
21.770284,6.193651352122424,0.09336097860154408
21.772688,6.1743764146208004,0.09348511472857848
21.775076,6.1565444993581515,0.09361892012043738
21.777456,6.14616190857373,0.09369995591989563
21.779852,6.14630167820059,0.09369249911697893
21.78224,6.158034743425371,0.093584476627528
21.78462,6.167346399023154,0.09351948396035355
21.787024,6.1785203857404944,0.09344148535673248
21.789408,6.197563005816639,0.0932907237632952
21.791788,6.219678661825842,0.09310632236868169
21.794184,6.2441685056338,0.09292626708754748
21.796572,6.273873255748089,0.09268622892110154
21.798952,6.30823383366127,0.09241748903904856
21.801348,6.341151389335475,0.09213834749901284
21.803736,6.371694757210926,0.09185805369403258
21.806116,6.408384196952488,0.09151457651348137
21.808516,6.449776686321184,0.09109265053483412
21.810904,6.485954269383547,0.09073582027743655
21.813284,6.521619995766713,0.09036737214934809
21.815684,6.559846901403736,0.08995017338757962
21.818068,6.5944889144285055,0.08955322879641302
21.820452,6.628479301147219,0.08914245730531414
21.822848,6.667032967866206,0.08866995982803613
21.825236,6.705214547532854,0.08818199757226507
21.827616,6.731663061974724,0.08779514914453626
21.830012,6.747589216005311,0.08748808296239557
21.8324,6.767938880409313,0.08712531981175302
21.83478,6.786985292201197,0.08674690083648566
21.837184,6.800444710634414,0.08640558382597417
21.839568,6.809527840522458,0.08607772727988815
21.841948,6.8180991137313045,0.08573660703880961
21.844352,6.824808055820594,0.0854089920966842
21.846736,6.8272804789915735,0.08508874784095716
21.849112,6.833617334028526,0.08474196269464765
21.85152,6.84474978649123,0.08436619026152065
21.853904,6.8490845407817655,0.08403963122484401
21.856288,6.8524881295125235,0.08371899120835938
21.858692,6.855240091937223,0.08338860727594287
21.861076,6.855058788055727,0.08307923251925176
21.863456,6.854225857868173,0.08276202733959627
21.865852,6.855395028427036,0.08242916079500535
21.86824,6.8639209756655095,0.08202541298764003
21.87062,6.866580390291594,0.0816642236040444
21.873024,6.8670979345443985,0.08132649636383509
21.875412,6.877905521783009,0.08089988470715555
21.877792,6.893788245701091,0.08043036968049115
21.880188,6.904456063312841,0.08001032504675709
21.882572,6.916706672790428,0.07959589853881421
21.884952,6.930540074133851,0.07918682669121385
21.887356,6.946887432902887,0.078777082298181
21.889744,6.961092921298648,0.07838969180438483
21.892124,6.97315653932113,0.07802444471802032
21.894528,6.985732014022811,0.07767496744526833
21.896912,6.998167719097632,0.07733502600857856
21.899292,7.0064594530527575,0.07703295316408411
21.901696,7.021129576299471,0.0767109213170281
21.904084,7.03845342659866,0.07638627484966193
21.906464,7.059501939136962,0.07604736745688438
21.90886,7.083064409100879,0.07570975625417813
21.911248,7.108069901303772,0.07538616486471197
21.913628,7.130514214252807,0.07510182893037122
21.916032,7.1491866431344855,0.07487575375597982
21.918416,7.168231159068502,0.07467040223065265
21.920796,7.18499403500238,0.07449062649332969
21.9232,7.195191530189568,0.07437786964298052
21.925588,7.206971817242592,0.0742717986011442
21.927968,7.2208939746688925,0.07414625876215448
21.930364,7.232674261721918,0.0740402883234787
21.932752,7.243523383215164,0.07393816818656924
21.935128,7.254372504708409,0.07383627365795241
21.937532,7.269225827694487,0.07370949890167136
21.93992,7.284870546613485,0.07358545588120137
21.942304,7.299164791092124,0.0734829023008055
21.944696,7.310525769264567,0.07339711131636399
21.947084,7.319884646690592,0.07332394645055201
21.949468,7.3235167611310885,0.07327714214700631
21.951864,7.323284443705613,0.07324978745402053
21.954252,7.3238435222130525,0.07322548964865033
21.956632,7.3256133055339925,0.0731860643810331
21.959028,7.324589592175597,0.0731561346580249
21.961416,7.3259872884442,0.07309581413733572
21.963812,7.325941962473827,0.07302367360795435
21.966208,7.325105240570534,0.07294834326767219
21.968596,7.328831798667516,0.072824265915228
21.970976,7.334839996764637,0.07267587281702537
21.97338,7.335400971129945,0.07254021828566914
21.975768,7.336753341428174,0.07240779574385223
21.978148,7.342389452472956,0.07223982961429005
21.980544,7.348165333144598,0.07206610464208711
21.982932,7.355803544935797,0.07188710853835902
21.985316,7.36036872079394,0.0717298383711181
21.987712,7.366284371092444,0.07155234013327164
21.990096,7.3778342365778595,0.07132041128381024
21.99248,7.3921775987426095,0.07108065047865995
21.994876,7.40773166572086,0.0708255211125656
21.99726,7.4264985382590245,0.07054439455418701
21.99964,7.447407281170466,0.07024671945397876
22.002044,7.463939735536738,0.0699523046634379
22.004432,7.475816362104117,0.06967174641465598
22.006812,7.488903693484995,0.06937694452219999
22.009216,7.503481268933093,0.06905868569702642
22.0116,7.5191297795678285,0.068732438305134
22.01398,7.540272735762618,0.0683602188793496
22.016376,7.560065217517047,0.06801099223586138
22.018764,7.5789265337117,0.06766553785271152
22.021148,7.601512512145464,0.06731033233633338
22.023544,7.624797338713528,0.06692909307570832
22.025932,7.6420758630423435,0.06658007753785822
22.028312,7.658562991438241,0.0662280958811072
22.030716,7.67481780240866,0.06585262545635649
22.033104,7.688698425580326,0.0654660228729191
22.035484,7.699925321699516,0.06508081969165104
22.037888,7.704494289273399,0.06471750259440773
22.040272,7.702545097928834,0.06436730126836859
22.042652,7.700735676211127,0.064010820625725
22.04506,7.699205793747143,0.06364431670677409
22.047444,7.6938114794171835,0.06329051183448726
22.049824,7.690279496206781,0.06293226078626965
22.052224,7.69261404560877,0.06255192572166134
22.054608,7.69401742945098,0.06217344568496722
22.056992,7.690857533292914,0.06183622561201951
22.059388,7.690770673067905,0.06148428697162219
22.061776,7.688541942469619,0.06114895799999412
22.064156,7.6844508807517755,0.060816948588903325
22.066552,7.678777027168097,0.060476340963970567
22.06894,7.6715203817185795,0.06012779933640158
