Time,Force,Position
20.62478,0.08130842363304495,0.0
20.627164,0.0751816119102618,0.0
20.629544000000003,0.06798386500084015,0.0
20.63194,0.05743354290464268,0.0
20.634328,0.04860578230114164,0.0
20.636708,0.04070918725741892,0.0
20.639108,0.0329523618405564,0.0
20.641496,0.024264370863915568,0.0
20.643876,0.017578480633691593,0.0
20.64628,0.01196352559010614,0.0
20.648664,0.008630210546657961,0.0
20.651044,0.007438765876486843,0.0
20.653448,0.006387090833175937,0.0
20.655836,0.0013312142970313273,0.0
20.658216,0.0,0.0
20.66062,0.0,0.0
20.663008,0.0,0.0
20.665388,0.0,0.0
20.66778,0.0,0.0
20.670168,0.0,0.0
20.672548,0.00016773131177573672,0.0
20.674948,0.0001677313117757367,0.0
20.677336,0.0001677313117757367,0.0
20.679716,0.00016773131177573672,0.0
20.682108,0.00016773131177573672,0.0
20.684496000000003,0.00016773131177573672,0.0
20.686876,0.00016773131177573672,0.0
20.68928,0.00016773131177573672,0.0
20.691668,0.00016773131177573672,0.0
20.694052,0.00016773131177573672,0.0
20.696444,0.00016773131177573672,0.0
20.698832,0.00016773131177573672,0.0
20.701212,0.00016773131177573672,0.0
20.703608000000003,0.00016773131177573672,0.0
20.705996,0.00016773131177573672,0.0
20.708376,0.00016773131177573675,0.0
20.710776000000003,0.00016773131177573675,0.0
20.71316,0.00016773131177573675,0.0
20.71554,0.0008473193027491639,0.0
20.717936,0.0025978424803611215,0.0
20.720324,0.006182735092614193,0.0
20.722704,0.010866524576421321,0.0
20.72512,0.01741264517978509,0.0
20.727508,0.02703180171620424,0.0
20.729888000000003,0.03786166306612214,0.0
20.732284,0.048831294042900236,0.0
20.734672,0.059800925019678354,0.0
20.737048,0.07198126080995519,0.0
20.739448,0.08402182697337182,0.0
20.741832,0.09564308425620782,0.0
20.744232,0.10926644228546067,0.0
20.746636,0.11995653400851836,0.0
20.74902,0.13064662573157604,0.0
20.751404,0.13905507745449644,0.0
20.7538,0.1462528243639181,0.0
20.756184,0.15037753534028442,0.0
20.758564,0.15357108075687237,0.0
20.760968,0.1589064965467374,0.0
20.763356,0.1626311587858507,0.0
20.765736,0.16621605139810375,0.0
20.768132,0.16258393695760753,0.0
20.77052,0.15937113139769196,0.0
20.7729,0.1575088002781353,0.0
20.775296,0.15350459878530157,0.0
20.777688,0.1470789876654704,0.0
20.780068,0.14065337654563922,0.0
20.782464,0.13422776542580805,0.0
20.784848,0.12831401098517456,0.0
20.787232,0.1196067598652061,0.0
20.789628,0.11252952243931702,0.0
20.792016,0.10317064501329065,0.0
20.794396,0.09553432907996072,0.0
20.796792,0.08990011389304765,0.0
20.799176000000003,0.08668730833313207,0.0
20.801572,0.08468520758671523,0.0
20.803968,0.08761847389291039,0.0
20.806356,0.09348500650530074,0.0
20.808736,0.09706989911755379,0.0
20.811132,0.10251712284936353,0.0
20.81352,0.10396014508833956,0.0
20.8159,0.11275994400692507,0.0
20.818304,0.12100066441806975,0.0
20.820692,0.12388670889602177,0.0
20.823072,0.12505019188127733,0.0
20.825476,0.12742437968003167,0.0
20.827864,0.13152112897148244,0.0
20.830244,0.13654904382271152,0.0
20.83264,0.13585019568841045,0.0
20.835028,0.13729321792738647,0.0
20.837408,0.13938786647242038,0.0
20.839804,0.1449748598310903,0.0
20.842192,0.15098116207034085,0.0
20.844572,0.15284349318989748,0.0
20.846968,0.1574993209887891,0.0
20.849356,0.16015304804126385,0.0
20.851748,0.16001327841440363,0.0
20.854148,0.15694024248134827,0.0
20.856532,0.15093394024209772,0.0
20.858912,0.14492763800284716,0.0
20.861316,0.1427857676295701,0.0
20.863704,0.1408762146817703,0.0
20.866084,0.13798827434594904,0.0
20.86848,0.13714776072691853,0.0
20.870868,0.14161280535496829,0.0
20.873248,0.1534780567751322,0.0
20.875648,0.17055442278589011,0.0
20.878036,0.19828912711905167,0.0
20.880416,0.24911408313369862,0.008900504234651364
20.88282,0.3182336934040792,0.017035262801620973
20.885208,0.3920997834140991,0.025359178547906935
20.887588,0.47015327465631773,0.03381200763519423
20.889984,0.5604951179150193,0.04220194804521492
20.892372,0.6648478746829003,0.05059564313993271
20.894752,0.7793471130939873,0.058901091911798965
20.897156000000003,0.9089754220291355,0.06702901826791885
20.899548000000003,1.0521500096225085,0.07498855677607086
20.901928,1.2048666743812728,0.08296830595993251
20.904324000000003,1.3744349711567947,0.09083396028492279
20.906712,1.555080915135301,0.09872038784179224
20.909092,1.749086146316929,0.1065450955688394
20.911488,1.9499797276114732,0.11439346865970915
20.913876,2.1625119304743117,0.12212502136983427
20.916256,2.383704162628876,0.12976374382181516
20.918660000000003,2.6075047958655406,0.13732191925191883
20.921048,2.8306556986540166,0.14477829792386784
20.923428,3.049014795732479,0.1521622691996487
20.925832,3.2554595237046655,0.15946064946659239
20.928216,3.4334139980918,0.1580028431138098
20.930596,3.5904200911707274,0.15736834654865903
20.932992,3.742912021935491,0.1565426844412009
20.93538,3.891029560012953,0.15556602267039163
20.93776,4.032445739432602,0.15454263785722847
20.94016,4.160457305678755,0.15347050790445702
20.942548,4.270640748378,0.15253401788476992
20.944928,4.3664865164861,0.15181836381296632
20.947324,4.450461345600429,0.15132501185465472
20.949712,4.531504804266432,0.1507425374098619
20.952092,4.597047105356037,0.1503017498968356
20.954492,4.646903153272008,0.1498580202218349
20.956876,4.678139681708152,0.14950294926837354
20.95926,4.699322276299707,0.14913281123005223
20.961656,4.705141587083855,0.14904035920318046
20.96404,4.705560895964435,0.14900388259597064
20.96644,4.699137180702475,0.1490237096070977
20.968832,4.6840081101784135,0.149135904950823
20.97122,4.668227413348293,0.1492388266191338
20.973604,4.652212503234828,0.14947573111761148
20.976,4.646485740249298,0.14961103567697354
20.978388,4.642574086555081,0.14977099454283146
20.980768,4.635124762076854,0.1499394428501812
20.983168,4.620552874202366,0.15019052744443132
20.985556000000003,4.596948869983813,0.15062693535146754
20.987936,4.575252522855191,0.15113666465235917
20.990332,4.563751775055888,0.1514754663011767
20.99272,4.554812206510442,0.1517116708922679
20.9951,4.543964980875065,0.1518755461594127
20.9975,4.52320169516409,0.15218155267999445
20.999888,4.5029502661323155,0.15250823215678935
21.002268,4.488610695683303,0.15279987011143348
21.004668,4.484047415683029,0.15295701163280223
21.007056,4.481206697175451,0.15308403490522193
21.009436,4.4819055453097505,0.1530225754642067
21.011836,4.476645313033044,0.15306283158487416
21.014224,4.470686232622037,0.15316474526204632
21.016604,4.466914348554681,0.15331643095454778
21.019,4.4613726811663845,0.15356231271149579
21.021384,4.456018005233191,0.15373196521727225
21.023784,4.452480334449181,0.1537407350059879
21.02618,4.449501742172612,0.15370121612193385
21.028568,4.450200590306912,0.15363977250072444
21.030948,4.45629944034478,0.15352388401110575
21.033344,4.4683573707936555,0.1533020300275839
21.035732,4.480322753443914,0.15302772578286902
21.038112,4.483767876429306,0.1529650052869145
21.040516,4.485163676840039,0.153023071849523
21.042904,4.4882348169152255,0.1531146421990429
21.045284,4.499267138147837,0.15304678811084677
21.04768,4.514862739380722,0.15282039622963875
21.050068,4.5278518353893755,0.15258431403195377
21.052452,4.533671146173522,0.15249688351705515
21.054844000000003,4.538559291397891,0.1524309729721429
21.057232,4.54754418591371,0.1523111429452707
21.059616,4.560673051549223,0.15207156567329427
21.06202,4.576642635692316,0.15170952922439235
21.064408,4.594661542410067,0.15123510262780712
21.066792,4.616544880993793,0.15067435233628065
21.069188,4.639172393682193,0.15016755760690584
21.071576,4.658167791930096,0.14979724041934767
21.073956000000003,4.677862038312302,0.1493668035114702
21.076352,4.696020714656913,0.14889629406685112
21.07874,4.715157778389546,0.14835101310518164
21.08112,4.736576482122317,0.1477451190940072
21.08352,4.758786581788006,0.1471357559023645
21.085908,4.78555996145397,0.14637928915752954
21.088288,4.8148019725751725,0.1454820686341583
21.090684,4.846744932577095,0.14449113239151443
21.093076,4.872961129593486,0.14362823142581754
21.095456,4.89675591698288,0.14285976364890127
21.097852,4.922924892171029,0.14207663901585185
21.100244,4.949093867359178,0.1412836667492532
21.102624,4.976473547360825,0.1404545173438522
21.105032,5.001199500309998,0.139681240801792
21.107416,5.027648014751867,0.13889713688587843
21.1098,5.054887925126654,0.13812401136404137
21.112204,5.078403173262328,0.137422373256516
21.114588,5.096750736919912,0.13679397857132145
21.116972,5.117287392779016,0.13606099733115146
21.119368,5.139686379757677,0.13529549166091978
21.121756,5.166321885654649,0.1344906809067646
21.124136,5.192118773790462,0.13375101321961144
21.126536,5.215634021926135,0.13308001195336736
21.12892,5.2352848381958355,0.13249025076575993
21.131304,5.257217294465673,0.13184936396075778
21.1337,5.27751973704143,0.13127699967233505
21.136088,5.298845892975584,0.130744278432133
21.138468,5.315096912230266,0.13031649940521947
21.140864,5.33656283779128,0.12977963287553435
21.143252,5.35416433148632,0.12930701313509516
21.145636,5.3668304581287485,0.12892540293300314
21.148032,5.38350078626401,0.12846685926347162
21.150424,5.400822740705329,0.1280182305263111
21.152804,5.414280263280676,0.12763479314441112
21.155204,5.422662649176549,0.12735344126146214
21.157592,5.424339884698872,0.12723577433355615
21.159972,5.431184804699283,0.12706334656275245
21.162368,5.438262042125173,0.12692443486794155
21.164756,5.441567395483705,0.1268972391634342
21.16714,5.444872748842238,0.12687031144947764
21.169536,5.444313670334798,0.12690887878608748
21.171924,5.443754591827356,0.1269474860745273
21.174308,5.443055743693055,0.12699577021322012
21.176704,5.439004320371979,0.12712551434575797
21.179092,5.433322883356823,0.1273151370661231
21.181472,5.4307144822747215,0.12744337920188323
21.183872,5.422239548580232,0.1276729088854351
21.18626,5.416418341938217,0.12787162986140116
21.18864,5.405102689736146,0.12819577456570908
21.19104,5.399513800519608,0.12842832157909972
21.193428,5.4005828398483775,0.12855520483298855
21.195808,5.401372339923426,0.12870024062530097
21.198208,5.400299508878917,0.1288715386240447
21.200596,5.406955541566356,0.12891749848656756
21.20298,5.419338337239326,0.1288751900828556
21.205376,5.438286513658986,0.12868719378417928
21.207764,5.4513681574662565,0.12859782530634667
21.210144,5.466591671646804,0.1284628276048467
21.212548,5.484888221760407,0.12826947216315646
21.214932,5.502113836687371,0.1280990552226944
21.217312,5.520270617174114,0.12791616981959497
21.219704,5.5394983328474945,0.12771122951389113
21.222088,5.561007688521014,0.1274543714657822
21.224484,5.591736151993698,0.12702842625096228
21.22688,5.616598082853992,0.12669448057057373
21.229268,5.6395976825947285,0.1263917787824163
21.231648,5.668883123828437,0.1259662864085852
21.234052,5.699519039502505,0.1255052762309499
21.236436,5.733787069617069,0.12494934311245434
21.238816,5.766472307865796,0.12440859641131374
21.24122,5.797714523875547,0.1238770608753361
21.243604,5.828165343952381,0.12335397428032206
21.245984,5.859826868842712,0.12280367241952063
21.248388,5.884830465187736,0.12235217213156901
21.250772,5.90438683780095,0.12196570731641812
21.253152,5.919427152242132,0.12163177784061509
21.255548,5.9390307466835885,0.12119970507513214
21.257932,5.959193419632487,0.12073670185918736
21.260328,5.974979804036214,0.12031360240409651
21.262724,5.993327367693799,0.11982758726205066
21.265108,6.013165175418603,0.11930096789762784
21.267488,6.033701831277708,0.11873623587414162
21.269892,6.052795464897837,0.11817343008698797
21.272276,6.064439774039739,0.11770309334233697
21.274656,6.082929003182053,0.1170922672624769
21.27706,6.098624735645032,0.11651305183070396
21.279448,6.109385101055398,0.11600601169083455
21.281828,6.115489638666875,0.11555173783073551
21.28422,6.120663010718572,0.1151097994242306
21.286608,6.121971950904295,0.1147168176597417
21.288988,6.1203476247838235,0.11436418430329563
21.29138,6.1139277012376,0.11407025454715485
21.293768,6.105785216198679,0.11378850534701537
21.296164,6.099924371159895,0.11346041585779935
21.298568,6.096205396494391,0.11309425743255483
21.300956,6.091275717015387,0.11275287593945166
21.303336,6.08127090085691,0.11248795614975687
21.30574,6.06712211357874,0.11228866551469369
21.308128,6.057768923726321,0.11202875312473111
21.310504,6.044411532381068,0.11182591077868166
21.3129,6.027049939542983,0.11167932436070509
21.315284,6.00740670670476,0.11157625995607272
21.317664,5.984271129052901,0.11154429929683726
21.320068,5.958062515467987,0.11156095024997091
21.322456000000003,5.927290621882797,0.1116664144279623
21.324836,5.8958671019915485,0.11176670790218914
21.327232,5.866445682846718,0.1118379814133398
21.329616,5.839817760381224,0.11187858103522932
21.331996,5.809977032355812,0.11197628451880363
21.3344,5.786142606569652,0.1119846223328152
21.336788,5.761237245596854,0.11201206339637496
21.339168,5.743409122049945,0.11193253790682052
21.341572,5.725161689622455,0.11187848245388518
21.343956,5.7082175098070795,0.11183697448598974
21.34634,5.690993790737984,0.11181159968622811
21.348736,5.679357065027559,0.11172570414877406
21.35112,5.670374066369608,0.11161818236324451
21.3535,5.666978061070327,0.11145016262326257
21.355904,5.660509019837992,0.11132923549560192
21.358292,5.656553936031271,0.11119532347849363
21.360668,5.653902104836667,0.11107537959384157
21.363064,5.653624461440816,0.11095132643201219
21.365448,5.657071480284077,0.11078674071641334
21.367844,5.667828053978706,0.11054946931198678
21.370240000000003,5.682309289912447,0.1102717741998036
21.372628,5.703029145510916,0.10994292997236008
21.375004,5.726542497788721,0.10958863162884727
21.377412,5.7507074763725825,0.109243361305807
21.379796,5.781390613874894,0.10883038451650208
21.382176,5.808581406563569,0.10849378758768298
21.384572,5.840567796677996,0.10810318240915698
21.386956,5.870132777165426,0.10777148447917224
21.38934,5.903841728772549,0.10738106777509258
21.391736,5.934617414073476,0.10702743701654467
21.39412,5.966324264934182,0.1066666189840965
21.3965,5.996168784675332,0.10632920350581032
21.398896,6.027875635536038,0.10597566026219485
21.40128,6.060793191210241,0.10560626747464047
21.403664,6.097435409123559,0.10520508875040178
21.40606,6.136079727783294,0.10478377259900731
21.408444,6.178216391256664,0.10430128637341061
21.410824,6.219561658797117,0.10382266174722048
21.413220000000003,6.262909027083986,0.10332515653456277
21.415608,6.303742437945242,0.10284215469473473
21.417988,6.34271351768694,0.10237808867086788
21.4204,6.37460736000275,0.1020023795962641
21.422788,6.402636770452587,0.10167002582648259
21.425164,6.43294782090256,0.10130348162957434
21.42758,6.460233057247721,0.10093609217364673
21.429964,6.489008537660101,0.10053245559323278
21.432356,6.513919586206508,0.10017006946977469
21.434752,6.540181109193274,0.09978130289162686
21.43714,6.563369596246983,0.09943375063427606
21.43952,6.588188096994772,0.09904199619160454
21.441924,6.613146367369422,0.09864564064836917
21.444308,6.636382076251376,0.09825762130180227
21.446688,6.66045640289449,0.09783107874483861
21.449092,6.677733031365436,0.09747086889394256
21.45148,6.691564536850989,0.09712652247177406
21.45386,6.699948818604733,0.09681718431462981
21.456256,6.704328898865643,0.09655120079455011
21.458644,6.704472460208241,0.09629690178315933
21.461024,6.704243934498503,0.09602288038792141
21.463428,6.703875639161903,0.09575614370453579
21.465816,6.702995487146107,0.0954744603270787
21.468196,6.707097924011165,0.09510137051228644
21.4706,6.7114799001299446,0.09471334694552214
21.472988,6.712928609942528,0.09435437738265356
21.475368,6.712607536434172,0.09404433027750868
21.477772,6.706280160686565,0.09379329112619504
21.480156,6.700883950498737,0.09353541344177548
21.482536,6.6905523732582965,0.09332393735009549
21.48494,6.677427299338522,0.09313130014285126
21.487328,6.665745247657722,0.09294697737265331
21.489708,6.652061095230507,0.09278230388758145
21.492112,6.6393081083630685,0.092610715278101
21.4945,6.621060675935579,0.09251268493689226
21.49688,6.604675574627644,0.09240171209783463
21.499276,6.590013034812407,0.09228448753105664
21.501664,6.578143991676504,0.09214769505333616
21.504044,6.565483552607684,0.09200951303457611
21.50644,6.557339171710895,0.09184609774757403
21.508828,6.5426294100674145,0.09177075834778113
21.511208,6.527779878797073,0.09170248994173401
21.513604,6.515863613832927,0.09160727031820913
21.515992,6.503388270361342,0.09153976438520982
21.518372,6.492355949128733,0.0914811426827159
21.520776,6.481463397522983,0.09141487544779493
21.523164,6.470058989238034,0.09133314389151749
21.525544,6.466523214311893,0.09118121617835627
21.52794,6.462056273825975,0.09103513536163613
21.530328,6.460382830019391,0.09087029998392483
21.532708,6.465646854011836,0.09064227504198542
21.535112,6.467325985392027,0.09043128976751826
21.537496,6.471146987145496,0.09019443311095883
21.539876,6.4766905503916625,0.08995398951887584
21.54228,6.4868899414367185,0.08968376608944019
21.544668,6.496949562854915,0.08941990068816073
21.547048,6.505938249086474,0.08916997153362366
21.549452,6.51464739606431,0.08893457542236767
21.55184,6.524008169348206,0.08870666252268725
21.55422,6.5343001081918795,0.08847480993289758
21.556624,6.549806953341886,0.08818408232041948
21.559012000000003,6.567595438492029,0.0878623180933566
21.561392,6.584964614761592,0.08756541560567092
21.563788,6.601914482150575,0.08729094966594907
21.566172,6.6182127232335,0.08700903466024763
21.568552,6.631949785062568,0.08677252504178785
21.570956,6.654346876183361,0.08647660147438037
21.57334,6.674322557677155,0.08622195442406402
21.575724,6.697371275104006,0.08593918956650859
21.578124000000003,6.722422093277272,0.08564110289331825
21.580512,6.742258005144206,0.08539908885924205
21.582896,6.765818579250253,0.08513762870672771
21.585288,6.786957743729303,0.08491409683305198
21.587676,6.807305512275436,0.08469097873100634
21.59006,6.822066287462898,0.08449716277230317
21.592456,6.837246371530941,0.08428281652153696
21.594844,6.856430657091817,0.08403764813415307
21.597224,6.878827748212608,0.08375989662999717
21.59962,6.904297875266456,0.08345531975248781
21.602008,6.926694966387248,0.08317972905263417
21.604388,6.950302762321539,0.08288938257617869
21.606784,6.970837522322774,0.08262789792780854
21.609172,6.98457458415184,0.08241101261491098
21.611552,6.997939558928569,0.08217308917113501
21.613948,7.011164764078437,0.08194229004055653
21.61634,7.023598573295388,0.08170701513156751
21.61872,7.025230482847338,0.0815509919207843
21.621124,7.0264903053469485,0.08137349314943665
21.623508,7.025748027100143,0.08121232531647513
21.625888,7.022072482547142,0.08107141827087978
21.628292,7.019607642807641,0.08091276610004189
21.630676,7.013138601575306,0.08078501410961121
21.633056,7.0080200347833275,0.08063299253752357
21.63546,7.0010391368717935,0.08048972301050615
21.637848,7.001135476386151,0.08028929936293241
21.640228,7.005887643699396,0.0800684381464878
21.64262,7.002771177653837,0.07990144641132758
21.645008,6.994719344555665,0.07976868568203424
21.647388,6.984944949964795,0.07963779602759269
21.64978,6.977312425747205,0.07948566488285917
21.652168,6.966327326342839,0.0793714150080506
21.654548,6.958555032498387,0.0792256343905708
21.65696,6.96093301201288,0.07900154564694373
21.659348,6.964102387460292,0.07878051681236911
21.661728,6.967411532534563,0.07855335286073745
21.664132,6.979008619848222,0.07825832607336942
21.66652,6.997403405334048,0.07792349556163583
21.668896,7.013656320446598,0.07760888382996947
21.671304,7.02976946593229,0.07730122624210807
21.673688,7.050166352164534,0.07695556727257158
21.676072,7.071494403956556,0.07660774805665166
21.678468,7.096966426868272,0.07622711361808625
21.680852,7.124300780899546,0.07584163941345859
21.683232,7.156570501983432,0.07542967778546839
21.685636,7.186838122320901,0.07503605146535704
21.688024,7.21002850523248,0.07469237189463514
21.690404,7.236152154450254,0.07432960486187275
21.6928,7.265348839601084,0.07394470417727385
