Time,Force,Position
21.60188,0.09787338281373174,0.0
21.60428,0.09249193182931617,0.0
21.606668,0.08431698416556564,0.0
21.609048,0.0761420365018151,0.0
21.611444,0.068246628091785,0.0
21.613831999999995,0.0602114500548947,0.0
21.616216,0.05124510645822605,0.0
21.618612,0.042138993234697206,0.0
21.620999999999995,0.034103815197806885,0.0
21.623396,0.026068637160916563,0.0
21.625792,0.018944177906784335,0.0
21.62818,0.014892754585707478,0.0
21.63056,0.011632727197548735,0.0
21.632956,0.0063910458399933775,0.0
21.635344,0.0032912348557150844,0.0
21.637724,0.0032912348557150844,0.0
21.64012,0.0071352199446683365,0.0
21.642508,0.009116873914064946,0.0
21.644888,0.009116873914064946,0.0
21.647284,0.009608283816242399,0.0
21.649671999999995,0.009608283816242399,0.0
21.652056,0.01023946334528006,0.0
21.654452,0.01023946334528006,0.0
21.656839999999995,0.01023946334528006,0.0
21.659223999999995,0.01023946334528006,0.0
21.66162,0.01023946334528006,0.0
21.664007999999995,0.011150182128038142,0.0
21.666404,0.013131836097434752,0.0
21.6688,0.013131836097434752,0.0
21.671184,0.013251158947274725,0.0
21.673564,0.013131836097434754,0.0
21.675968,0.014854397590131185,0.0
21.678356,0.015925332776769715,0.0
21.680736,0.02111979230608192,0.0
21.683136,0.030178683701367615,0.0
21.685524,0.03830640953687499,0.0
21.687904,0.03951711435037373,0.0
21.6903,0.04231061102970869,0.0
21.692688,0.04922763205171732,0.0
21.695072,0.052859746492213554,0.0
21.697468,0.05591233564824869,0.0
21.699856,0.055281156119211035,0.0
21.70224,0.055281156119211035,0.0
21.704636,0.055281156119211035,0.0
21.707024,0.05591233564824869,0.0
21.709404,0.05640374555042615,0.0
21.7118,0.057055371856484044,0.0
21.714188,0.058638163722320266,0.0
21.716572,0.06420471030396994,0.0
21.718968,0.0675100636625026,0.0
21.721356,0.06800147356468006,0.0
21.723735999999995,0.06508865403550514,0.0
21.726132,0.06203606487946998,0.0
21.72852,0.057193245625475016,0.0
21.730903999999995,0.04813435423018932,0.0
21.7333,0.04000662839468195,0.0
21.735688,0.03495193849222996,0.0
21.738084,0.030807967372536042,0.0
21.74048,0.023890946350527405,0.0
21.742868,0.022260932656448032,0.0
21.745252,0.019699753402590343,0.0
21.747648,0.024754443305042336,0.0
21.750032,0.027807032461077477,0.0
21.752412,0.031930556803751155,0.0
21.754816,0.03542290161738716,0.0
21.757204,0.03705291531146653,0.0
21.759584,0.03549057022265056,0.0
21.761984,0.031926124387417716,0.0
21.764372,0.026359577805768034,0.0
21.766752,0.02293490159739541,0.0
21.769148,0.022443491695217963,0.0
21.771536,0.022443491695217963,0.0
21.77392,0.022443491695217963,0.0
21.776316,0.02209185141990072,0.0
21.778704,0.02209185141990072,0.0
21.781088,0.02209185141990072,0.0
21.783484,0.02209185141990072,0.0
21.785872,0.02146067189086306,0.0
21.788256,0.02146067189086306,0.0
21.790652,0.01896716124226876,0.0
21.79304,0.018475751340091308,0.0
21.795424,0.013421061437639313,0.0
21.79782,0.01036847228160417,0.0
21.800208,0.0062449479389304965,0.0
21.802588,0.0021214235962568224,0.0
21.804984,0.0,0.0
21.807372,0.0,0.0
21.809752,0.0011902580364785017,0.0
21.812148,0.0023805160729570033,0.0
21.814536,0.0035707741094355046,0.0
21.816932,0.005831967332552537,0.0
21.819328,0.010374800555806842,0.0
21.821715999999995,0.013846698592422614,0.0
21.824096,0.014105791069122795,0.0
21.826491999999995,0.014644422799543396,0.0
21.82888,0.018256090463019382,0.0
21.83126,0.018256090463019382,0.0
21.833656,0.018256090463019382,0.0
21.836044,0.018256090463019382,0.0
21.838424,0.020005427006938727,0.0
21.84082,0.023756864297274916,0.0
21.843208,0.0273685319607509,0.0
21.845592,0.030188803691308774,0.0
21.847988,0.03580257210120161,0.0
21.850376,0.04313890200379087,0.0
21.852756,0.05182570634673909,0.0
21.855156,0.060512510689687306,0.0
21.85754,0.06507579068996185,0.0
21.85994,0.06963907069023641,0.0
21.862336,0.07443466811598823,0.0
21.86472,0.07769279964627772,0.0
21.867104,0.08052972643811734,0.0
21.869499999999995,0.0876012762903987,0.0
21.871891999999995,0.10700839998740626,0.0
21.874272,0.1374931708873981,0.0
21.876672,0.17467930044520308,0.0
21.879056,0.23051362039192813,0.008349895315542569
21.88144,0.2924448945186515,0.01687290360931732
21.883835999999995,0.36713105137068175,0.02495195052590147
21.886224,0.44784016552324424,0.03326391349156672
21.888608,0.534599012027562,0.04170464275496095
21.891003999999995,0.6329020364436879,0.04997055731795526
21.893392,0.7408869076520652,0.05818991514247512
21.895772,0.8525945452416867,0.06643437003182921
21.898168,0.9678851795856916,0.0747925594011209
21.90056,1.087875071841093,0.08334704807568971
21.90294,1.2188500635008614,0.0918270678789486
21.905336,1.36602506087133,0.10011359264039196
21.907724,1.5220905091011319,0.10836710545347751
21.910108,1.6870010822198929,0.11648899217559439
21.912504,1.860524462802136,0.12452168363588027
21.914891999999995,2.0383788059591765,0.13246534511501867
21.917276,2.216886671280144,0.1403619004152572
21.919672,2.3926973794361324,0.1480149766665744
21.922059999999995,2.552821834418488,0.15569083340343953
21.924444,2.6974923536526876,0.16346219023486816
21.92684,2.820980278295333,0.1631134071235679
21.929227999999995,2.9423282284225705,0.1625263001284799
21.931608,3.0502224476902002,0.162460323351868
21.934004,3.1519743868074572,0.16205626838652168
21.936392,3.244650779468147,0.16148729403790238
21.938776,3.3236883456719943,0.16111554376192752
21.941172,3.3951387136286253,0.1607959066759647
21.94356,3.4608169926293515,0.16051814989473803
21.94594,3.5254262323013084,0.16003340720418677
21.94834,3.582402947755674,0.1593770275814724
21.950724,3.623366648954443,0.1589029549242265
21.953123999999995,3.647758257390175,0.1586923323741709
21.95552,3.6619089405262146,0.1585931411600048
21.957908,3.6710789306392684,0.1585400160390509
21.960291999999995,3.6747563710501385,0.15850491372696202
21.962688,3.671730556945326,0.15854091972014964
21.965076,3.6647949850041663,0.15855953053540453
21.967456,3.6435651685843684,0.15910595110622006
21.969852,3.628759067426532,0.15961863182959052
21.972244,3.6246604222772123,0.15992036560043282
21.974624,3.631363676792895,0.1598503096433703
21.977024,3.633598094964789,0.15982767865890288
21.979408,3.6332260079124516,0.15979427599125667
21.981792,3.629361576046478,0.1599236736827973
21.984188,3.6250306134716808,0.16018192145117954
21.986576,3.6271705879870884,0.16031861917765333
21.98896,3.628426618770961,0.16040347711022704
21.991356,3.62977709321132,0.16032942262397162
21.993744,3.622235220934476,0.16049098288760758
21.996123999999995,3.620000802762582,0.1605134119315692
21.99852,3.626239422427309,0.16034806302283455
22.000907999999995,3.6372264176895466,0.16010361399591325
22.003288,3.650914361832501,0.1597097264892968
22.005688,3.6567808944448914,0.15950881979745646
22.008076,3.658410908138971,0.15940387427113145
22.010456,3.6601334696316674,0.15936271315271092
22.012856,3.6664646370950122,0.15926412438976803
22.015244,3.6886728409028318,0.15861870619010823
22.017627999999995,3.710276640232837,0.157904128047737
22.020024,3.727271833592193,0.1572633562576944
22.022412,3.738540263966019,0.15680230500717515
22.024795999999995,3.7480389110189054,0.15644982378767355
22.027192,3.764707343296298,0.15592034959408274
22.02958,3.7863111426263023,0.15523611808704973
22.031963999999995,3.8086137900906083,0.15446852306196435
22.034368,3.823746652330408,0.15388384045527537
22.036756,3.838972062368825,0.15336329252974662
22.03914,3.854801876885056,0.15292879153468175
22.041536,3.880083116625931,0.1522235702310021
22.043924,3.90406110375469,0.15153581891078344
22.046304,3.9227316367784995,0.1509718145675464
22.048704,3.938748442749834,0.15046586895769384
22.051092,3.9557889620795645,0.1500040091041105
22.053476,3.9796271795814633,0.14934345160651274
22.055876,4.009052390442032,0.1485489021928351
22.058264,4.039176449436902,0.1476832553703345
22.060644,4.0677177165659355,0.14686692372575116
22.06304,4.08783127182872,0.14635031398673687
22.065428,4.106966439703485,0.1459311301183158
22.067812,4.12461136351103,0.14558613588671473
22.070208,4.145748632132211,0.1451140443700793
22.072596,4.1710298718730865,0.1445122821438058
22.074976,4.190165039747851,0.14409697465448024
22.077376,4.20473692762234,0.1438484584446319
22.079764,4.223964643295721,0.14349880686790953
22.082148,4.248547034902295,0.1429785390057775
22.084544,4.272757339456531,0.14242841365878853
22.086936,4.29631601770471,0.14187733831935473
22.089316,4.315730724833195,0.14145974303011813
22.091716,4.332444483080962,0.14116301712018012
22.094104,4.351020572448284,0.14082248409179815
22.096488,4.37481156812194,0.14033545995360142
22.098884,4.398090707116398,0.13983941100071412
22.101272,4.416806566110581,0.13949914696755866
22.103656,4.430167749171573,0.1393216525369046
22.106052,4.445111724098398,0.13913261319256504
22.10844,4.4512559001066405,0.13915244615882025
22.110824,4.457027989062544,0.1391423149580923
22.11322,4.462148451712391,0.13912698744902707
22.115608,4.470202180668432,0.13904053326647298
22.117992,4.475554960743755,0.13906750633004805
22.120391999999995,4.480256114513021,0.13909030057470906
22.12278,4.487238908282425,0.13903723589840458
22.12516,4.496643111678824,0.13889560677687277
22.127559999999995,4.504976379888586,0.1387900257433352
22.129948,4.512331260710327,0.13876965940439723
22.132328,4.520477537464985,0.13874313676343297
22.134732,4.525830317540309,0.13877160757569962
22.13712,4.530671240936433,0.13878327243629038
22.1395,4.538724969892474,0.13870508221442743
22.141896,4.546638929221656,0.1386383874380373
22.144288,4.5496175214982255,0.13868728675926909
22.146668,4.547009120416124,0.1388456866124297
22.149064,4.548963999334298,0.13886099180357286
22.151452,4.553340287879469,0.1387931587492609
22.153836,4.555854245305083,0.1387621052854239
22.156232,4.566097066462645,0.13855924474768486
22.15862,4.579133384299541,0.13830285268135212
22.161004,4.594730881390294,0.1379554428945977
22.1634,4.608605816988353,0.1376354983272259
22.165792,4.6249021622134086,0.13723630141556747
22.168175999999995,4.640127572251826,0.13686920176190717
22.170572,4.656563687103741,0.13646402534205748
22.17296,4.67155677971668,0.1360611679818167
22.175344,4.682033814157588,0.13573549225216056
22.17774,4.690276430426603,0.13541676036830982
22.180132,4.699869521135976,0.13505100704690132
22.182512,4.710813086285707,0.13463126287290272
22.184908,4.720825485875661,0.134228279617683
22.187292,4.727904619159419,0.13389128092871766
22.189676,4.74033842837637,0.13342139339425602
22.192072,4.75398294240682,0.13291221617717763
22.19446,4.774285384982576,0.13227410568282152
22.196844,4.788721294945946,0.13175935435965141
22.19924,4.800223938603118,0.13130459513675038
22.201628,4.813868452633568,0.13079821539435357
22.204008,4.825138778865265,0.13031058173561796
22.206404,4.833755378044485,0.12986296688124901
22.208791999999995,4.839950567596707,0.12949425948965443
22.211175999999995,4.847216692335569,0.12910061241901355
22.213572,4.852340946701154,0.12876220154713225
22.215959999999995,4.8594673018131544,0.1283845540295389
22.21834,4.8685957576715735,0.1279712854337987
22.22074,4.878236070209189,0.12757459003810845
22.223124,4.889598944239501,0.12715646681746795
22.225508,4.901101587896674,0.12672649048067489
22.227908,4.909531195620791,0.12636543447384865
22.230296,4.923827335957299,0.1259009205320029
22.232676,4.937332080360888,0.1254380330285633
22.235076,4.950324968085281,0.12495826344144943
22.237464,4.955169683197146,0.12465094925996319
22.239847999999995,4.958943463122371,0.1243684476718873
22.242244,4.958201184875565,0.12414848420319924
22.244636,4.961463108121594,0.12384919832520008
22.247015999999995,4.96593573618112,0.12351263882482019
22.249416,4.964402062001396,0.12329419925670058
22.2518,4.964451179687508,0.12306788507264632
22.254183999999995,4.963289592560122,0.12287624070653656
22.256584,4.961336609499818,0.12268835977418147
22.258972,4.955099885692959,0.12260169828503095
22.261351999999995,4.945138499646987,0.12257524376137044
22.263752,4.93224384729482,0.12260331521717668
22.26614,4.916415928636458,0.12268306460008897
22.268524,4.898865448485399,0.12278246774575732
22.27092,4.879732176468504,0.12289063958017715
22.273308,4.861390300384528,0.1229941861939991
22.275692,4.842768885046831,0.12312080906523724
22.278092,4.816790693029523,0.12341110526672971
22.28048,4.793605997691552,0.1236560924318266
22.282864,4.767860123099723,0.12398899210310299
22.28526,4.749331255560643,0.12416159983753147
22.287652,4.733456115074038,0.12429971364495619
22.290032,4.721445406453405,0.12436732424991329
22.292428,4.70529072671308,0.12452599419854923
22.294816,4.693791874771645,0.12460922761867689
22.2972,4.6893702602561005,0.12455000560326016
22.299596,4.684808876113696,0.12450122691476573
22.301984,4.685182859023902,0.12436102332033742
22.304368,4.687279403426805,0.12420335056580493
22.306764,4.69431131488232,0.12395341019325241
22.309152,4.706930219696504,0.12361656991699348
22.311532,4.720200750816748,0.12328564856687346
22.313928,4.731049872309994,0.12302423375486199
22.316316,4.745483886415492,0.12271619343907904
22.3187,4.7633630235063835,0.12237281565607482
22.321096,4.782033556530193,0.12202746611628401
22.323484,4.802845959927279,0.1216321834017538
22.325868,4.825008837764725,0.121185399461581
22.328264,4.845541701908091,0.12080759977981106
22.330652,4.872080868290707,0.12030980363018307
22.333036,4.89419652429991,0.11993124184155335
22.335432,4.915520784376194,0.1195608770693452
22.337824,4.9352150307584,0.11926105414226405
22.340204,4.960915579379855,0.11884744587680295
22.342604,4.98060982576206,0.11855086451859212
22.344988,5.000024532890545,0.11828320512887588
22.347372,5.0205101752056684,0.11799579480667073
22.349768,5.0407162782670705,0.11773566460300426
22.352156,5.064135186888389,0.11741469601698754
22.35454,5.088904569950065,0.11705951561229001
22.35694,5.114884657825242,0.11668021921873863
22.359328,5.141284054580998,0.11627256170652706
22.361712,5.1738295232028655,0.11575767855349792
22.364108,5.2067943007053135,0.11522293001376827
22.366499999999995,5.236034415968648,0.1147349547038424
22.36888,5.269558271978537,0.11417539597558272
22.37128,5.302150962428648,0.11363030242332382
22.373667999999995,5.335395279184817,0.11309098550907025
22.376052,5.374134041501039,0.11244809501628668
22.378448,5.411941638257481,0.1118272881860397
22.380835999999995,5.450959939827422,0.11117899227340897
22.383216,5.4930512773304185,0.1104929915493216
22.385616,5.534770527781078,0.10978338852572081
22.388,5.577420943791516,0.1090806134380323
22.39038,5.624075561294787,0.1083183785101806
22.392776,5.666865746932086,0.10761148136285784
22.395164,5.704720565516771,0.1069719129654865
22.397544,5.738990491489204,0.10636846362256037
22.39994,5.766183180035748,0.10587365948894582
22.402332,5.788160962275959,0.10546605180623128
22.404712,5.808136643769753,0.1050921281002852
22.407108,5.829695117129385,0.1047188615867649
22.4095,5.849251489742598,0.10437993732627635
22.411884,5.86345318642262,0.10413020017487874
22.41428,5.882450480528394,0.10382606013263626
22.416668,5.895161933141195,0.10362342402443137
22.419052,5.908664781686917,0.10342081799111419
22.421448,5.925520205419412,0.10315981029977252
22.423836,5.9375800317261564,0.1029559061252364
22.42622,5.948848462099984,0.1027546118947412
22.428616,5.96011689247381,0.10255467857887468
22.431008,5.965239250981526,0.10243954307951438
22.433388,5.971804631728216,0.10233242022673641
22.435787999999995,5.970221839862379,0.1023331084985111
22.43818,5.968778817623403,0.10232562063189735
22.44056,5.9693378961308445,0.10229355457118844
22.44296,5.9777656079970924,0.10217198365395382
22.445348,5.98591378060962,0.10206583754462153
22.447731999999995,5.994993118781926,0.10194960654437826
22.450128,6.00542293139459,0.10179969882405573
22.452516,6.012779708074201,0.10169125172767568
22.454896,6.016551592141557,0.10160876894046372
22.457291999999995,6.012594612476967,0.10161075234047232
22.45968,6.0149234743053475,0.1015201783313065
22.462064,6.015529774641031,0.10143920289634899
22.464459999999995,6.015344679043797,0.10135814399389444
22.466848,6.013576791580726,0.10127777658574967
22.469228,6.009806803371239,0.10122251224606262
22.471624,6.006036815161751,0.10116709574165231
22.474011999999995,5.99826262545943,0.10116086466205262
22.476396,5.988765874264413,0.10116271773720181
22.478792,5.9798282015768365,0.10113229813433294
22.481179999999995,5.967724945157587,0.1011022665414681
22.483564,5.964468709485167,0.10092466240153743
22.48596,5.958418977133412,0.10077169703064279
22.488347999999995,5.9497155177291825,0.1006347078564876
22.490728,5.9346336690333645,0.10054536387311805
22.493128,5.923463474031762,0.10036736949760457
22.495512,5.916856559030435,0.10010990091106141
22.497896,5.914114075895083,0.09981425425537693
22.500292,5.915795103133143,0.09944853399378145
22.50268,5.922411497423817,0.09903015182909844
22.505064,5.938107229886796,0.09850185200791173
22.507459999999995,5.951800861603358,0.09800201170195046
22.509848,5.960698895894167,0.09754558793028201
22.512228,5.973740901304671,0.09703640887916193
22.514627999999995,5.990647338581149,0.09649329414077878
22.517016,6.003689343991654,0.09598640476108379
22.5194,6.014729248655741,0.09550105547290567
22.521795999999995,6.028981958879744,0.09496801570844035
22.524184,6.04202396429025,0.09445586805400792
22.526568,6.056788531193451,0.09393640315911328
22.528963999999995,6.072204724402709,0.0934237438711916
22.531352,6.079844832051777,0.09303620089332491
22.533736,6.086134465260487,0.0926779869063036
22.536136,6.098150861454727,0.09227054100022253
22.53852,6.108816783208606,0.09189118570746017
22.540904,6.117433382387826,0.09158582276176543
22.543299999999995,6.122557636753411,0.09134250967560355
22.545688,6.1247486248128,0.09112967610046792
22.548072,6.121724706565859,0.0909824389311225
22.550467999999995,6.113485882012584,0.09090068752476144
22.552856,6.102825647832311,0.09086301277836502
22.55524,6.091234248092259,0.09083139173140231
22.557635999999995,6.088302877643932,0.09072490940185096
22.560028,6.080296370516134,0.09067389559629688
22.562408,6.066283561149085,0.09068452874767169
22.564808,6.0579975147675675,0.09064828984914308
22.567192,6.053575900252022,0.09057850107146455
22.569576,6.048734976855896,0.09053148978403795
22.571971999999995,6.046035923833046,0.0904562773180043
22.57436,6.042917561929619,0.0904039898929534
22.576744,6.040730365585968,0.0903452418416
22.579139999999995,6.043106449242591,0.09021480566458141
22.581528,6.0486953384591295,0.09004200946391237
22.583908,6.044413493570445,0.08996351634828345
22.586307999999995,6.043856310920874,0.08985915330504822
22.5887,6.039714235659049,0.08977263556567269
22.591083999999995,6.034640994837445,0.0896923926672182
22.59348,6.026354948455927,0.08965518044235012
22.595868,6.021002168380603,0.08959017508314633
22.598251999999995,6.020212668305555,0.08945145248509728
22.600652,6.015978045245113,0.08932298300835234
22.60304,6.010532717371172,0.08921666953616537
22.605424,5.998289691325063,0.08917146037061571
22.607824,5.9911218019584265,0.08907009937535985
22.610212,5.989960214831041,0.08890660114503007
22.612596,5.98493419583768,0.08877675764947186
22.614992,5.978045845724764,0.08865954288188571
22.61738,5.973439135611984,0.08850693735864441
22.619764,5.970834526245623,0.08833482552488373
22.62216,5.966786894640284,0.08815134603123317
22.624548,5.965160672661942,0.08792583153815078
22.626932,5.961252810683464,0.08773512043821913
22.629332,5.958415883891625,0.08753180625675716
22.63172,5.963447590458593,0.0872578124271825
22.634104,5.971180245906278,0.08692978402108639
22.6365,5.984919203593215,0.08654562874888788
22.638892,6.004804233146262,0.08610027753445654
22.641272,6.0300439386325015,0.08558951955886651
22.643671999999995,6.057425514492016,0.085056420485529
22.64606,6.082525450351396,0.08456167713160462
22.64844,6.110279113263251,0.08405644276968754
22.650839999999995,6.1413853513618815,0.08350814219500405
22.653228,6.1732829853934295,0.08295908315279776
