Time,Force,Position
22.603728,0.02209133265141001,0.0
22.606112,0.03210641607758442,0.0
22.608508,0.04412360025017567,0.0
22.610896,0.053998914049489866,0.0
22.61328,0.0649451630354426,0.0
22.615676,0.07775374314095196,0.0
22.618064,0.09363535917951671,0.0
22.620444,0.11151907596449831,0.0
22.62284,0.12819208793598116,0.0
22.625228,0.1407211287877701,0.0
22.627608,0.15404156557247714,0.0
22.630012,0.1684329375438227,0.0
22.6324,0.18375547507494663,0.0
22.63478,0.19893824297921037,0.0
22.637176,0.21305007569683554,0.0
22.639564,0.22408887248140533,0.0
22.641944,0.22953609621321508,0.0
22.644344,0.2308393488253309,0.0
22.646728,0.2333533062509454,0.0
22.649108,0.2347963284899214,0.0
22.651504000000003,0.23796191222159385,0.0
22.653892,0.23162884890037974,0.0
22.656272,0.22329368483274875,0.0
22.658676,0.21724016076525504,0.0
22.661064,0.20918453595134445,0.0
22.663444,0.1974042488983206,0.0
22.665840000000003,0.18161976035246305,0.0
22.668228,0.164764336619967,0.0
22.670608,0.14809132464848415,0.0
22.673008,0.13780128166267946,0.0
22.675392,0.12699938199767713,0.0
22.677792,0.11391584233253749,0.0
22.680188,0.09859330480141355,0.0
22.682576,0.08341053689714988,0.0
22.684956,0.06929870417952469,0.0
22.687352,0.05825990739495492,0.0
22.68974,0.051225312103218845,0.0
22.692120000000003,0.04633258718475983,0.0
22.694516,0.03822705670638521,0.0
22.696904,0.031192461414649122,0.0
22.699288000000003,0.0222955350033564,0.0
22.701692,0.01861351489839612,0.0
22.70408,0.01493149479343584,0.0
22.70646,0.011109705061615346,0.0
22.708856,0.008219080889573176,0.0
22.711244,0.007190787837087646,0.0
22.713624000000003,0.007093660344380439,0.0
22.716024,0.00606536729189491,0.0
22.718408,0.00606536729189491,0.0
22.720792,0.0038263694259106397,0.0
22.723188,0.0013078323062059494,0.0
22.725576,0.0,0.0
22.727956,0.0,0.0
22.730352,0.0,0.0
22.73274,0.0,0.0
22.73512,0.0,0.0
22.73752,0.0,0.0
22.739908,0.0,0.0
22.742304,0.0,0.0
22.7447,0.0,0.0
22.747088,0.0,0.0
22.749472,0.0,0.0
22.751864,0.0,0.0
22.754252,0.0,0.0
22.756632,0.0,0.0
22.759036,0.0,0.0
22.761424,0.0,0.0
22.763804,0.0,0.0
22.7662,0.0,0.0
22.768588,0.0,0.0
22.770968,0.0,0.0
22.773364,0.0005164363732878388,0.0
22.775752,0.0005164363732878387,0.0
22.778132,0.0005164363732878387,0.0
22.780536,0.0005164363732878388,0.0
22.782924,0.0005164363732878388,0.0
22.785304,0.0005164363732878388,0.0
22.787708,0.0005164363732878388,0.0
22.790096,0.0010328727465756776,0.0
22.792476,0.003551409866280368,0.0
22.794872,0.004859242172486317,0.0
22.797256,0.005887535224971845,0.0
22.799636,0.009057698650734436,0.0
22.80204,0.014369732449774086,0.0
22.804428,0.017959204756117307,0.0
22.806808,0.021408907435600318,0.0
22.809204,0.029002581234777242,0.0
22.811592,0.03566508947417584,0.0
22.813972,0.04125666252693592,0.0
22.816376,0.04391496927350082,0.0
22.818764,0.0456421104602874,0.0
22.821144,0.045781880087147606,0.0
22.82354,0.04657785571415586,0.0
22.825928,0.047234061714303915,0.0
22.828308,0.047234061714303915,0.0
22.830704,0.047234061714303915,0.0
22.833092,0.048169806968172385,0.0
22.835476,0.048169806968172385,0.0
22.837868,0.047653370594884545,0.0
22.84026,0.04513483347517985,0.0
22.84264,0.04382700116897391,0.0
22.84504,0.04279870811648838,0.0
22.847428,0.042698576886394356,0.0
22.849824,0.05232561841892567,0.0
22.852220000000003,0.07638288234121708,0.0
22.854608,0.10947036674970204,0.0
22.856992,0.14465060384535167,0.01127227411638186
22.859388000000003,0.18457732068064076,0.022958440538522855
22.861776,0.23162470505432353,0.03474198304779962
22.864156,0.2960355781239616,0.045420422583722364
22.866552,0.37450458653102225,0.05540611628869997
22.86894,0.46307475061091513,0.06512784385985294
22.87132,0.5580214081245267,0.07477807336033505
22.873716,0.6582736238852185,0.08452290357880612
22.876108,0.7693757491175075,0.0940903641540241
22.878488,0.8899727296869445,0.10363569844935241
22.880884,1.0181051069812659,0.11312366160620091
22.883272,1.1563432196425094,0.12245180662572312
22.885652,1.3020287609241101,0.1317062738332829
22.888052,1.456232666012707,0.1408338198717257
22.89044,1.6163012078558248,0.14994464673906185
22.89282,1.7897781545881766,0.15858375611024114
22.895216,1.9627462483787175,0.167074012097216
22.897604,2.120866706756787,0.17552740007809167
22.899988,2.261531128640284,0.18407875981833147
22.902384,2.389952524477672,0.19280473886152386
22.904772,2.5150232409861535,0.19022269998203808
22.907152,2.640794701486805,0.18707376409814458
22.909556,2.7614948170237232,0.18371026184168207
22.911948,2.8606421467746177,0.18159924315980178
22.914328,2.9422862182026974,0.18032253701736092
22.916724,3.012059350637005,0.1795125319560258
22.919112,3.078714121167883,0.17875100798947025
22.921496,3.1464417227432695,0.1776790043312444
22.923892,3.205465864914425,0.1766813499654209
22.92628,3.2562530783901753,0.1755531909152306
22.928664,3.298988458767753,0.1744320227031636
22.93106,3.334508727950451,0.17347409752888163
22.933452000000003,3.364536447430966,0.17259319886029997
22.935832,3.3892586086643997,0.1716976555224017
22.938232,3.408582663852136,0.17068972616114297
22.940620000000003,3.4078876074335738,0.17030080863840444
22.943,3.405562537320932,0.17002937487763442
22.945404,3.407100003216394,0.1698472838133911
22.947792,3.4184137595605937,0.16944833622233968
22.950176,3.43894662370396,0.16867073882764583
22.952576,3.4550106515035375,0.16795442650685943
22.95496,3.467629556317723,0.16734778827571278
22.95734,3.4776400600498074,0.16696326295425
22.959744,3.499521502775664,0.1663542401788086
22.962132,3.528153421845445,0.16556653413204891
22.964512,3.5623270083035226,0.16443538386557646
22.966916,3.593801541738751,0.16325513614288745
22.9693,3.61396231882978,0.16246599644862014
22.971684,3.6299319029728716,0.16192539192109195
22.97408,3.6478091442058935,0.16148642876807245
22.976468,3.669922904357227,0.16096386984036318
22.978848,3.691432260030745,0.16036881892207544
22.981252,3.7132683767862273,0.15967727657646313
22.98364,3.730261674287714,0.15922342304664283
22.98602,3.748603550371691,0.1589216433447372
22.988416,3.777513112837324,0.15841723512415476
22.990804,3.8067022145566765,0.15789214046796615
22.993184,3.833704119932379,0.1573082520712099
22.995584,3.856888815270351,0.15679151710905606
22.997968,3.8729962731824332,0.1565305439804336
23.000348,3.8962735163190225,0.1561013962719958
23.002748,3.9186195938958326,0.1557022511766046
23.005132,3.9498126922194716,0.15497786755526266
23.007512,3.9768164934530428,0.1542798233420364
23.009912,4.002377272447638,0.15359793772874702
23.012296,4.030265017412745,0.15298363058737474
23.01468,4.058896936482525,0.15243807163972622
23.017084,4.095677028164834,0.15163425070251135
23.019468,4.138510643914637,0.15058063977938063
23.021852000000003,4.176316344813211,0.14961556195295142
23.024248,4.20518247716634,0.14890989748417469
23.026636,4.233489531012026,0.14826566172348396
23.029016,4.259934253738156,0.1476783347985021
23.031412,4.290709939039084,0.1468848309337876
23.0338,4.318227492809722,0.14607052010148658
23.03618,4.340717131729131,0.14534258148289586
23.038576,4.359574656208045,0.1447540093617371
23.040964,4.3835998651650465,0.144082075415108
23.043348,4.4066939085622705,0.14343806392992453
23.045744,4.431278196026714,0.14271857109115524
23.048132000000003,4.446550827893374,0.14221822562824274
23.050528,4.465548121999148,0.14164284108811678
23.052924,4.474395142745975,0.14135677180413123
23.055312,4.482822854612223,0.141109443092848
23.057696,4.489807544239497,0.14086617038959787
23.060092,4.487388030470369,0.14076936657067882
23.06248,4.484736199275763,0.14063161072773792
23.06486,4.482224137708018,0.14048275559114448
23.067256,4.475568105020578,0.1404451197154638
23.069644,4.471333481960135,0.1403218608030026
23.072024,4.473524470019525,0.14001223026047419
23.074424,4.473992896586218,0.1397286537125645
23.076812,4.478558072444362,0.13940234053017087
23.079192,4.482424400168206,0.13913926630110224
23.081588,4.491737951623858,0.1387827978847202
23.083976,4.5016105815869505,0.13837834953308337
23.08636,4.514184160430761,0.1378641179847002
23.088756,4.5188891059157665,0.13753020664155108
23.091144,4.52331451214705,0.137220104169798
23.093528,4.526529213564835,0.13695113923672816
23.095924,4.532257872408235,0.13664639381880198
23.098312,4.533190933825882,0.13644780501509957
23.100692,4.537848657482642,0.1361740508125492
23.103096,4.543297777072321,0.13589463049997613
23.105484,4.550189918900976,0.13561455255924065
23.107864,4.562249745207721,0.13525518353400687
23.110268,4.569094665208132,0.13503432921328365
23.112656,4.57151607483513,0.13494939421192206
23.115036,4.5736579452084065,0.13488784917881924
23.117444,4.5760321330071605,0.13486772190232943
23.119828,4.574541888939942,0.13493385021142035
23.122208,4.577055846365556,0.1349025221027718
23.124608,4.571049544126305,0.13504802093960447
23.126996,4.561830436327139,0.13528350368732545
23.129376,4.5476759614753615,0.13562947927179692
23.131772,4.534684969608838,0.1359973928122984
23.13416,4.5223456040483745,0.13636855437388345
23.13654,4.5178748718467165,0.1365619366534558
23.138944,4.514335305204837,0.1367369374336817
23.141332,4.516662271175349,0.13678195093961826
23.143712,4.523272977892415,0.13671194182675303
23.146108,4.529743914982619,0.13665246046038348
23.148496,4.537565326513183,0.13654276770608154
23.150876,4.544176033230248,0.1364731643613262
23.153276,4.548924408827757,0.13643804866075795
23.155664,4.5539523236789865,0.13638075804917008
23.158044,4.567919807075662,0.13612503240538665
23.160448,4.5823065993529175,0.1358326924879218
23.162836,4.601768528309645,0.13542502507896004
23.165216,4.620299291706594,0.13503473933387228
23.167612,4.6404128469693795,0.13462986454287942
23.17,4.658524301485748,0.13427776523088744
23.17238,4.68105926637553,0.13379583527356387
23.174776,4.704944705705672,0.13326010263564614
23.177164,4.727759209849177,0.13274663028607062
23.179544,4.751272562126981,0.1321806468607838
23.18194,4.7730633529120885,0.1316385454645021
23.184328,4.790477855152026,0.13116684156069208
23.186708,4.80444723440657,0.13073836194403768
23.189112,4.811758685115805,0.1304429731222957
23.1915,4.815205703959068,0.13022674937139275
23.19388,4.822145067615967,0.12990743548129816
23.196284,4.828013496086225,0.12961840923058554
23.198672,4.8316475063845905,0.12933146650387592
23.201052,4.834350351123178,0.1290588149675434
23.203448,4.838263900675264,0.1287505233176064
23.205836,4.835938830562622,0.12853374770560574
23.20822,4.8338932997037,0.12829448366067933
23.210616,4.82612100585925,0.1281601296056552
23.213004,4.818907790522239,0.1279821534053942
23.215388,4.816257855185502,0.1276793692924722
23.217788,4.809883257609652,0.12743647303646205
23.220176,4.802297955220303,0.1272296840756187
23.22256,4.794712652830955,0.1270226773185815
23.224956,4.790340156001523,0.12673769186325015
23.227344,4.783034392865895,0.12650820762079276
23.229724,4.776939334543765,0.12624158719884948
23.23212,4.769493801781277,0.12602136499576463
23.234508,4.7644224568175435,0.12578721659259487
23.236892,4.762284378160006,0.12549592235197116
23.239292,4.763219335435522,0.1251382550508865
23.24168,4.759870551964485,0.12488437828543329
23.244064,4.752797106254334,0.12469002596254877
23.24646,4.751310653902854,0.12440540426384693
23.248848,4.753037007111289,0.12404304970286448
23.251232,4.751969863640388,0.1237265885254162
23.253628,4.749412476102269,0.12346585738544932
23.256016,4.749369045989765,0.12318292025486596
23.2584,4.750256781437039,0.122883575726696
23.260804,4.748071480951258,0.12264959800598833
23.263188,4.7425336052787,0.1225043205548824
23.265572,4.742070866285615,0.12225394412204633
23.267976,4.744541393598725,0.12195051324077957
23.27036,4.749153791285111,0.12159943593928693
23.27274,4.7548371241581355,0.12122741036487462
23.275144,4.763174184083636,0.12082421772753738
23.277532,4.773233805501832,0.12040774345930048
23.279916,4.7891599595324195,0.11989227120396666
23.282316,4.8065763576302265,0.11932421168458661
23.284704,4.821990654981616,0.11879483068023831
23.287084,4.837404952333006,0.11827391723185252
23.289488,4.854821350430812,0.11771421942739954
23.291876,4.879035446700787,0.11704670511551399
23.294256,4.897243240731511,0.11648841958334209
23.296660000000003,4.915962891441432,0.11595399327291656
23.299048,4.93598579476347,0.11543581711758419
23.301428,4.962015000324757,0.11481302678467255
23.303832,4.988183975512906,0.11418952011820033
23.306216,5.016355051447472,0.11353334512330639
23.308596,5.050252890367567,0.11279531666354718
23.310992,5.080426067048549,0.11210425891432974
23.31338,5.104965028542618,0.11154420850779447
23.31576,5.128293285223188,0.11102242558108756
23.318164,5.148268966716984,0.11057919446781975
23.320552,5.16717371302414,0.11016396484317931
23.322932,5.186078459331297,0.10975207310876212
23.325336,5.203912270451815,0.1093662589437843
23.327724,5.213877448213525,0.10910119964276221
23.330104,5.226496353027709,0.10881715332403498
23.332508,5.241908754521229,0.10850143485776315
23.334896,5.253968580827974,0.1082581145079988
23.337276000000003,5.267750968627413,0.10800421514376447
23.33968,5.276458219747382,0.10783483508030527
23.342068,5.29224270829324,0.10755487909748668
23.344452,5.305093930532903,0.1073164301622257
23.346848,5.3194353968397845,0.10703310700361092
23.349232,5.331355453519668,0.10681067968230287
23.35162,5.3420648053860535,0.10661890347934606
23.354016,5.356359049864692,0.10640061138289807
23.3564,5.368371654343192,0.1062312001771886
23.358788,5.382618676993587,0.10606624444342966
23.361184,5.401940836323455,0.10582332527136039
23.363572,5.421262995653322,0.10558193482675868
23.365956,5.444589356476024,0.10528497680872885
23.368360000000003,5.462421271738672,0.10508799104277196
23.370744,5.478902712560962,0.10492817687111135
23.373124,5.494033678942892,0.10480540877658912
23.375528000000003,5.515962343496991,0.10459475395363903
23.37792,5.531605166558118,0.10448920449049826
23.380304,5.546177054432609,0.10440394145928378
23.382704,5.5598177767473205,0.10432680784147959
23.385088,5.573738038315753,0.1042338853322699
23.387476,5.590591566190378,0.10410378873203334
23.389876,5.605163454064869,0.10402266951506611
23.392264,5.623087917126134,0.1038795098384858
23.394652,5.639661905747039,0.10377406243848847
23.397048,5.655304728808168,0.10367770425262209
23.399432,5.670947551869296,0.10358217171631166
23.40182,5.6767196408252,0.10361225622653447
23.404216,5.683702434594602,0.10361626758323292
23.406604,5.693106637991003,0.10356801502716487
23.408988,5.703721546200901,0.10349540677908883
23.411388,5.714476224037661,0.10341511188830185
23.413776,5.722297635568224,0.10337033075267864
23.416164,5.738546758965035,0.103197042436347
23.41856,5.75428402568265,0.10300653125411746
23.420948000000003,5.766436399788012,0.10284023869964655
23.423336,5.7777973779604554,0.1026772224351218
23.425732,5.792650700946535,0.1024452062574095
23.428116000000003,5.806572858372837,0.10222255207917562
23.430504,5.824638986918831,0.10193998964954237
23.4329,5.839632079531772,0.1017016196283114
23.435288,5.8494102658383795,0.10153932035782906
23.437676,5.856255185838791,0.10141177381390284
23.440072,5.862820566585481,0.1013025312836918
23.44246,5.869525716959033,0.10118569369032852
23.444844,5.877721111399804,0.10102804408076399
23.44724,5.884333713974738,0.1008710368436456
23.449628,5.8983030932292815,0.10060402887178554
23.452016,5.910549910991129,0.10034759505978932
23.454412,5.923076268006697,0.10007807959391976
23.4568,5.929875862036735,0.0998664360231974
23.459196,5.936023829760715,0.09964765383812772
23.4616,5.943522271925053,0.09939744434732858
23.463988,5.948087447783197,0.09918190397780317
23.466392,5.956656825134176,0.09892084676365911
23.468788,5.973374375097681,0.09855912583500652
23.471176,5.9851565580085735,0.09825156590999985
23.473572,5.997078510546327,0.09793847761018752
23.475968,6.009419771964661,0.09760240135944992
23.478356,6.016825666330383,0.09731947537414004
23.480752000000003,6.026513200696242,0.09699845282533547
23.483148,6.038761914315959,0.09661986491571085
23.485544,6.053571807189534,0.0961872465046858
23.48794,6.065727973010632,0.09577090640925097
23.490344,6.074019706965759,0.09539118738940057
23.492732,6.0780277001743315,0.09507233513451263
23.495132,6.081616384502322,0.09477643916873887
23.497528000000003,6.085065299203455,0.09449103198026725
23.499924,6.084510012411752,0.09424954519535993
23.502324,6.081952624873633,0.09403157204937526
23.504712,6.083259669201487,0.09377583100036402
23.507108,6.08549787908912,0.09351374285757841
23.509504,6.085594218603475,0.0932820742030019
23.511892,6.085830327744691,0.09304357457459918
23.514292,6.083272940206572,0.09282722933495054
23.516688,6.074709250429203,0.0926754506696298
23.519072,6.072012093264223,0.09246753467805989
23.521472000000003,6.069175166472383,0.09226792182667148
23.523868,6.063916830053547,0.09211185500528361
23.526252,6.062662695127541,0.09191321888241828
23.528636,6.059266689828261,0.09174334371608839
23.531032,6.0618769867682305,0.09151270991205947
23.533416000000003,6.0612744781482855,0.09132420360143662
23.5358,6.061603135088119,0.09112917367218613
23.538196,6.063282266468311,0.09090335712694149
23.540584000000003,6.0712472393414725,0.09060102700073125
23.542964,6.081773391468493,0.0902482188593475
23.54536,6.091647917289456,0.08988968006402397
23.547748,6.107388975722809,0.08947742891453729
23.550144,6.125132134902579,0.08904825299071953
23.55254,6.14180435889571,0.08863451186121081
23.554928,6.1551240077020655,0.08826909360921907
23.557312,6.168303886881562,0.08791011903338489
23.559708,6.180133291620697,0.08758124611768475
23.562096,6.190612221919475,0.08728109808558801
23.564476,6.206026519270862,0.08693735731419971
23.566876,6.217716154383139,0.08661957405029463
23.569264,6.228334854308778,0.08631630346359535
23.571644,6.244447999794469,0.0859409069575959
23.57404,6.262563246026576,0.08555102023972969
23.576428,6.278536621885406,0.08518442400087103
23.578808,6.285430659571929,0.08490744455803252
23.581212,6.296189129124427,0.08460118734290228
23.5836,6.308809929796481,0.08428579099854358
23.58598,6.321663047894013,0.08400018959663388
23.588384,6.33023242524499,0.08376768898189832
23.590772,6.337451328155608,0.08356365124621183
23.593156,6.340246720692813,0.08341733063204879
23.595552,6.343321652483737,0.08325785420387329
23.59794,6.343323548341608,0.0831288708614687
23.60032,6.344536149012975,0.08298068518509609
23.602716,6.346959454497843,0.08281219372463354
23.605104,6.3524557959157635,0.08261431856533658
23.607488,6.359162842147184,0.08239750954426892
23.609884,6.370153629125159,0.08213323749360142
23.612268,6.37807138017008,0.08190009105281446
23.614652,6.385989131214999,0.08166670071551177
23.617048,6.391765011886641,0.08145666291354588
23.619436,6.392186216625091,0.08130739411296936
23.621816000000003,6.389674155057347,0.08118028718764451
23.624216,6.391166294982436,0.08101955167218015
23.626604,6.396243327519777,0.08084553628849825
23.628984000000003,6.398387093750923,0.08069361747914304
23.63138,6.396386888862375,0.08058225432348685
23.633768,6.397879028787464,0.08042123529291573
23.636152000000003,6.402583974272468,0.08022521782035945
23.638548,6.407288919757472,0.0800293897470661
23.640936,6.418931333041504,0.07978006345611095
23.643320000000003,6.424008365578846,0.07960776191489827
23.645724,6.430296102929687,0.079416726647045
23.648108,6.435512905093889,0.0792382089232955
23.650492,6.444594139124064,0.07903544247073055
23.652888,6.4531635164750405,0.07881822393123383
23.655276,6.458659857892964,0.07862806676051924
23.65766,6.459872458564332,0.07848400307799042
23.660056,6.46122482886256,0.0783331385115216
23.662444,6.465230926213262,0.07817680558016228
23.664828,6.474731469124018,0.0779586847153121
23.667224,6.487305047967828,0.07771410435072723
23.669616,6.5017409579311956,0.0774628530779131
23.671996,6.5175273423349225,0.07718944212234327
23.674392,6.535874905992506,0.07687569050791121
23.67678,6.55543317446359,0.07654484446945915
