Time,Force,Position
6.368611999999999,2.3687528522652834,0.1481356799040262
6.3726400000000005,2.388048723915804,0.1473572773546678
6.376616,2.401163384665644,0.1467226621853416
6.380583999999999,2.409337643765152,0.1462360870859189
6.384544,2.416393236189778,0.1458382489500912
6.388503999999999,2.426262621814908,0.1454413799811402
6.3923760000000005,2.438823658065074,0.1449194864357178
6.396416,2.449479535665281,0.1445122621391195
6.400444,2.465850889215364,0.1438209932949474
6.40442,2.4837952267156003,0.1430927351394141
6.408384,2.498826463790932,0.1425306143768102
6.412404,2.5101581084662805,0.1421352600347922
6.416432,2.5222762451167067,0.1417251163683307
6.420451999999999,2.529797572492139,0.1415223836597215
6.42442,2.540797042467684,0.1412103821348384
6.428388,2.551464337743424,0.1409673785739572
6.432388,2.563815341869252,0.1406706190848284
6.436411999999999,2.572023853995359,0.1406099883852633
6.440448,2.5803430910214007,0.1405326418094248
6.444424,2.591243253772543,0.14036953599862
6.456332,2.61127198087587,0.140362038075081
6.460255999999999,2.618018233951758,0.1403051915906335
6.464228,2.6265589207776694,0.140188506797992
6.468195999999999,2.6371154911534744,0.1399748992920635
6.47214,2.652944637879416,0.1396058263406793
6.476132,2.666425726355659,0.1393918344439689
6.480119999999999,2.677558756582204,0.1393375437104771
6.48404,2.6907076703586426,0.1391913212188103
6.488007999999999,2.7066589596600514,0.1389441590202933
6.492028,2.72283169876133,0.1386522743518669
6.49606,2.73732072901252,0.1383976777831541
6.500092,2.7519204841636444,0.1381254871914975
6.504064,2.765955197139562,0.1378422608998558
6.508092,2.776954667115106,0.1375827002138187
6.512008,2.7911994122153607,0.1371559034019714
6.516036,2.807902940465248,0.1365647546050057
6.520023999999999,2.822590585165241,0.1360657563565385
6.52402,2.8433258805149157,0.1353192973247171
6.527875999999999,2.8643933505643946,0.1345213598863575
6.531927999999999,2.88949258771366,0.1335479065398461
6.535928,2.9158212164377417,0.1324862688273848
6.53998,2.9387824274616454,0.1315160277705641
6.544008,2.9583762207853725,0.1306291499160725
6.548012,2.9738161044338445,0.1298276101505098
6.55198,2.9831969197571038,0.1291798935890202
6.555975999999999,2.9921234178050904,0.1284788363929012
6.560003999999999,3.001492815452816,0.1277090143203006
6.563924,3.0080598375755723,0.1270370348788208
6.567883999999999,3.009575733148062,0.1264644662423903
6.571831999999999,3.012321020295368,0.1258150939482973
6.575792,3.0174143656923724,0.1250327651169351
6.579844,3.0246343195392047,0.1241604061421778
6.583867999999999,3.026138797436161,0.1234790045295704
6.587904,3.0293269841832062,0.1227638139792144
6.591847999999999,3.0297127954052816,0.1221446965051192
6.5958760000000005,3.028082723077464,0.1216059515670115
6.599904,3.0270062752493194,0.1209808007473353
6.603928,3.0156175421963067,0.1206745095312007
6.60796,3.007031184668264,0.1202833992943736
6.611927999999999,2.9956424516152507,0.1199723096584487
6.6159040000000005,2.985593835036988,0.1195725563967565
6.619824,2.97711820240888,0.1191616714873097
6.623851999999999,2.966626686230878,0.1188228794489808
6.627856,2.955802995353072,0.1185312122055567
6.631888,2.946663013325354,0.1182109738716434
6.635856,2.9403254068226072,0.1178075511013626
6.639816,2.935782234069884,0.1173624262584666
6.643839999999999,2.932136278192173,0.1168948815332191
6.647779999999999,2.9299525813646805,0.1164294251353861
6.651748,2.931357752037236,0.1158863141277367
6.655664,2.9277232138350566,0.1155259836373524
6.659692,2.9199461836331566,0.1153307681067088
6.663663999999999,2.917552454681327,0.1150093976872228
6.6676400000000005,2.915834492804639,0.1147010170452259
6.671604,2.9129978642530703,0.1144456909716791
6.675568,2.9108370027766437,0.1142020392114965
6.679532,2.9099169505505658,0.1139995424672226
6.6835,2.916396083124453,0.1135954136040641
6.687467999999999,2.918732723698618,0.1133602082249045
6.69144,2.9225316233230023,0.1131336573011959
6.695404,2.926784840222659,0.1129568920056397
6.699375999999999,2.9290221735724224,0.1128522702997525
6.703408,2.936753533072192,0.1126129203636643
6.707431999999999,2.949081701846955,0.1122608245512828
6.711428,2.9630935794718063,0.1118904850880088
6.715387999999999,2.978002673971669,0.1115106986829384
6.719351999999999,2.9878720595968,0.1113026301557707
6.723267999999999,2.9985279371970064,0.1110934518798625
6.727292,3.013891348972142,0.1107659236242512
6.731316,3.022531343022456,0.1106317002755867
6.735344,3.041372897397704,0.1102581450234414
6.7393160000000005,3.0629061023979878,0.1098257690899175
6.743347999999999,3.081636931873301,0.109464508273812
6.747372,3.099581269373537,0.1091088843716572
6.751339999999999,3.1202172574988096,0.1087018382599366
6.755303999999999,3.140963970524016,0.1082781911744749
6.759271999999999,3.1629400751240397,0.1077994276247668
6.763244,3.1820030792991574,0.1074124533549536
6.767272,3.2012875332741446,0.1069886654219943
6.7713,3.218888278399044,0.106583517802551
6.7752680000000005,3.2333544732991677,0.1062914544152122
6.779296,3.2490500597741074,0.105935497445417
6.783324,3.260148836974055,0.1056838148576673
6.787288,3.268445238649031,0.1055022771398816
6.791304,3.274160714598907,0.1053574060628729
6.795356,3.280773407423794,0.1052011372015386
6.799315999999999,3.293544475798297,0.1048464800970879
6.80334,3.3056397770976567,0.1044816009384056
6.807395999999999,3.316051369546928,0.1041453794350515
6.811363999999999,3.331281221071063,0.1036892386958201
6.815391999999999,3.337428178945145,0.1034048651317444
6.819419999999999,3.342112877769009,0.1031080327788599
6.8234200000000005,3.3480269681676886,0.1027535206799829
6.827475999999999,3.353043841691357,0.1024132398471745
6.8314520000000005,3.356598456164805,0.1020630238850245
6.835483999999999,3.3604852453380585,0.1016716934663246
6.839528,3.360783167011265,0.1013379689919126
6.843572,3.359397379834382,0.1010169651212999
6.847572,3.359351709132251,0.1006252162091221
6.8516200000000005,3.3595274882299893,0.100203472015103
6.855587999999999,3.35958112475226,0.0996934452445963
6.8595880000000005,3.3586268194995834,0.0992110717758826
6.863631999999999,3.3627122231216413,0.0985897610759103
6.867668,3.3643274259185327,0.0979777467203532
6.871587999999999,3.3680692371652525,0.0972965924008961
6.875532,3.366538472061836,0.0966857453262622
6.8795280000000005,3.359513680808414,0.0961703402011037
6.883443999999999,3.352599614454927,0.0956402902758616
6.887404,3.339970072151564,0.0952288606440755
6.891396,3.3235302125482846,0.0948971443934885
6.895363999999999,3.3092169613948337,0.094492510156331
6.899331999999999,3.296919593791276,0.094030926354824
6.903336,3.2877567764124924,0.0934760173482834
6.907276,3.2806098425836034,0.0928681769194868
6.911187999999999,3.270660533229744,0.0923061526883161
6.915108,3.2617191656508298,0.0917180171353822
6.919108,3.2507619145220232,0.0911741850650392
6.923152,3.2409233300680973,0.0905853903826869
6.927204,3.229855354039356,0.0900487057391467
6.931172,3.21867665311068,0.0895231828728837
6.935219999999999,3.207952269457276,0.0890385316174465
6.939219999999999,3.198235827578818,0.0885256721897893
6.943275999999999,3.183479676825627,0.0881422756960451
6.9473,3.172312393572483,0.0877091541506386
6.951279999999999,3.1561054014446057,0.0874031379081915
6.955247999999999,3.1394555097169894,0.0871529822498277
6.959244,3.1261730356895505,0.0868813387297921
6.96318,3.112890561662111,0.0866065128351905
6.967127999999999,3.1044263467095363,0.0862260350419591
6.971095999999999,3.0979780153068552,0.0857901497803714
6.975095999999999,3.093999884729339,0.0853493572611225
6.97902,3.0867764790271126,0.0850152093561824
6.982996,3.073394697775272,0.0848498220564054
6.98696,3.059902191623496,0.0846961447353089
6.990883999999999,3.0528009284967377,0.0844513654047941
6.9948,3.045367490670174,0.0842492193188432
6.998744,3.044436020768564,0.0839463332476884
7.002675999999999,3.0442910428420307,0.0836472214109377
7.006592,3.0458297737655866,0.0833425380493839
7.010508,3.05229748866394,0.0829372559412485
7.0145,3.0605596373123176,0.0825127472706743
7.018436,3.0707269446106538,0.0820610395250537
7.022435999999999,3.0838073523338947,0.0815529748773667
7.026436,3.097895701832083,0.0810311290185168
7.030436,3.117810252180081,0.0803970348847827
7.034436,3.1415351198279966,0.079693059100653
7.038432,3.163354828825953,0.0790229143244341
7.042375999999999,3.181929262699201,0.0784450663506244
7.046336,3.2002822467725784,0.0779036768769167
7.050312,3.2176272890710087,0.0773861440954049
7.054247999999999,3.231051289169588,0.076946712804741
7.058183999999999,3.2483963314680184,0.0764310678046833
7.062151999999999,3.269662415966301,0.0758347026414355
7.066075999999999,3.2890233418146257,0.0752734010288901
7.070052,3.3026687917130744,0.0748120401748854
7.074016,3.3142983580616288,0.0743953239253988
7.077883999999999,3.326935866185131,0.0739703713148102
7.081908,3.343051516908745,0.0735361871342752
7.085875999999999,3.358491400557217,0.0730859352268149
7.089839999999999,3.3715832259559915,0.0727281281774695
7.093807999999999,3.3850072260545705,0.0723356980479101
7.09778,3.399106993228291,0.0719711806825032
7.101751999999999,3.4102936599771065,0.0716517427785565
7.105715999999999,3.41755928452607,0.0713974877263757
7.109715999999999,3.4237062424001525,0.0711782681239538
7.1137,3.430861142049181,0.0709435504220477
7.117687999999999,3.4408184172231806,0.0706799028173074
7.121739999999999,3.454696734597032,0.0703527069802111
7.125676,3.463756792896019,0.070089973150825
7.129652,3.4737140680700183,0.0698211886487593
7.1336200000000005,3.484679285018964,0.0695303734501198
7.137599999999999,3.491834184667993,0.0692904192426535
7.141563999999999,3.49787041764214,0.0690832294713486
7.145531999999999,3.5020014919663285,0.0688986536923486
7.149495999999999,3.5098321586905,0.0686773701177345
7.153464,3.516987058339529,0.068434217524935
7.157428,3.515513381613778,0.0683103118782981
7.161396,3.5104508373879786,0.068211170176494
7.165367999999999,3.506285510037191,0.0681058519201784
7.169343999999999,3.5015551405111967,0.067968611895945
7.1733080000000005,3.49570610431032,0.0678615208908704
7.177275999999999,3.4823471584095445,0.0678356828072597
7.181239999999999,3.4747036884586446,0.0677388335029583
7.185207999999999,3.4717677526826742,0.0675907381385287
7.189168,3.467934600031692,0.0674479753726023
7.19314,3.460291130080792,0.0673499491865119
7.197111999999999,3.4498452846049217,0.0672791156065183
7.201139999999999,3.4413045977790104,0.0671856483123046
7.205104,3.4375821700279623,0.0670307733006874
7.209052,3.4365513929019498,0.0668624951941217
7.213016,3.4375364993258306,0.066660547578025
7.216991999999999,3.441545431074552,0.0664079708514609
7.221012,3.4455543628232723,0.0661553941248969
7.225044,3.454160103846987,0.0658669406097978
7.229072,3.4581690355957084,0.0656134088308085
7.233048,3.4640831259943883,0.0653377253439686
7.237024,3.47694208391776,0.0649538820415157
7.241047999999999,3.485093507666203,0.0646129154510152
7.245016,3.49313420651471,0.0642875715574963
7.248991999999999,3.498261804938313,0.0640010521016069
7.252955999999999,3.5024921864869034,0.0637186688299408
7.256871999999999,3.51265949378524,0.0633436526042281
7.260876,3.5150954415838074,0.0630673998258721
7.264904,3.5120373632323685,0.062829968868654
7.268908,3.509876501755941,0.0625888579114132
7.272883999999999,3.511415232679497,0.0623186022277368
7.276828,3.5141833551778685,0.0620064971115937
7.280792,3.5131411603763234,0.0617372136398984
7.284839999999999,3.5150120659996835,0.0614358689427748
7.288755999999999,3.51250761214792,0.0611417941599557
7.292752,3.510900375171168,0.0608464656508727
7.296796,3.507055804844651,0.0606059902497834
7.300796,3.5035434092179405,0.0603293980334324
7.304796,3.4982365798412056,0.0600604314699628
7.308847999999999,3.4975265597394647,0.0597629580728587
7.312908,3.4965950898378546,0.0594894533310217
7.316955999999999,3.493315561686546,0.0592826035585236
7.321007999999999,3.494743567710166,0.0590339433865521
7.325051999999999,3.492471981333805,0.05880844705397
7.329044,3.4898682202576383,0.0586172496505872
7.333088,3.489169617831431,0.0584076723010115
7.337132,3.488360290505288,0.0582114174475159
7.341175999999999,3.4915827302789326,0.0579526506771968
7.345227999999999,3.496267429102796,0.0577217383870729
7.349216,3.4999441861517124,0.0575069944610809
7.353211999999999,3.5018265094506056,0.0572996225877945
7.357263999999999,3.504273874924705,0.0571268409997427
7.361303999999999,3.507839907073687,0.0569268145499796
7.365304,3.5066984050477403,0.0567660403831665
7.369171999999999,3.506232670096934,0.0566257607938264
7.37312,3.5047589933711825,0.0565010282200178
7.37712,3.508435750420099,0.056294706375602
7.381143999999999,3.511669607869276,0.0561361947028777
7.385064,3.517595115943488,0.0559729489218934
7.389108,3.5216154653677414,0.0558266167018434
7.393112,3.5285489152169007,0.0556527324684945
7.397112,3.535703814865929,0.055455674426783
7.401083999999999,3.5446531482649823,0.0552564481544636
7.405084,3.5581992909390285,0.05503605042878
7.409084,3.5727533753880216,0.0547985936920142
7.412996,3.58719673493708,0.0545756722737933
7.416959999999999,3.602315861561281,0.054376804960585
7.420928,3.6209131307855937,0.0541862754978172
7.424951999999999,3.6425342253347472,0.0539564201533519
7.428979999999999,3.663479552808758,0.0537063489901699
7.433,3.682741171432681,0.0534489099288403
7.436968,3.700319081206513,0.0531839639477642
7.440996,3.7196914247303696,0.05291996928194
7.444967999999999,3.7388423184543575,0.0526772486903484
7.448995999999999,3.759787645928368,0.0524315474770945
7.452976,3.7798357565273673,0.0521893873746132
7.456999999999999,3.7917096080268577,0.052060575629739
7.460948,3.803804909326218,0.0519091929477147
7.464971999999999,3.813208560000543,0.0517636879875777
7.468968,3.823730877349749,0.0515957044775023
7.472996,3.8325694858488673,0.0514223535577506
7.477019999999999,3.8412973694480494,0.0512603073599212
7.481055999999999,3.850135977947168,0.0510898921681202
7.485083999999999,3.8562829358212496,0.0509231333349417
7.48906,3.86758032747,0.0506901905140574
7.493091999999999,3.879774935993762,0.0504589556958482
7.497119999999999,3.886475518367519,0.0502413907653533
7.501139999999999,3.888690016366216,0.0500292235660003
7.505172,3.88933153041476,0.0497985665783271
7.509088,3.891656753313392,0.0495776932914484
7.513052,3.897349393912202,0.049376292006133
7.51708,3.904836468261036,0.0491744970273149
7.521112,3.9064973417600575,0.0490163631375158
7.525136,3.908379665058952,0.0488363141206682
7.529164,3.912499321707608,0.0486158294849163
7.533163999999999,3.914713819706305,0.0484055768511909
7.5372,3.920173592829712,0.0481381455871554
7.541195999999999,3.9267520326280008,0.0478507492473238
7.54522,3.928733663151296,0.0475722071425316
7.549248,3.927912918149621,0.0473046328457111
