Time,Force,Position
10.75808,10.081181537024978,0.124569720056837
10.762132,10.07928434419516,0.1242933903598081
10.766236000000005,10.075481992715378,0.1240355671741665
10.770336,10.077395117185477,0.1237235367880423
10.774432,10.084470093105775,0.1233814800103458
10.778532000000002,10.087181127226485,0.1231008070071763
10.782632,10.096848446547416,0.1227774330999088
10.786728,10.107302257843427,0.1224516667968311
10.790832000000002,10.119661227789395,0.1221097000419109
10.794928000000002,10.136506282110425,0.1217356821649881
10.79898,10.155035045281537,0.1213543884848899
10.80308,10.174350300427728,0.1209719042810776
10.807176000000002,10.198262364848912,0.1205530212268952
10.811276,10.225874021670084,0.1201049060258239
10.81538,10.252477736716305,0.1196682780518776
10.819424,10.28155165258769,0.1192252766063532
10.823520000000002,10.316341044408956,0.1187311872029974
10.827560000000002,10.350343944255142,0.1182407232373149
10.831612,10.378742093051388,0.1177971515955084
10.835708,10.404670041022468,0.1173635432457272
10.8398,10.429811497018472,0.116934085345582
10.8439,10.453490693964255,0.1165061265602669
10.847952,10.47716989091004,0.1160780698268321
10.852052,10.494236395030937,0.115707582156175
10.856088,10.50714898947658,0.1153539918281351
10.860176000000004,10.522741816871726,0.1149520013634857
10.864232,10.532497025741527,0.1145736964343637
10.868284000000004,10.547291943486062,0.1141451889102222
10.872320000000002,10.558952311005822,0.1137537142173279
10.876296,10.567810303000613,0.1133849739432749
10.880396,10.575881803020325,0.1130181903528644
10.884476,10.586977128364875,0.1126226560624198
10.888512000000002,10.597396686634289,0.1122255943485684
10.892536,10.608713461778713,0.1118257285782305
10.896572000000004,10.624848495997997,0.1113872805746442
10.900656,10.639521271167062,0.1109487969860743
10.904748,10.650715903736018,0.1105286519355926
10.908832,10.661910536304973,0.1101092232305116
10.912916000000005,10.681733745248708,0.1096223001890652
10.916892,10.704137879917544,0.1091250787500938
10.920936,10.72474758083636,0.1086392176216881
10.924968,10.74334139820528,0.1081736740317754
10.929068,10.762267390274,0.1076950258704005
10.933104,10.785335874342447,0.1071743257129492
10.937208000000002,10.809080125486034,0.1066570323848724
10.941204000000004,10.829357651705042,0.1061864999395532
10.9453,10.854686304474315,0.1057007114539615
10.949384000000002,10.877101856818683,0.1052426865890282
10.953412,10.901533292712944,0.1047670545152373
10.957456,10.927869887257168,0.1042784606176474
10.961512000000004,10.953419989826312,0.1037911569542654
10.965612,10.974041108420655,0.1033467009985025
10.969704,10.99544871899008,0.102904679342889
10.973764000000005,11.012370245184444,0.1024872632542603
10.977796,11.023908470128736,0.1020991417168021
10.981840000000002,11.032201419948318,0.1017463925065788
10.985884000000002,11.042288803517923,0.1013853256343118
10.989932,11.050471028437574,0.1010373879451135
10.993904,11.054732211157368,0.1007224643958837
10.997948,11.06000133565211,0.1004002027095042
11.002036,11.067507793496612,0.1000530381997387
11.006084,11.074117034466106,0.0997097348533555
11.010056000000002,11.083307201160702,0.099358908034113
11.014100000000004,11.091378701180414,0.0990218491026096
11.018188000000002,11.100679592774943,0.0986682801688104
11.022288,11.11053410886915,0.0982928251958365
11.026324000000002,11.118139873938055,0.0979146354163683
11.030424,11.122046046606982,0.0975568793875662
11.034468,11.123371293550807,0.0972072184019463
11.038552000000005,11.124131498319423,0.0968497335806435
11.042596,11.126575411938132,0.096488840588283
11.0467,11.133383267356429,0.0960835846683168
11.050728,11.136491530374744,0.0956986422531899
11.054828,11.142512893817962,0.0952939898941654
11.058860000000005,11.15032869101121,0.0948815974766977
11.062912,11.158698112704126,0.0944474469581461
11.066952,11.167067534397049,0.0940147942764052
11.070988,11.179579448089688,0.0935472725929787
11.075084,11.189288986257358,0.0930953047060059
11.07912,11.195409656924978,0.0926589010180357
11.083156000000002,11.199071544442967,0.0922551690006023
11.087208,11.205646532385863,0.091832547133408
11.091236000000002,11.21053781147867,0.0914144054782422
11.095280000000002,11.216215582546551,0.0909977010689173
11.099268000000002,11.223687787364462,0.0905754795391852
11.103292,11.235535351657491,0.090141256211003
11.107368,11.24514558260076,0.089730174542376
11.111448,11.25946334771896,0.0892944753747452
11.115528,11.274789054612102,0.0888512288100266
11.119572000000002,11.29090125348032,0.0884103917072821
11.123572,11.306337685273398,0.0879661631984785
11.127616,11.316512958391872,0.0875669618237516
11.131672000000002,11.329490607035318,0.0871544546716758
11.135772,11.34157103880375,0.086746503427661
11.139808000000002,11.352864978597106,0.0863382247403348
11.143792,11.366961293915432,0.085917373040585
11.147848,11.378365958608722,0.0855062253657163
11.151896,11.386857522877108,0.0851135110476625
11.155932,11.39657847872031,0.0847054838275863
11.160024,11.406975201638652,0.0843020032899026
11.164124,11.419498533006829,0.0838812166023356
11.168104,11.432586906550206,0.0834712672075289
11.172148,11.446240322268793,0.083071429410805
11.176172,11.460115187787247,0.0826652678060758
11.180224000000004,11.471076952880802,0.082276546239381
11.184272,11.48226016777422,0.0818828958091166
11.188368,11.496356483092548,0.0814736245282797
11.192396000000002,11.506310306411152,0.0810951218221255
11.196492000000005,11.517615663880042,0.0807274154555055
11.200536,11.527691629774116,0.0803749175151333
11.204616,11.53664892899331,0.0800331250521053
11.208704,11.5505352121873,0.0796632494232383
11.212732000000004,11.5627377865312,0.0792954759020543
11.216824000000004,11.570011376900302,0.0789548412918173
11.220908,11.578071459244486,0.0786159279157439
11.225012,11.583107716263823,0.0782963386013359
11.229104,11.589938407033188,0.0779718410374451
11.233204,11.597334139977756,0.0776567197005682
11.23724,11.605516364897404,0.0773434160503981
11.24134,11.616943864941762,0.0770047914943181
11.245440000000002,11.62579043926102,0.0766697416635544
11.249472,11.626672786605104,0.076350585856647
11.253532,11.626203599798906,0.0760209497599864
11.25758,11.621924095692789,0.0757077334933458
11.261676,11.618763258261556,0.0753845666609513
11.265656,11.60999766978038,0.0750823202163824
11.269712000000002,11.600556314224065,0.0747747995085909
11.273744,11.594692408492262,0.074430285570545
11.277784,11.585793259760084,0.0740746661721787
11.281832,11.578344952402594,0.0736983428179601
11.285876000000002,11.56910221129508,0.0733250522297974
11.289972000000002,11.56097813686245,0.0729436785894854
11.294016000000004,11.553640554404897,0.0725639669694061
11.298112,11.555939490097067,0.0721426969572754
11.302208,11.559135642664256,0.0717203506256202
11.306236000000002,11.56793654628138,0.0712806166306436
11.310336,11.574721566348613,0.070851875984296
11.314336,11.58273597799066,0.0704110411677789
11.318368,11.588955955882687,0.0699737213111354
11.322464,11.593049325324882,0.0695524833176329
11.326440000000002,11.597818461842222,0.0691365204645576
11.330476,11.610994724934471,0.0686931794841299
11.334500000000002,11.624060263126786,0.0682539361028772
11.338556,11.638133743094048,0.0678082876095322
11.342616,11.651199281286363,0.0673685747149626
11.346600000000002,11.667853686978724,0.0669226481340516
11.350652,11.682492209121191,0.0664876932224451
11.35474,11.69579061478891,0.0660706768219547
11.358832,11.711559221281792,0.065656617909612
11.362928,11.720272235350048,0.0652779344282356
11.367024,11.734700725368183,0.0648802546959459
11.371068,11.744986723386594,0.0645081976326875
11.375164000000002,11.755948488480144,0.0641429980176847
11.379256000000002,11.761084052723886,0.0638023813896998
11.383288,11.76341724144266,0.0634694731456328
11.387376,11.760145679111492,0.0631523108451785
11.391360000000002,11.761127333679976,0.0628086345978003
11.395452000000002,11.760990321573583,0.0624740351696828
11.399540000000002,11.7643314520673,0.0621386785284696
11.403628,11.764759482136112,0.0618135883642972
11.407656,11.766306178879804,0.0614801929513249
11.411636,11.766734208948618,0.0611562973372855
11.415672,11.768735222967589,0.0608378191517231
11.41976,11.771522728961628,0.0605215064138608
11.423844000000004,11.775207451830685,0.0602043259297171
11.427936000000004,11.774295365424743,0.0598953113220984
11.431964,11.773272554118872,0.0595892033644144
11.436040000000002,11.772249742812996,0.0592833520196371
11.440128,11.774029307032093,0.0589721851261229
11.444208,11.783540230750956,0.0586352213466944
11.448288000000002,11.790138054044917,0.0583094850663164
11.452368,11.79213906806388,0.057990054708453
11.456448000000002,11.79559092345753,0.0576530525131993
11.460532,11.799153503751116,0.057312334261037
11.464616,11.804399792894792,0.0569734276864027
11.468644,11.81166196558836,0.05662582712058
11.472684,11.815568138257284,0.0563026865587409
11.476780000000002,11.81779060207612,0.0559772387508496
11.480884,11.8184400819448,0.0556468666903707
11.48498,11.825702254638369,0.0553019753055875
11.488964000000005,11.830837818882111,0.054968896209821
11.493052000000002,11.834178949375824,0.0546374475014434
11.497084,11.835947095919389,0.0543004546667291
11.501124,11.838833909137833,0.0539559901349917
11.505224000000002,11.844523097881249,0.0536077520015933
11.509320000000002,11.85380115412471,0.053256926894504
11.513412000000002,11.863976427243186,0.0529053152405015
11.517508,11.872246541711704,0.0525581280283004
11.521544000000002,11.873006746480325,0.0522247840197862
11.525592,11.871972517498918,0.0518930993442554
11.529644,11.867017246317658,0.0515725804912913
11.533736,11.867888175986211,0.0512345887023672
11.537788000000004,11.8590118626051,0.050923282897825
11.541832,11.848008940774164,0.0506222698375707
11.545864000000002,11.836440976768015,0.0503106519191618
11.549904000000002,11.81904681191206,0.0500132840906511
11.553956,11.797953054656125,0.0497189625591949
11.558056,11.774843413850292,0.0494305884419015
