Time,Force,Position
8.317023999999998,10.522167831361443,0.1335312362643665
8.321119999999999,10.4727489453272,0.1334296025470953
8.32522,10.428503328418694,0.1333248862449325
8.329319999999997,10.39267625576063,0.1331722265894023
8.333415999999998,10.359097934127863,0.133016043105989
8.337515999999999,10.331467955920376,0.1328223976831684
8.341616,10.301489919463188,0.1326668232890393
8.345711999999997,10.27297414205622,0.1325103231574469
8.349807999999998,10.252422591624423,0.132291796302397
8.353907999999999,10.239735960943396,0.1320482870486801
8.358004,10.232444049187974,0.1317917698447283
8.362104,10.231444073233169,0.1315160806021785
8.366199999999997,10.234720149529082,0.131246239159999
8.370303999999999,10.24495251102522,0.1309307424679099
8.374404,10.258109390621795,0.1306146010202914
8.378499999999997,10.27441223811868,0.1302891170754916
8.382599999999998,10.293861053515872,0.1299532576247448
8.3867,10.3182502705634,0.1295938137389005
8.3908,10.348920005736003,0.1291864263691559
8.394899999999998,10.379711883484084,0.1288038919028553
8.398943999999998,10.407147761207517,0.1284728850088784
8.403044,10.432346305581182,0.1281790921606744
8.407095999999997,10.462030934329908,0.1278515638126026
8.41108,10.498438980803456,0.1274603358414911
8.415131999999998,10.539665286351868,0.1270252709398217
8.419227999999999,10.57920788305019,0.1266013865010503
8.423324,10.621663580173418,0.1261481407755656
8.427372,10.66781886969663,0.1256664023760542
8.431419999999997,10.70893445034511,0.1252449890767758
8.435463999999998,10.744888179543386,0.1248553809613958
8.439444,10.781174083441469,0.1244535095065241
8.443527999999999,10.815211236314251,0.1240564862720169
8.447615999999998,10.845426654211588,0.1236662101254409
8.451696,10.868575062008766,0.1233251233796846
8.455736,10.896419586305337,0.1229162678244271
8.459763999999998,10.92560422707666,0.1224855197365004
8.46384,10.95713692609768,0.122021723355397
8.467927999999999,10.988215307843427,0.1215487462584681
8.472007999999997,11.015815546989062,0.1210991662499733
8.47604,11.049574161684314,0.1205842723907807
8.480127999999999,11.086123734229002,0.1200186443218232
8.484156,11.120313830848458,0.1194595154305371
8.488248,11.153263118217568,0.118894219173397
8.492303999999999,11.177240236836557,0.11838980943269
8.496335999999998,11.194150345355387,0.1179292847783288
8.500368,11.210606136598946,0.1174575754893317
8.504451999999999,11.2268290603671,0.1169670820975522
8.508487999999998,11.238898074460002,0.116493009337793
8.512583999999999,11.252417929927589,0.1159918768884264
8.516643999999998,11.26738862676986,0.1154629658952785
8.520735999999998,11.279999847686906,0.1149379991775686
8.524831999999998,11.287227767353876,0.1144450468883907
8.528927999999999,11.295574353695727,0.1139384406390334
8.532963999999998,11.306047548487411,0.1134079584454667
8.536999999999997,11.313607642854189,0.1129059069993965
8.541032,11.316903102645774,0.1124221111732027
8.545067999999999,11.317949811412063,0.11193801396782
8.549107999999999,11.314731885603168,0.1114706891579943
8.553204,11.309940975844114,0.1110047711444361
8.557235999999998,11.300885431509872,0.1105570970456784
8.561268,11.289814003625736,0.1101280954034641
8.565315999999997,11.280869184191433,0.1096764404747864
8.569424,11.268224772357142,0.1092482383814025
8.573527999999998,11.256588302297798,0.1088087731818746
8.577567999999998,11.247643482863491,0.1083536460866488
8.581663999999998,11.240493097179208,0.1078889437288299
8.585755999999998,11.234694245645208,0.10743250793749
8.589847999999998,11.228563219411404,0.1069876778411286
8.593928,11.2224321931776,0.1065430958764427
8.597975999999997,11.218882092668895,0.1060892749269011
8.602071999999998,11.220039526335125,0.10560472328339
8.606115999999998,11.228485419901377,0.1050789564012339
8.610207999999998,11.2368205885677,0.1045584486847553
8.614303999999999,11.243139873684123,0.1040554423185205
8.618395999999999,11.2455381166007,0.1035829057209362
8.622492,11.250517285242376,0.1031007155954176
8.626584,11.256847988034336,0.1026272932826232
8.630635999999997,11.268451267176436,0.1021318459521605
8.634679999999998,11.28151680536875,0.1016403093428483
8.638671999999998,11.2923450102113,0.1011735343640754
8.642715999999998,11.305864865678886,0.1006953296883426
8.646747999999997,11.31736883759658,0.1002352415558398
8.650803999999999,11.334145385864412,0.0997550590516515
8.654835999999998,11.354178626932484,0.0992706558930779
8.658883999999999,11.372195984450665,0.0988031372259086
8.66298,11.38797600861908,0.0983614907328296
8.667076,11.400167165287446,0.097937170097839
8.671111999999999,11.416168639255732,0.0974893023293325
8.675143999999998,11.431162171449069,0.0970502608303842
8.679231999999997,11.44425054499245,0.0966250861617197
8.683316,11.453307151436045,0.096233624547715
8.687347999999998,11.45855344057972,0.0958670540962753
8.691391999999999,11.464364771898603,0.0955096081583515
8.695427999999998,11.47275702894259,0.0951450469447089
8.69946,11.488659195686475,0.0947398218933436
8.703555999999997,11.505126404605567,0.0943441717639227
8.707583999999999,11.521593613524658,0.0939501924550017
8.711675999999999,11.53593421399392,0.0935769822523311
8.71572,11.549488322488106,0.0932038039867265
8.71982,11.567417790457414,0.0928170040215007
8.723795999999998,11.582544882901754,0.0924461999761772
8.727872,11.599244959296248,0.0920772142766457
8.731927999999998,11.614261326840648,0.0917134957078025
8.736015999999998,11.630617810859809,0.0913324980408903
8.740072,11.649998120203804,0.0909303236009875
8.744107999999999,11.669599879347668,0.0905203971179575
8.748139999999998,11.692004014016502,0.0900973986173965
8.752235999999998,11.70869267273546,0.0897061581199205
8.756336,11.725159881654552,0.0893228069255417
8.760375999999999,11.744429466098614,0.0889279131343355
8.764435999999998,11.761904616792648,0.0885388374211506
8.768468,11.783190084786606,0.0881309225404529
8.772515999999998,11.80301329373034,0.0877186102524407
8.776603999999997,11.820034127149103,0.0873199214303182
8.78064,11.828537109093022,0.0869657685723031
8.784687999999997,11.83445916531184,0.0866170654137378
8.788668,11.840270496630724,0.0862732539688184
8.792699999999998,11.845406060874463,0.0859248639728906
8.796676,11.854241217518185,0.0855618996719053
8.80072,11.861614115111692,0.0851944445588683
8.804812,11.87078144645522,0.0848217929126136
8.808904,11.879051560923736,0.0844528194828637
8.812992,11.885416516742293,0.0840939712780006
8.817084,11.890662805885968,0.0837469718362389
8.821176,11.89456897855489,0.0834185825802614
8.825272,11.902285468523734,0.0830729173022019
8.829367999999997,11.90877256691776,0.0827419578211474
8.833459999999997,11.924674733661645,0.0823708055265306
8.837555999999998,11.942703508855356,0.0819839938838837
8.841647999999998,11.955914024974204,0.0816223619545191
8.845739999999997,11.9727134085931,0.0812505162107692
8.849835999999998,11.984018766061991,0.0808984531666675
8.853883999999999,11.99700783238097,0.0805458702762112
8.85798,12.013131448924725,0.0801715072641702
8.862079999999997,12.0310494992185,0.0797908423538436
8.866175999999998,12.051880649937182,0.0793960007418245
8.870267999999998,12.069909425130891,0.0790125169099949
8.874359999999998,12.09085130074951,0.0786158801014457
8.878388,12.107982859068208,0.0782376974980328
8.882443999999998,12.125790184462051,0.0778657514799596
8.886548,12.139787192555977,0.0775104410727501
8.890547999999997,12.151879041999944,0.0771633208807445
8.894575999999999,12.166662542068948,0.076810425070391
8.898676,12.17864366661298,0.0764682795688518
8.902716,12.190624791157012,0.0761265401590202
8.906771999999998,12.198684873501191,0.0758057185859767
8.910879999999997,12.205958463870298,0.0754835166595958
8.914975999999998,12.205611419639569,0.0751942007856953
8.919023999999999,12.205264375408834,0.0749056119819871
8.923115999999998,12.204130839203025,0.0746145673182484
8.927216,12.201424319047064,0.0743205667736812
8.931299999999998,12.201298724616205,0.0740236846754628
8.935391999999998,12.196465596010412,0.0737436066791215
8.939444,12.192308234479762,0.0734695266538938
8.943495999999998,12.190166756499009,0.073184055539735
8.947591999999998,12.187803828718382,0.0729063938947283
8.951623999999997,12.18655956761264,0.0726191784095732
8.955732,12.182402206081992,0.0723451869780539
8.959819999999999,12.181047220076314,0.0720624431717987
8.963864,12.17722203324547,0.0717779502488555
8.967895999999998,12.178104380589556,0.071477309523497
8.971987999999998,12.18301849503343,0.0711556602331517
8.976083999999998,12.183900842377517,0.0708554957875438
8.980184,12.186466898571693,0.0705552190155956
8.98428,12.189365129465669,0.0702445644725428
8.988324,12.192263360359645,0.0699337387068892
8.992416,12.197177474803516,0.0696128550233453
8.996511999999997,12.20321025592227,0.0692828307879577
9.000548,12.20812437036614,0.0689622427781017
9.004651999999998,12.21595158523492,0.068629485702827
9.0087,12.225351784053847,0.0683012227632419
9.012724,12.23587064954766,0.067965169450744
9.016767999999995,12.250089107441456,0.0676188560201833
9.020811999999998,12.259710756060258,0.0672839810149892
9.024864,12.271126838429083,0.0669472573442275
9.028964,12.2819778786227,0.0666023670557848
9.033067999999998,12.292939643716254,0.0662541134644783
9.037168,12.304798625684816,0.0659048317240985
9.041271999999998,12.314863173903358,0.0655594539144114
9.045272,12.326611430971983,0.065215043792645
9.049372,12.33656525429059,0.0648744059949285
9.053471999999998,12.3415900936344,0.0645544193320098
9.057567999999998,12.34828722415276,0.0642084321642987
9.061624,12.356435196045812,0.0638446331236116
9.065732,12.3626780092889,0.0634867800642227
9.069839999999996,12.369142272331862,0.0631219396180115
9.073944,12.3738121016248,0.0627600023079183
9.077995999999995,12.380608539367566,0.06238605177292
9.0821,12.388634368685148,0.0620015193050164
9.086207999999996,12.396770922902665,0.0616142807493144
9.090255999999998,12.402548001194948,0.0612201332279435
9.094352,12.406419920837276,0.060831965777505
9.098455999999995,12.413426390704377,0.0604286474524615
9.102551999999998,12.42144080234642,0.0600199746883721
9.106656,12.426985013163304,0.059608206810295
9.110704,12.428497456880397,0.0592129802655208
9.114807999999998,12.431915059247448,0.0588131451787319
9.118856,12.434435444739488,0.0584143003157791
9.122896,12.436390788056324,0.0580063122823703
9.126996,12.443164390448018,0.0575863818655852
9.131095999999998,12.446459850239606,0.0571654103618177
9.135148,12.453111310055837,0.056721633210909
9.139183999999998,12.460549261847142,0.0562810969005803
9.14328,12.465971330088555,0.0558494135274833
9.147376,12.47161484812984,0.0554103661380072
9.151424,12.47815558304614,0.0549710648699321
9.155523999999998,12.487387968587468,0.0545310909822327
9.15962,12.491691370153998,0.0541070032508076
9.163664,12.489382078895645,0.0536955313282996
9.167699999999998,12.486962062737351,0.0532878104036514
9.1718,12.484099146979323,0.0528926532729215
9.175896,12.477425913921378,0.0525044641226218
9.179992,12.462234829388583,0.0521327105098711
9.184084,12.447830236830873,0.0517630824068254
9.188179999999996,12.430401818948312,0.0514032504374126
9.192279999999998,12.41510000951559,0.0510309015193249
9.196324,12.395877157883014,0.050669299456028
9.200424,12.370828105400625,0.0503208448666349
9.204468,12.339731402268557,0.0499920996236298
9.208563999999996,12.295520038386645,0.049682216331094
