Time,Force,Position
6.322448,7.2545357893187745,0.1477641673117476
6.326444,7.366828362657042,0.1471653056929988
6.330432,7.469748086492189,0.1464544345496834
6.334396,7.554212067174163,0.145778430658224
6.338448,7.617761521553333,0.1451997894457119
6.342412,7.681353194779237,0.1443693037240161
6.346451999999999,7.731219494377964,0.1435790775657561
6.350508,7.76726111312511,0.1428595867991609
6.354555999999999,7.794208420546668,0.1422222774859407
6.358604,7.820479960893085,0.1415854341244846
6.36266,7.844181993189935,0.1410172782600627
6.366712,7.87293515203705,0.1404014594126598
6.370707999999999,7.9020204855839715,0.1397740846723751
6.374763999999999,7.930640084180088,0.1390950010827229
6.378736,7.948813837300333,0.1384887202232859
6.382783999999999,7.955312353369891,0.1379806166088818
6.386832,7.956083975814042,0.1375153930463711
6.390879999999999,7.9572984978579315,0.1370238288437698
6.394919999999999,7.962323337201739,0.136476931999674
6.398963999999999,7.9670160018457405,0.1359493717412874
6.403012,7.967222582114684,0.1354705204505458
6.40706,7.970342262808533,0.1349490877972665
6.411099999999999,7.9662842085022865,0.1345101866613379
6.415063999999999,7.963898445370598,0.1340180123971682
6.419115999999999,7.962852798713659,0.1334900226355814
6.423164,7.94678733265692,0.1331586519284476
6.427211999999999,7.929492475025366,0.1328549925872519
6.431267999999999,7.918588860418831,0.1324757193474583
6.435316,7.912957822162431,0.1320441861817328
6.439368,7.908002550981172,0.131615586240346
6.443372,7.903944496674926,0.1311753839274685
6.447431999999999,7.901115833943496,0.1307083174507354
6.451488,7.893801086837008,0.1302888678790284
6.455487999999999,7.877968488255673,0.129977551529628
6.459536,7.862025164774403,0.1296710447754943
6.463528,7.850567925668192,0.1293154722026878
6.467571999999999,7.839908596212592,0.1289979540300046
6.471612,7.828019875182174,0.1287081615688348
6.475664,7.819055672252194,0.1284195999153468
6.479707999999999,7.812672395047316,0.1281095933083882
6.483751999999999,7.812348186167653,0.1277463719323507
6.487796,7.808102935088134,0.1274395616540435
6.49184,7.809462435058558,0.1270648181376335
6.495892,7.805228601654575,0.1267995401096303
6.499884,7.802346302400874,0.1265419590369209
6.503936,7.811017097622392,0.1261726259487473
6.507932,7.820252935019117,0.1258133364721114
6.511944,7.826919264366277,0.1255179968785939
6.515939999999999,7.8293323768137775,0.125296482853344
6.519983999999999,7.833994240286576,0.1250747483727694
6.523952,7.843928680109508,0.1248078474345375
6.527996,7.848712686157775,0.124622115329976
6.532043999999999,7.855966893031205,0.1244229818631502
6.536092,7.870509559804664,0.1241458967064522
6.540139999999999,7.890435527828196,0.1238174101588125
6.544155999999999,7.910029321151922,0.1235087359571098
6.548147999999999,7.930066014075389,0.123175004286652
6.55214,7.953359399799097,0.1228260165503018
6.556168,7.973174642922695,0.1225083237291775
6.5602,7.9891795687463745,0.1222379307851477
6.564167999999999,8.005405944369922,0.1219577289031591
6.568168,8.02353747864343,0.1216540178993286
6.572212,8.036629304042204,0.1214241202858723
6.576176,8.052855679665754,0.121142959629894
6.580143999999999,8.062912262064156,0.1209138560736803
6.584196,8.06489389258745,0.120761574858208
6.588236,8.067772739985758,0.1206012302552021
6.5922,8.071880978958879,0.1204144800991324
6.596188,8.081028926806736,0.1201562142199377
6.600223999999999,8.082777689854629,0.1199757534215718
6.604251999999999,8.07723799300249,0.1198675894702324
6.608228,8.077524497000164,0.1196854080956498
6.612219999999999,8.074897900572932,0.119540045159006
6.616244,8.074287187695592,0.1193668042378152
6.620239999999999,8.07098482419322,0.1192182422991345
6.62426,8.069809069140673,0.1190359198564078
6.628276,8.068965488787931,0.1188355961438138
6.63224,8.066659649384972,0.1186333381725405
6.636232,8.063899492706739,0.1184146837894237
6.6402,8.064273886253282,0.1181486060303932
6.644192,8.062178078974657,0.117894147315232
6.648164,8.059406504620892,0.1176352016934999
6.652211999999999,8.058196496541749,0.1173318599372371
6.656179999999999,8.059223821812367,0.1169904016048157
6.660207999999999,8.06574517323299,0.116596110535503
6.664199999999999,8.077084783728479,0.1161462336313822
6.668224,8.089088743623577,0.1156629025939675
6.672219999999999,8.102997862168635,0.1151625513597978
6.676207999999999,8.114215330088653,0.1146873008428551
6.680168,8.133385607308314,0.1141122251367022
6.684199999999999,8.159279302252795,0.1134633500338451
6.68826,8.181473404797293,0.1128527762108978
6.692188,8.20511834871648,0.112204199270833
6.696211999999999,8.224055758460738,0.1116053476322204
6.700244,8.241985226430048,0.1110197064425862
6.70424,8.258230985549266,0.1104456102223707
6.708235999999999,8.273136628193738,0.1099022047214824
6.712208,8.287145053963197,0.1093660666843819
6.716172,8.301386347208057,0.108858374746675
6.720172,8.3143982488781,0.1083767938468611
6.724224,8.328085917623286,0.1079006803727874
6.728256,8.346259670743532,0.1073943459865495
6.732256,8.36600640781393,0.1068878487051018
6.736231999999999,8.382618594659554,0.1064263214101267
6.74028,8.399341506405113,0.1059615529859645
6.744256,8.413151317725767,0.1055294106013018
6.748287999999999,8.421699970371815,0.1051684973495077
6.752331999999999,8.42755697239283,0.1048286240539967
6.7563,8.433192524613974,0.1045005900158661
6.760259999999999,8.437709410160238,0.104192648510221
6.764279999999999,8.43942392018153,0.1039099987206986
6.768276,8.441249155102758,0.103621477297271
6.7723,8.44677398242397,0.1033050517524567
6.776299999999999,8.456330576844968,0.1029437277661768
6.780296,8.468800271690869,0.1025550836580659
6.784295999999999,8.481724283812042,0.1021840528347342
6.788344,8.497782846157989,0.1017752119970643
6.792392,8.515857292053832,0.1013453549361912
6.796443999999999,8.534596087349286,0.1008836169132047
6.800431999999999,8.55254839066966,0.1004222704698846
6.804475999999999,8.57341379441494,0.0999366968720991
6.808468,8.587998680035136,0.0994913543749878
6.812427999999999,8.603702232330214,0.0990327004342786
6.816471999999999,8.622429609950132,0.0985436585975518
6.820432,8.642275654244935,0.0980423240477359
6.824487999999999,8.663018915414748,0.097536290498562
6.828455999999999,8.689809827234242,0.0969669184963132
6.832507999999999,8.716600739053735,0.0963994454746444
6.83648,8.743834550472968,0.0958124932460483
6.840456,8.766471552617208,0.0952570237613045
6.844448,8.790116496536395,0.0946938389074287
6.84844,8.813761440455579,0.0941309521649983
6.852468,8.83449328394986,0.0935974701755661
6.856515999999999,8.855114402544205,0.0930739641988644
6.860479999999999,8.874949029163474,0.0925535107789559
6.864476,8.894329338507468,0.0920185740191158
6.86842,8.91079654742656,0.091509769294806
6.872404,8.92636653947064,0.0910076402194502
6.876451999999999,8.940707139939901,0.0905262330326689
6.880452,8.957850115934132,0.0900280481677339
6.884499999999999,8.973087933278407,0.0895473608727746
6.888551999999999,8.990906676347782,0.0890582695296304
6.892543999999999,9.00793892744208,0.0885717921778913
6.896547999999999,9.02497117853638,0.0880891165673634
6.900535999999999,9.038979604305837,0.0876356812499706
6.904527999999999,9.05198008830035,0.0871914767137574
6.908448,9.062853963845033,0.0867723891021986
6.912443999999999,9.071822680739755,0.0863660639768612
6.916475999999999,9.082364381584636,0.0859638458834775
6.92052,9.092684632629645,0.0855694362177525
6.924439999999999,9.101886216999771,0.0851901653223213
6.928464,9.112992960019856,0.0847991733188362
6.93238,9.12488619501502,0.0844106009092196
6.936404,9.131063954060307,0.0840592827264117
6.940451999999999,9.13824965488054,0.0837013157706754
6.944428,9.14622184767585,0.0833458150178
6.948395999999999,9.15609919912112,0.0829788725433856
6.952387999999999,9.165865825666456,0.0826177275722761
6.956439999999999,9.181347928161667,0.0822236972649654
6.960495999999999,9.19525704670672,0.0818288582514683
6.964419999999999,9.206474514626745,0.081444570844736
6.968387999999999,9.21869992432171,0.0810532854002701
6.972432,9.22969594244186,0.0806811632816372
6.976436,9.235984426387082,0.0803351515053073
6.980483999999999,9.243280852107253,0.0799813000705742
6.984527999999999,9.250233685452082,0.0796060673326205
6.988524,9.25751869349672,0.079217105819859
6.992571999999999,9.264914426441289,0.0788222949357938
6.996563999999999,9.26961850876082,0.0784377173919615
7.00056,9.281378183504984,0.0779995625842861
7.004536,9.29347003294895,0.077548047335603
7.008595999999999,9.302538057068077,0.0771200182915256
7.012639999999999,9.307230721712076,0.0767010700801274
7.01662,9.318536079180966,0.0762477112740255
7.020664,9.323118018925031,0.0758329936015012
7.024708,9.323324599193976,0.0754269761801762
7.02868,9.321060978637751,0.0750197832392054
7.032731999999999,9.317900141206517,0.0746152327993808
7.03678,9.3035298016754,0.0742617527809438
7.04078,9.287143578594389,0.0739222412240485
7.044824,9.270757355513378,0.0735812332827468
7.048876,9.252011656507136,0.0732328291389267
7.052928,9.232590190425752,0.0728766617005509
7.056972,9.213057999444434,0.0725232393090822
7.061028,9.190612708038213,0.0721858391592173
7.065076,9.170637617457151,0.0718494102946357
7.069132,9.150551801976158,0.0715170736259646
7.073184,9.134165578895148,0.0711698171853725
7.077244,9.116095646964048,0.0708208876113062
7.081303999999999,9.091191572408192,0.0705116777357624
7.085343999999999,9.06718471472735,0.0701993659528639
7.089395999999999,9.048217565921236,0.069851851569566
7.093447999999999,9.033847226390122,0.0694874096371945
7.097503999999999,9.01488007758401,0.0691382945040723
7.101552,8.999723246077815,0.0687691147000535
7.105547999999999,8.988044557171735,0.0683947680944643
7.109591999999999,8.978049577115744,0.0680202635456276
7.113584,8.96816532195969,0.0676402382902819
7.11758,8.966798918278482,0.0672214539761122
7.121623999999999,8.96632973147228,0.066799827895227
7.125676,8.966757761541093,0.0663754122986303
7.129676,8.969545267535135,0.0659598884283712
7.133676,8.97211132372931,0.0655536216570557
7.137672,8.97971708879822,0.0651145799283587
7.141672,8.993370504516808,0.0646372788704108
7.145719999999999,9.006015978460447,0.0641681250564072
7.14972,9.016756293754131,0.063707221675376
7.153708,9.024804958422775,0.0632527969165359
7.157755999999999,9.038236924341494,0.0627898806193283
7.161755999999999,9.054803440484989,0.062303239395003
7.16578,9.068235406403709,0.0618406775899271
7.169744,9.078754271897518,0.0613947638285327
7.173772,9.087478703641306,0.060952707046827
7.1778,9.09821901893499,0.0604986882704666
7.181863999999999,9.111761709753644,0.0600375545427515
7.185891999999999,9.12519367567236,0.0595819573185985
7.189864,9.13840419179121,0.0591366514421051
7.193887999999999,9.156211517185053,0.0586835354951299
7.19786,9.170208525278978,0.0582456021913673
7.201824,9.185999967122926,0.0578064734675561
7.205848,9.203807292516768,0.0573573839230538
7.209847999999999,9.221725342810544,0.0569059138055848
7.213844,9.24087278467914,0.0564405985959346
7.217867999999999,9.25609918434788,0.0559942581394983
7.22184,9.26819103379185,0.0555714555738838
7.225875999999999,9.278488449485792,0.0551503164290303
7.229903999999999,9.293271949554796,0.0547265090812664
7.233879999999999,9.308055449623795,0.054303083214174
7.237907999999999,9.314431823117886,0.0538991736585813
7.241935999999999,9.322270455662196,0.0535091162138782
7.245936,9.33044126290631,0.0531045911935956
7.24996,9.333793811075562,0.0527152603897498
7.25398,9.333114592145025,0.0523444907376617
7.258008,9.330198039864726,0.0519925795220972
7.262027999999999,9.31898508590945,0.0516528267511927
7.265991999999999,9.304293989354065,0.0513089760087648
7.270023999999999,9.28410886664867,0.0509702641065946
7.27402,9.252492792043526,0.0506625617696073
7.277991999999999,9.2197580507635,0.0503622871593821
7.282024,9.182315775308544,0.0500714638124577
