Time,Force,Position
8.08696,8.575846826797035,0.145034773660319
8.090988,8.62794594578078,0.1450214438675877
8.094964,8.660913554536211,0.1450044475300367
8.099008,8.680587271588669,0.1449385967851128
8.103104,8.684275446313118,0.1448539910153685
8.107199999999999,8.676364855860216,0.1447437042640072
8.111296,8.66046720308108,0.1446415794513321
8.115392,8.64243152417658,0.1445392025097551
8.119487999999999,8.628439030047401,0.1444101410018161
8.123584,8.61502299576896,0.1443265576690906
8.127676,8.611033447515911,0.1441559263789235
8.131772,8.608494740637548,0.1439448696862577
8.135868,8.612668033808474,0.1436008876789311
8.139911999999999,8.617051359103739,0.1432077143880896
8.144003999999999,8.613802632123637,0.1428822615318826
8.148056,8.603941212318645,0.1426447574873195
8.152152,8.596549993338819,0.1423897466112215
8.156255999999999,8.591186075584421,0.1421403184192534
8.160352,8.589643892805471,0.1418774882086096
8.164456,8.593152836576788,0.1415741781356382
8.168555999999999,8.599353430973142,0.1412422370670575
8.172611999999999,8.607902083619193,0.1408625376930365
8.176712,8.619474561590081,0.1404371290145996
8.180819999999999,8.62835538893594,0.1400427115733905
8.184868,8.642176617932126,0.1396170756054793
8.18896,8.661724740553721,0.1391557488625758
8.19306,8.67915767240102,0.1387685863144437
8.197104,8.70321471474874,0.1383373362632385
8.2012,8.728512566346808,0.1379177212443577
8.205252,8.763336211194673,0.1373795137529184
8.20928,8.794460263642552,0.1368880646527085
8.213376,8.82771092454026,0.136364224656609
8.217471999999999,8.858380659712866,0.1358671360125758
8.221568,8.888042453110527,0.1353866929375479
8.225603999999999,8.923087547758259,0.1348547756406913
8.229704,8.96071356813109,0.1343001718227843
8.2338,8.993521329429061,0.1338091853572964
8.2379,9.028344974276925,0.1332926331562514
8.241996,9.060022651224475,0.1327894015105397
8.246096,9.089230127346866,0.1323042338521712
8.2502,9.115856677744151,0.1318406718295787
8.25428,9.140578069491482,0.1314026738782814
8.258376,9.162607810613776,0.1309918779537498
8.262476,9.184637551736069,0.130582197382464
8.266575999999999,9.202402658283171,0.1302058522047352
8.27062,9.215792405355153,0.1298664987986528
8.27472,9.229846501826742,0.1294932490013446
8.278815999999999,9.2415411223731,0.1291310594164649
8.282919999999999,9.251773483869242,0.1287689818855541
8.28702,9.253598718790473,0.1284976331471025
8.291127999999999,9.254858911536491,0.1282178384521579
8.295224,9.253206003857606,0.1279733422636353
8.299324,9.248972170453625,0.12774709031753
8.303424,9.245746278824583,0.1275077205603136
8.307528,9.241623170320535,0.1272771992797338
8.31162,9.238729453391302,0.1270230165860678
8.315716,9.236954403136952,0.1267496880048242
8.319811999999999,9.230361093807735,0.126531028953396
8.323908,9.228143143953648,0.1262794907762074
8.328004,9.224917252324609,0.1260408443524295
8.332108,9.224715186020408,0.1257635937908874
8.336204,9.225410336591224,0.1254792569703325
8.340247999999999,9.225994762262102,0.1251999057770983
8.344348,9.221871653758052,0.1249680386900644
8.348443999999999,9.214724719929162,0.1247743475918485
8.35254,9.209372219850298,0.1245650344286057
8.356636,9.20379826997156,0.1243661949070565
8.360736,9.195311219667918,0.1242007680270778
8.364832,9.191642428439142,0.1239817173364134
8.368932,9.190776012735336,0.1237342141090646
8.373032,9.189798872131592,0.1234918138668956
8.37712,9.193639990602716,0.1231970916612719
8.381219999999999,9.200283484598808,0.1228750859134647
8.38532,9.20714842839477,0.1225437383752025
8.389324,9.211321721565696,0.1222349785087021
8.393419999999999,9.217400173386585,0.1219085179771805
8.397516,9.224265117182544,0.1215802378565333
8.401548,9.236059044953304,0.1211953716486938
8.405584,9.242248221674124,0.1208640016383986
8.40962,9.250453281944838,0.1205084362443811
8.413727999999999,9.256531733765724,0.1201840233384038
8.41776,9.261602243811662,0.1198725059997713
8.421856,9.27149101293246,0.1195125384802409
8.4259,9.291692067278134,0.1190578171548431
8.429996,9.320521697998588,0.1185178841287601
8.434092,9.350359270493987,0.117968310675146
8.438127999999999,9.383331393214162,0.1173805748017044
8.442224,9.41753290750915,0.1167699798656961
8.446308,9.445121728979256,0.116224293621651
8.450403999999999,9.474504984199385,0.1156682203708428
8.45438,9.50669061494448,0.1150898201074288
8.458408,9.535963145264672,0.114546508212918
8.462432,9.564792775985124,0.1140262233124256
8.466528,9.596424782230546,0.1134879541523141
8.470632,9.6281675133759,0.1129448257523603
8.474727999999999,9.65710786899629,0.112429227302391
8.478819999999999,9.688285557966442,0.1118845461951313
8.482908,9.718455305161644,0.1113548878737074
8.486956,9.753554036331646,0.1107762119113576
8.491052,9.787755550626638,0.1102061463351387
8.49514,9.823186456496444,0.109617801260465
8.499179999999999,9.85816304509098,0.1090167516669114
8.503264,9.88854282441052,0.1084538062354338
8.507356,9.912531360705042,0.1079405617692408
8.511436,9.93181236282464,0.1074693701887517
8.515524,9.95411719026907,0.1069717840166158
8.519563999999999,9.97541407593856,0.1064877907239435
8.52356,10.00130777088304,0.105976091002865
8.527612,10.03101178312744,0.1054341569604172
8.531647999999999,10.05734837767166,0.1049051784352264
8.5357,10.083119930040674,0.1043710050724137
8.539736,10.103729630959489,0.1038571088867373
8.543771999999999,10.125114406177842,0.1033127896392687
8.547868,10.138313504621156,0.1028194087775223
8.551955999999999,10.1536392115143,0.1023033423234426
8.555992,10.168178426432368,0.1017881332770674
8.560072,10.179239498750322,0.1012892960885425
8.564108,10.191529962643092,0.1007743999440643
8.568156,10.20056373373562,0.100265956183786
8.572244,10.210040404427888,0.0997402129197373
8.57634,10.215141715645032,0.099232604217399
8.580435999999999,10.222148185512134,0.0987122649789125
8.584463999999999,10.230384046954052,0.0981740829381502
8.588484,10.240967966645668,0.0976052696191043
8.592512,10.250089627287066,0.0970317035299876
8.596556,10.250017669378474,0.0965114318404093
8.600648,10.247254060844844,0.0960043310043655
8.604676,10.238209934186138,0.0955282096190288
8.608716,10.22748209867734,0.0950561448145497
8.612756,10.219888813393318,0.0945530647999898
8.616848,10.211398311234282,0.0940548018993505
8.620887999999999,10.209520501900132,0.0935134162358951
8.624932,10.207531967666048,0.0929782098883957
8.628964,10.207227142282056,0.0924362204523232
8.633068,10.202104057823195,0.0919269733257384
8.637112,10.198996856914231,0.0914012153803026
8.641164,10.197462639955422,0.0908762899578469
8.645208,10.18729984662183,0.0904071837437149
8.649248,10.177702095463449,0.0899467382729308
8.653279999999999,10.166088460755168,0.0895023013666678
8.657368,10.160866069071908,0.0890266687655567
8.661456,10.15373851873869,0.0885633074217246
8.665552,10.145713751530462,0.0881034741964476
8.669547999999999,10.133657217222444,0.0876754028582486
8.6736,10.12148995801449,0.0872503885556161
8.677696,10.11862704225646,0.0867759394718625
8.681792,10.117780010048328,0.0862852075288728
8.685888,10.12164051201512,0.085768625431556
8.689936,10.126398230856926,0.0852490620975307
8.694032,10.128021399473957,0.0847579354859399
8.698068,10.125723525891134,0.0842923353435131
8.702107999999999,10.1175994514585,0.0838638360389967
8.706188,10.105665059725952,0.0834565597891168
8.710284,10.100343360818291,0.0830140099414881
8.714331999999999,10.099839920985495,0.0825415654777141
8.718432,10.095415438952848,0.0820945818095779
8.722524,10.09379333244517,0.0816355151164127
8.726624,10.099902585437258,0.0811279118038903
8.73066,10.109822155729264,0.0806014499777412
8.73476,10.12142543487136,0.080073609589165
8.7388,10.129329121613472,0.0795641085017397
8.74284,10.137908575430732,0.079060952146403
8.746879999999999,10.145147912773236,0.0785776851555506
8.750928,10.15496817584084,0.0780898247762336
8.754972,10.166361422858598,0.0776052484480697
8.759072,10.1709205272516,0.0771631488445406
8.763128,10.176155398719745,0.0767283237442301
8.767216,10.177247778188164,0.0763264611629644
8.771324,10.178229432756652,0.0759294682266942
8.77542,10.181792013050242,0.0755292813053487
8.779475999999999,10.189951402618826,0.0751116332541072
8.783524,10.203604818337414,0.0746746549757113
8.787504,10.219839159781102,0.0742343095942307
8.791552,10.231255242149928,0.0738215402542837
8.795584,10.24244987471888,0.0734192631296765
8.799636,10.25824131656283,0.0730015226822318
8.803671999999999,10.26842800735684,0.0726071509208579
8.807768,10.279401190125922,0.0722170288249452
8.811812,10.285334664020274,0.0718601767857889
8.815856,10.292165354789637,0.071502144707263
8.819948,10.298663870859194,0.0711567724669908
8.824024,10.303478678078664,0.070811255064047
8.828052,10.311095860823103,0.0704554436771956
8.832148,10.320728927117436,0.0700885263675545
8.83624,10.32957550143669,0.0697197392915877
8.840335999999999,10.339319292630956,0.0693477491960394
8.844432,10.347379374975135,0.0689762690978253
8.848464,10.357233891069336,0.0686007328894987
8.852516,10.365072523613645,0.0682373609224454
8.856596,10.370219505532916,0.0678797908312476
8.860676,10.374358545677245,0.06752909546074
8.864708,10.376481702271676,0.067191391693146
8.868744,10.380620742416005,0.0668429135056853
8.872836,10.385656999435342,0.0664928512263978
8.876928,10.387780156029775,0.066156307501235
8.881015999999999,10.386092995324292,0.0658350229706496
8.885112,10.388105427018791,0.0655028046305279
8.88916,10.387204758288386,0.0651843366135002
8.8932,10.387644206032729,0.0648471332763681
8.897295999999999,10.386178495127114,0.064517455008942
8.901384,10.383926292246423,0.0641844878864908
8.90542,10.386270898640728,0.0638406633953808
8.909455999999999,10.3888369548349,0.0634896609604955
8.913488,10.38658475195421,0.0631580554767394
8.917544,10.385119041048595,0.0628291584561574
8.921643999999999,10.390487472767742,0.062471808021484
8.925704,10.39631022176216,0.0621296730041434
8.929751999999999,10.400559986806424,0.0617817564186552
8.933848,10.409628010925548,0.0614162669899708
8.937944,10.42721388651952,0.0610264819562028
8.942036,10.444013270138417,0.0606344286045789
8.946132,10.461144828457115,0.060231216222127
8.95016,10.47256091082594,0.0598468878390918
8.954252,10.484984934969717,0.0594585775368994
8.958336,10.500322059538387,0.0590595054636249
8.96238,10.518683009431909,0.0586459302645983
8.966403999999999,10.535138800675464,0.0582393213325391
8.97044,10.552381083894096,0.0578361506077729
8.974532,10.573101509712844,0.0574352468342083
8.978572,10.59482987730654,0.0570302012393759
8.98266,10.618352678650256,0.0566237219804464
8.986696,10.637954437794123,0.0562343391655814
8.990672,10.656548255163042,0.0558512893491826
8.994748,10.678055172956867,0.0554579112216377
8.998788,10.699672815650626,0.0550616667211816
9.002872,10.711653940194658,0.0546971977877848
9.006908,10.727888281638348,0.0543086595802893
9.01094,10.74681427370707,0.0539189358087557
9.015032,10.760135514725851,0.0535416282912654
9.019136,10.761017862069938,0.0531998322711785
9.023228,10.76156803471422,0.0528694388831563
9.02732,10.76099954068362,0.0525474121505873
9.03132,10.76603579770296,0.0522145201134965
9.035352,10.76737246232232,0.0518871795965104
9.039392,10.764001592766748,0.0515691672542245
9.043428,10.75771762278627,0.0512600098474345
9.047472,10.749639219055767,0.0509505895419303
9.051504,10.739987831375114,0.0506335133989546
9.055552,10.723723750869572,0.0503299428047942
9.05958,10.706341003689149,0.05003396063364
9.063612,10.688847531608792,0.0497416401076525
9.067652,10.666757250253443,0.0494525146900103
9.071748,10.641532418673316,0.0491786582772391
