Time,Force,Position
9.788584,4.357977054391111,0.153979399401494
9.792672,4.384561385941661,0.1533653453627324
9.79676,4.406083173266411,0.1527810364195178
9.80086,4.425799109165607,0.1521792793954084
9.804896,4.441926177564754,0.1516790913041039
9.808979999999998,4.4577210712640944,0.15120619859763
9.813064,4.470270689838728,0.1508541442436925
9.817152,4.483496075488502,0.1505045783620932
9.821188,4.50322342906323,0.1499943200080173
9.825271999999998,4.525753158162927,0.1494110463600871
9.82936,4.552093204562542,0.1487174393923103
9.833448,4.584148726912033,0.1478777476763244
9.837532,4.616990741236601,0.1470293930717104
9.841615999999998,4.648714088886287,0.1462311581928379
9.845707999999998,4.674832685486032,0.1455770603573048
9.849804,4.697251689685794,0.1450237973114628
9.853896,4.717322635635859,0.1445660957672813
9.857988,4.741203898885842,0.1440112614092857
9.862075999999998,4.759037511486145,0.143647977862343
9.866163999999998,4.78057071648643,0.1431990867806613
9.870259999999998,4.800985254811835,0.1427926908792846
9.874351999999998,4.814787100312351,0.1425553718581839
9.878443999999998,4.831391321337838,0.1422578668758572
9.882535999999998,4.845303891738287,0.142017129637016
9.886627999999998,4.856192636813897,0.1418634732646221
9.890724,4.872010365864305,0.1415805283704114
9.89482,4.890065428264475,0.1412210033462738
9.898912,4.909460607139398,0.1408050571614001
9.902948,4.928290743839115,0.1403882179529566
9.90704,4.944318505013862,0.1400311994558873
9.911127999999998,4.961575657763425,0.1396315160629476
9.915216,4.975354667912876,0.1392950342173445
9.919308,4.98800359371191,0.1389304646967253
9.923344,4.998293043585713,0.1385823435625052
9.927432,5.013954377034055,0.1380744373421585
9.93152,5.025916118082414,0.1376365119065928
9.935607999999998,5.042131076030429,0.1370761761597414
9.939695999999998,5.06014046772847,0.1364961941452444
9.94378,5.0783713092263785,0.135893882922011
9.947872,5.095250616574004,0.135288764016101
9.95196,5.111786331546291,0.1346489330339098
9.956052,5.1250653537183375,0.1340323919072882
9.960148,5.1294829320402,0.1335613525917921
9.964236,5.132327526411908,0.1331001169909342
9.968324,5.135836470183226,0.1325781892996483
9.972407999999998,5.136764488229443,0.1320968713524447
9.976492,5.13769250627566,0.1316180622516496
9.98058,5.13458875722209,0.1312394194016257
9.98462,5.1255480824187725,0.1310022087127115
9.988664,5.117847524090207,0.130708508422219
9.992739999999998,5.1074553151366056,0.1304598777491395
9.99682,5.091569080032998,0.1303119240012932
10.000872,5.078153045754557,0.1301368748045141
10.0049,5.067539387001087,0.1299059725999794
10.00894,5.0518860193728825,0.1297989527740369
10.01302,5.040829461019672,0.1296071384839276
10.017052,5.02585186046661,0.1295038233934874
10.021104,5.004593741788465,0.129501358861802
10.025147999999998,4.988043157285248,0.1294028464461081
10.029248,4.9690337896324,0.1293919250630712
10.033331999999998,4.954178331654806,0.1293362492315018
10.037375999999998,4.947397825552317,0.1291527207911571
10.041484,4.950818879774764,0.1287844546318639
10.045535999999998,4.954915701072353,0.128419765752863
10.04962,4.95767240589519,0.1281085506336249
10.053672,4.958081052468329,0.1278741361681293
10.057764,4.9563630905916405,0.1276978743198775
10.061796,4.957336779339987,0.1274778673815906
10.065884,4.96100211871337,0.1272131649800612
10.06994,4.969829309536955,0.1268864208666928
10.073975999999998,4.980118759410758,0.1265618777440738
10.078015999999998,4.998483161159669,0.1261097700006591
10.082107999999998,5.014831679358685,0.1257089690837779
10.086196,5.033871848182738,0.1252744528467291
10.090288,5.054706450756815,0.1248097715902627
10.094383999999998,5.077335487080913,0.124324408465863
10.098472,5.10075101538009,0.1238342346218634
10.102556,5.128996220429664,0.1233115461759782
10.10664,5.154106875254461,0.1228780080869318
10.11072,5.182917122479242,0.1223810042513994
10.114804,5.208924994179051,0.1219413150471854
10.118887999999998,5.234035649003848,0.1215262046225495
10.122975999999998,5.25231216120389,0.1212502361114935
10.12706,5.274398990703848,0.1209089977337498
10.131148,5.298390978853764,0.1205343120158695
10.135236,5.32753340077835,0.1200450454937879
10.139319999999998,5.358470256452958,0.1195311566232756
10.143408,5.392320212552471,0.1189683601363871
10.147496,5.424375734901962,0.1184266517440662
10.151576,5.448921347551554,0.1180133257860335
10.155656,5.474585626876027,0.117574569472283
10.15974,5.495088054750298,0.1171930576217464
10.16382,5.515811932424439,0.1167943255284044
10.1679,5.532160450623456,0.1164496425173457
10.171983999999998,5.550967751972106,0.1160327089818653
10.176064,5.566407635620577,0.1156465536973557
10.180144,5.583187635743801,0.1152162679260364
10.184224,5.594240742241616,0.1148188974310681
10.188312,5.600242722189165,0.1144592553799533
10.192388,5.603098734236403,0.1141092544177463
10.196476,5.605721878808242,0.1137185992546721
10.200527999999998,5.6029617221300105,0.1133937730475175
10.204615999999998,5.600533740151582,0.1130404405276399
10.2087,5.598548657772895,0.112655544338644
10.212792,5.596109258118934,0.1122472157691251
10.216867999999998,5.589183774089913,0.1118916881058478
10.220956,5.578104380385639,0.1115606813569658
10.225036,5.560068701481139,0.1112939974974549
10.229115999999998,5.550096556776214,0.1108759458611655
10.2332,5.546282787620904,0.1103370605327567
10.237279999999998,5.539998817640428,0.1098118841053217
10.241367999999998,5.535509281409975,0.1092655141430525
10.245444,5.531130470079457,0.1087107808396379
10.249536,5.527759600523886,0.108137247220928
10.253616,5.523270064293432,0.1075933358899792
10.2577,5.517994036087903,0.1070482874527451
10.261779999999998,5.510026357257338,0.1065307828968339
10.265868,5.503853112176796,0.1059900483928796
10.269956,5.501944501671445,0.1054149710986434
10.27404,5.503624758666139,0.1048028203361496
10.278132,5.502059740536125,0.1042599951838278
10.282228,5.503407822831015,0.1036695543214117
10.286328,5.507779730450746,0.1030251505274685
10.29042,5.506325437220665,0.1024720576529569
10.29452,5.501847318665746,0.1019703705135034
10.29862,5.498044967185968,0.1014747696359524
10.302644,5.499625916956261,0.1009230616729983
10.306743999999998,5.507487384851636,0.1003057829037866
10.310788,5.502577784372511,0.0998933142356426
10.31488,5.49284992481852,0.0995516509740654
10.318967999999998,5.480884731914767,0.0992605736984205
10.323059999999998,5.470824697660971,0.0989430613562381
10.327151999999998,5.458970229657153,0.0986416254402322
10.331248,5.443981211428559,0.0983996001916445
10.335335999999998,5.422158050575209,0.0982616721632622
10.339368,5.400789206997131,0.0981491502338835
10.343467999999998,5.382001289144155,0.0980170021498599
10.347563999999998,5.365683572116343,0.097875224879638
10.351616,5.3495873048884,0.0977149545722296
10.355656,5.330688662135487,0.0975873354589051
10.359744,5.313805902932468,0.0974242583800923
10.363836,5.297709635704525,0.0972598114383875
10.367924,5.281391918676711,0.0971109465861007
10.372016,5.265860693623977,0.0969618170414323
10.376103999999998,5.255823494721247,0.09675345941976
10.380192,5.24668351269353,0.0965362287322624
10.384244,5.236867763590672,0.0963095362204085
10.388331999999998,5.224925406037984,0.0961242446382826
10.392419999999998,5.222841016434894,0.0957897302616403
10.396511999999998,5.221321669007011,0.0954718486238443
10.400603999999998,5.224842030453861,0.0950708604158184
10.404695999999998,5.225227841675936,0.0947291332064328
10.40878,5.230210462173007,0.09434165050387
10.412872,5.239224849769862,0.0938882286142353
10.416964,5.257875755516445,0.0933053275591445
10.421052,5.278763994612792,0.092674228953795
10.425144,5.2976363501592445,0.0920774414777409
10.429236,5.318856763955396,0.0914311656181673
10.433319999999998,5.340077177751547,0.0907877056894145
10.437407999999998,5.359957475072946,0.0901826909367361
10.441499999999998,5.38163220614437,0.0895658810068716
10.445584,5.401401778565835,0.088974245802037
10.449676,5.416242367012501,0.0884497926065973
10.453755999999998,5.436011939433966,0.0878591471961901
10.457836,5.453089861230396,0.0872954676334313
10.461916,5.472183666576719,0.0867060491506475
10.466008,5.488142921698267,0.0861715592143702
10.4701,5.505220843494696,0.0856162338628494
10.474196,5.517259056416393,0.0851385509901439
10.478284,5.530748110712777,0.0846133194563765
10.482368,5.543007773434343,0.0841243032716057
10.486456,5.556718277530594,0.0835883073473436
10.490544,5.5657212474519175,0.0831019355927921
10.494632,5.574613492473306,0.0826271248864086
10.498712,5.578576753519895,0.0822174122240544
10.502792,5.581532072791538,0.0818230612250937
10.506871999999998,5.5826929583131575,0.0814376096396606
10.510956,5.578703410060108,0.0811296049394088
10.515035999999998,5.5763975706571465,0.0808196723118317
10.51912,5.576550514403819,0.0804497405043207
10.523204,5.577711399925438,0.0800688505749076
10.527288,5.581674660972028,0.0796654769537775
10.531372,5.592804239343179,0.0791625392014923
10.535456,5.598894108839597,0.0787267670829486
10.539535999999998,5.60207087791111,0.0783204816477386
10.54362,5.601326604782772,0.0779585201287826
10.547704,5.603716881879207,0.0775499136774964
10.551783999999998,5.606328608775513,0.077127804040912
10.555872,5.611964160996658,0.0766677969025556
10.5599,5.61536237986804,0.076248134095825
10.563983999999998,5.615061006339439,0.0758539807145348
10.568012,5.610617140811119,0.0755159177448952
10.572091999999998,5.608078433932756,0.0751597127103199
10.576172,5.603523843504501,0.0748286066700657
10.580251999999998,5.599190702876114,0.0744805997710841
10.584336,5.5967627208976864,0.0741170096234501
10.588424,5.60105815664408,0.0736925837885444
10.592512,5.606693708865227,0.0732306725065767
10.59656,5.60885111848626,0.0727786621318198
10.600592,5.610787078307423,0.0723433341925544
10.604684,5.610707154578694,0.0719337558577641
10.60878,5.604911754900089,0.0715705232048942
10.61288,5.594863138321826,0.0712703756691394
10.61694,5.587051855093327,0.0709302657781549
10.62104,5.582042947389798,0.0705692700991333
10.625132,5.581963023661068,0.0701589858161452
10.629227999999998,5.581329475432663,0.0697891692008594
10.633319999999998,5.576442710304602,0.0694794909068029
10.637372,5.570326553601725,0.0691969908276359
10.641452,5.568020714198765,0.0688849877577746
10.645488,5.569635916995656,0.0685351637184988
10.649587999999998,5.57797453751737,0.0681302485016753
10.65364,5.585083766464268,0.0677518513413407
10.657699999999998,5.592414445211035,0.0673573310406433
10.661732,5.600310166133009,0.0669826237365553
10.665768,5.605292786630078,0.0666348564347306
10.669852,5.604559931177272,0.0663309980026455
10.673944,5.6054000596746185,0.0660366767500448
10.678028,5.606915955247108,0.0657535639222424
10.682112,5.611012776544698,0.0654710441796066
10.686196,5.613093714292398,0.0652089667612079
10.690283999999998,5.62089012798997,0.0649057933420401
10.694375999999998,5.630702425237436,0.0645822255448894
10.69846,5.641190489560043,0.06427288574429
10.702548,5.6545916543075565,0.0639431595383685
10.706636,5.662055893305324,0.0636681799727602
10.710719999999998,5.670860248777843,0.0633626177135155
10.714807999999998,5.686498746875119,0.0630030844489376
10.718896,5.701240028097383,0.0626459652275072
10.72298,5.712957483994808,0.0623200402517857
10.727064,5.725461431867309,0.0620023723672948
10.731148,5.736957437964864,0.0616984996698691
10.735228,5.749682835637235,0.0613704935493576
10.739316,5.7680129843595465,0.0610194279414551
10.7434,5.78880191623149,0.0606238299204945
10.74748,5.810488064978447,0.0602269080939269
10.751508,5.833182155500351,0.0598204555010242
10.755596,5.854979029147242,0.0594180169878927
10.75968,5.878902511243961,0.0589919347105034
10.763768,5.896545475215597,0.0585791385327261
10.767855999999998,5.915528555661985,0.0581346981698314
10.77194,5.932938652158219,0.0576831565937487
10.776028,5.949451531779443,0.0572357162167558
10.78012,5.963383485675564,0.0567863644004487
10.784208,5.971821413421679,0.0563545379391422
10.788291999999998,5.985188325142595,0.0558871917245055
10.792316,5.993958427588515,0.0554345948245613
10.796395999999998,5.997234503884431,0.0549991698457429
10.80048,6.002858638430044,0.054526892538253
10.804507999999998,6.009933614350342,0.0540181605261583
10.808592,6.0114038392207005,0.0535290723276713
10.81268,6.006372096166106,0.0530594111369519
10.816764,6.001451078011446,0.0525828498820856
10.820856,5.986217774631917,0.0521433676371684
10.824952,5.964039603727695,0.0517493426682087
10.828976,5.940853491048528,0.0513620025666709
10.833068,5.916548711694479,0.0509870879963905
10.837152,5.89056022349034,0.0506040665033714
