Time,Force,Position
10.054307999999995,5.785022047701798,0.1460431507903021
10.058392,5.794967905200266,0.1456913737409121
10.062471999999998,5.8018671020228245,0.1453055289652641
10.066468,5.800691346970279,0.1450578078568326
10.070496,5.8052310678676085,0.1446927317916822
10.074591999999996,5.806746963440098,0.1443986846400334
10.07862,5.812748943387645,0.1440293251279918
10.082712,5.8234584575101245,0.1435702447400689
10.086747999999998,5.83046837923262,0.1431801401773083
10.090852,5.839826359204815,0.1427188253995178
10.094892,5.8498486885766185,0.1422045065375868
10.098876,5.858740933598007,0.1416689007907944
10.102955999999995,5.869305469793952,0.1410616545648732
10.106992,5.881320847364582,0.1403992368970764
10.11108,5.889415182735361,0.1398237559427749
10.11512,5.8945964176812335,0.1393099220124818
10.119212,5.903698694826958,0.138712672936035
10.123304,5.911793030197737,0.1381357869504122
10.127352,5.917417164743349,0.1375851318246941
10.131336,5.920238923763991,0.1370801230856047
10.135371999999998,5.926084508109474,0.136509359265119
10.139468,5.931254325379815,0.1359343805303671
10.143571999999995,5.934408259100262,0.1354069205557275
10.1476,5.940475293245615,0.1348191362987089
10.151535999999998,5.941502618516233,0.1343426679517492
10.15564,5.945221594411887,0.1338236701475497
10.159724,5.944798078307818,0.1334018884290863
10.163755999999998,5.9405642449038325,0.1330527835226855
10.167836,5.936219686599912,0.132710626885659
10.171932,5.930645736721176,0.1324089286756206
10.176024,5.925071786842439,0.1321070811128661
10.180116,5.918944212464027,0.1318481612511302
10.184208,5.9123737384858766,0.1316241075895272
10.188303999999995,5.903676656057899,0.1314507818775305
10.192396,5.892742240280155,0.1313370451867702
10.196476,5.8823728666776205,0.1312354575392804
10.200555999999995,5.875260185875329,0.1311075744972901
10.204651999999998,5.870728430798138,0.1309500251536436
10.208728,5.865864501021141,0.1308174800075088
10.212824,5.870415639594004,0.1305262735201709
10.216823999999995,5.871942952842025,0.1302985810653097
10.220919999999998,5.876161916715081,0.1300346668195283
10.22502,5.878586446838115,0.1297948145942956
10.229107999999998,5.881797468936226,0.1295519533882612
10.233152,5.888929533234188,0.1292344329652377
10.237135999999998,5.897856031282174,0.1288949755610221
10.241236,5.9132844972551135,0.128456414787698
10.245332,5.926586354778225,0.1280641784589963
10.249368,5.944485021576331,0.1276051417364439
10.25342,5.960478529724478,0.1271788067463315
10.257515999999995,5.975242646297808,0.1267894792887735
10.261555999999995,5.9913468793458895,0.1263563169448238
10.26554,6.001957086243964,0.1260017255292281
10.269576,6.014251001992127,0.1256322786973346
10.273663999999998,6.028671526190121,0.1252105033924504
10.277699999999998,6.045218658837942,0.1247430433007149
10.281728,6.053690839610656,0.1243828340690588
10.285755999999996,6.063503136858122,0.1239809729549148
10.289803999999998,6.076007084730624,0.1235454413324828
10.293835999999995,6.080214630928149,0.1232333635761863
10.297916,6.086438060675567,0.1228826145513968
10.302008,6.091088506472833,0.1225401350836004
10.306091999999998,6.095517502470226,0.1222119334157779
10.310187999999998,6.09904928159261,0.1218960052691763
10.314219999999995,6.100675902065034,0.1216110672621515
10.318248,6.100286638987566,0.1213656209870339
10.322331999999998,6.09720572528506,0.1211545074232035
10.326416,6.098832345757485,0.1208731306955547
10.330452,6.097878040504808,0.1206173069408251
10.334496,6.098263851726884,0.1203186999770908
10.338536,6.098760387848894,0.1200112486918182
10.342567999999998,6.10026486574585,0.1196871828628546
10.346659999999998,6.106476877817735,0.1192931379685746
10.350692,6.111902397914543,0.1189027243235126
10.354732,6.120351743336193,0.1184591127774201
10.358779999999998,6.126674480308012,0.1180621282161822
10.362815999999995,6.141182894054873,0.1175656133690817
10.3669,6.149643657152053,0.1171769448433706
10.370992,6.153729060774108,0.116831054922167
10.375092,6.161292606996277,0.116451534669469
10.379187999999996,6.16572160299367,0.1161340068438293
10.383283999999998,6.17071564116627,0.1158312256399508
10.387375999999998,6.179630721538723,0.1154648536475853
10.39146,6.188545801911176,0.1150992015853463
10.395548,6.200263257808599,0.1146974944180734
10.399636,6.21209143860596,0.114288589921896
10.403724,6.220895794078477,0.1139327716327237
10.407763999999998,6.22700849892596,0.113607649011978
10.411743999999995,6.235026362423402,0.1132575436051946
10.415824,6.241925559245962,0.1129329446195005
10.419851999999995,6.253643015143385,0.1125403618945205
10.423943999999995,6.261328703941019,0.1122171023270627
10.427995999999998,6.268117175863647,0.111904333272415
10.431975999999995,6.2730004891363125,0.1116172360151756
10.436016,6.275535744159279,0.1113884414025756
10.440087999999998,6.2779602742823135,0.1111673927973086
10.444172,6.275787995130355,0.1110005589236002
10.448208,6.279331191928271,0.1107558965121656
10.4523,6.286463256226234,0.110474424681736
10.456383999999998,6.293816770324068,0.1101792508801582
10.460428,6.307107210171646,0.109794107346945
10.464524,6.319500433144212,0.1094190166548246
10.46862,6.3288698307919375,0.1090943414788323
10.472716,6.337231286664716,0.1087859255521077
10.476752,6.342679642112588,0.1085198611652708
10.48084,6.35003315621042,0.1082305571790093
10.484875999999998,6.360631945432962,0.1078782393462042
10.488967999999998,6.375041051955423,0.1074795603047449
10.493055999999996,6.383513232728135,0.1071682567978302
10.497147999999996,6.394898513925755,0.1068184295424787
10.501187999999996,6.400679044073432,0.1065353008675294
10.505279999999996,6.409594124445886,0.1061978737812212
10.509375999999998,6.417611987943326,0.1058687002684786
10.513471999999998,6.428542951865674,0.1055002136607035
10.517568,6.440027540287695,0.1050956597511173
10.52166,6.450160594559431,0.1046770615969598
10.525695999999998,6.460404373731105,0.1042505547608829
10.529783999999998,6.4672807352026,0.1038424973814588
10.533875999999998,6.473481329598953,0.1034291617104389
10.537908,6.475760881795453,0.1030688770928131
10.542004,6.4713170162671325,0.1027939804323836
10.546099999999996,6.467205325438616,0.1024969825263855
10.55018,6.46443375108485,0.1021624135591875
10.554228,6.465804668730808,0.1017616794270952
10.558275999999998,6.468294253051644,0.1013384299219416
10.562304,6.466076303197554,0.1009676277493941
10.566379999999995,6.459715861343742,0.1006630328993813
10.570423999999996,6.450553043964959,0.1003889366588198
10.574463999999995,6.446319210560974,0.10004727280623
10.5785,6.4390615518321495,0.0997501474726597
10.582599999999998,6.43169316820339,0.0994589265982202
10.586687999999995,6.422308901024737,0.0991968775653191
10.590668,6.411916692071136,0.0989486056035714
10.594699999999998,6.3996193244675785,0.0987219689564788
10.598752,6.386768332364347,0.0985313996111973
10.602779999999996,6.37638754108628,0.0983329269272755
10.606784,6.365785300008344,0.0981484409226322
10.610832,6.360677085080414,0.0979136002294309
10.614883999999998,6.355236695452679,0.0977004658564851
10.61898,6.353717348024795,0.097436765176544
10.623035999999995,6.354324609046741,0.0971355945985414
10.627092,6.351797319843912,0.0968840495046174
10.631143999999995,6.351961681266117,0.0966127398156029
10.635187999999998,6.34607839203864,0.0964266569490194
10.639279999999998,6.339973653011297,0.0962549605259901
10.643364,6.335663347733976,0.0960686972149827
10.647476,6.335949851731649,0.0958403843696904
10.651516,6.335006964154506,0.095640710039318
10.655564,6.332945409902481,0.0954628119835652
10.659608,6.328757247200628,0.0953198340514445
10.663703999999996,6.330173835548716,0.0951215056048541
10.667799999999998,6.332266190971945,0.094930791967329
10.671895999999998,6.340184747244984,0.0946715629765619
10.675992,6.351802895918007,0.0943801198393099
10.680088,6.365436928140921,0.0940624943269167
10.684115999999998,6.378063018588891,0.0937598067026665
10.688211999999998,6.392372817886949,0.0934514740351556
10.692256,6.400745691435263,0.0932196966872258
10.696308,6.407102681433682,0.0930143717873564
10.7004,6.412230279857284,0.0928376032781471
10.704495999999995,6.416914978681147,0.0926891383153815
10.708535999999995,6.425188545005057,0.0925143797917295
10.712576,6.4283116775543,0.0924153406117212
10.71666,6.435245127403458,0.0922759889513133
10.720756,6.44117063547767,0.0921501131010174
10.724835999999998,6.449112027101776,0.0919974221739121
10.728875999999998,6.4544724930007815,0.0918571731661991
10.73296,6.460951625574669,0.0916961370070892
10.737048,6.466533541273544,0.0915413323743034
10.741079999999998,6.477155165847153,0.0913186618675374
10.745163999999995,6.483966473120844,0.0911374457923495
10.74924,6.489991288419459,0.0909550763778968
10.753284,6.490976394843338,0.0908402482715473
10.757376,6.488151183967303,0.0907641602238475
10.761468,6.481626380691283,0.0907190788923655
10.765499999999998,6.472409926790231,0.0906919392900508
10.769584,6.4624069809141,0.0906635622433441
10.773583999999998,6.453190527013046,0.0906365200021942
10.777675999999998,6.44800584021178,0.0905566561120874
10.781715999999998,6.440240227685412,0.0904876353538231
10.785811999999998,6.435719890283756,0.0903646786011908
10.789844,6.429626568931943,0.0902394145564998
10.793936,6.423078930304859,0.0900909148690214
10.797979999999995,6.413728916152805,0.0899675195120444
10.802068,6.405497568675633,0.0898234215794038
10.806156,6.396036829623644,0.0897067818377703
10.810196,6.387362582546732,0.0895909890254513
10.814284,6.376672451919925,0.0895012879602913
10.818328,6.368784696818091,0.0893862434004506
10.822407999999998,6.358991783066298,0.0892899170589389
10.826499999999998,6.347293710664545,0.0892123558127587
10.830584,6.334809146287717,0.0891331573283917
10.834679999999995,6.323443248585769,0.089033414373984
10.83876,6.313761059733908,0.0889289681275195
10.842843999999998,6.305984029532008,0.0888051417705311
10.846868,6.30168514193022,0.088664611544073
10.850908,6.29648903745342,0.0885297813445642
10.854939999999996,6.293308816526514,0.0883686704883157
10.858979999999995,6.2863182782996905,0.0882454231896666
10.863008,6.284932491122808,0.0880726087817594
10.867043999999998,6.28153082039603,0.0879261310095076
10.871072,6.279137091444203,0.0877665600396219
10.87516,6.282015938842509,0.0875802659708399
10.879256,6.289380870615876,0.0873663146897385
10.883255999999998,6.299658902814148,0.0871234431767571
10.887356,6.310158384812287,0.0868666851682107
10.891443999999998,6.319760649935416,0.0866152803796063
10.895492,6.331489523508374,0.0863311322825337
10.899495999999996,6.343329121981266,0.0860427996574631
10.903587999999996,6.355168720454156,0.0857551869283543
10.907687999999998,6.367119043826983,0.0854586451346003
10.911723999999998,6.384452668449881,0.0851320243955475
10.915819999999998,6.399770409522885,0.0848295012524949
10.919868,6.412617949770723,0.0845286126413976
10.923904,6.424457548243615,0.0842401562402474
10.927956,6.434945612566223,0.0839345830220172
10.931983999999998,6.446552343563713,0.0836097958132425
10.93608,6.459388466136018,0.0832613404505664
10.940163999999998,6.476145630908177,0.0828725213921733
10.944251999999995,6.490100420155365,0.0825088778451834
10.94828,6.503047267627605,0.0821572025893837
10.952376,6.516669882174989,0.0818159498109954
10.956472,6.524011978597289,0.0815087215738118
10.960571999999996,6.524962831994571,0.081242255556922
10.964615999999998,6.519976759642108,0.0810398209018958
10.968648,6.511180369989728,0.0808698463271548
10.972751999999998,6.503391922112296,0.0806876424037247
10.976791999999998,6.494374082660047,0.0805309471899923
10.980883999999998,6.47964076725792,0.080423770174752
10.984864,6.462891568305902,0.08033998415003
10.988959999999995,6.44715031112883,0.0802437975765279
10.993051999999995,6.426922969576699,0.0801708265361021
10.997108,6.408711511574461,0.0800739073542343
11.001143999999998,6.394199645972206,0.0799501983377011
11.005231999999998,6.381482214119974,0.0798168392827727
11.009327999999998,6.371234983092908,0.0796830483617615
11.013391999999998,6.361663519140984,0.079558421388337
11.017448,6.348060288089274,0.0794794021738411
11.02148,6.331322506812787,0.0794410567533693
11.025528,6.31648988418626,0.0793860291437355
11.029579999999996,6.300649319784785,0.0793422850642379
11.033671999999996,6.2839115385083,0.0793025452961761
11.037767999999998,6.277596767356618,0.0791800603324348
11.041864,6.276886747254878,0.0790177996324777
11.045964,6.279200552477977,0.0788212128950059
11.050052,6.288127050525965,0.0785737189553938
11.0541,6.298958707223909,0.0783123933556065
11.058147999999996,6.31270346434676,0.0780254864951887
11.062239999999996,6.33115575564454,0.0777026199282667
11.066272,6.354537030917117,0.0773328934864284
11.070356,6.381728623489614,0.0769362429492254
11.074387999999995,6.408809491162174,0.0765461028964451
11.078476,6.435779633934799,0.076163908945973
11.082519999999995,6.45793151763256,0.0758228818395097
11.0865,6.47940763425518,0.0754739053193022
11.090592,6.499089317127775,0.0751351224512072
11.094675999999998,6.515182132500325,0.0748113160871663
11.098715999999998,6.535417439872595,0.0744390738594218
11.10282,6.556771413919747,0.0740492242349403
11.10686,6.575323012441928,0.0736796874133882
11.1109,6.597795653163961,0.0732754523278392
11.114931999999998,6.617576643260959,0.0728810825326683
11.119008,6.625705231658335,0.0725878947300319
11.123091999999998,6.631252894330611,0.072299934844077
11.127148,6.637697773877899,0.0720092557790296
11.131188,6.642348219675164,0.0717279510809705
11.135272,6.641393914422489,0.0714803245880177
11.139255999999998,6.638866625219658,0.0712269471758453
11.143343999999995,6.636671510716633,0.0709544353972944
11.147391999999998,6.63066607891369,0.0707088224378477
11.151488,6.621636821785907,0.0704931216889126
11.155588,6.613504781533137,0.0702739451235514
11.159628,6.607610074630129,0.0700227622456793
11.163679999999998,6.603731251277016,0.0697510202614892
11.167732,6.597836544374008,0.0694978567071996
11.171763999999998,6.5917203876711294,0.0692578200193312
11.175799999999995,6.591319706918128,0.068980106343439
11.17978,6.588681692815364,0.0687353559877316
11.183872,6.586154403612534,0.0684841538622239
11.187968,6.583627114409705,0.0682323624136592
11.192052,6.580202608331861,0.0679844176625342
11.19608,6.580699144453872,0.0677054434502884
11.200064,6.585338172575605,0.0673803690059796
11.204112,6.59177163444736,0.0670504601757678
11.208207999999996,6.596410662569092,0.0667263887501989
11.212195999999995,6.599144532040865,0.0664146052475874
11.216284,6.6092775863126025,0.0660693128358401
11.220379999999995,6.620086407659483,0.0657359165532742
11.224471999999995,6.629665837431546,0.0654260204734508
11.228567999999996,6.638237325428663,0.065124149423066
11.23262,6.645235829475626,0.0648138042734972
11.236723999999995,6.650661349572435,0.0644948480001939
11.240815999999995,6.653063044344403,0.0642035526499203
11.244844,6.658488564441211,0.0638869825602417
11.248884,6.6669379098628605,0.0635444202400074
11.252932,6.674932938009237,0.0631782815926439
11.256924,6.6802363155305775,0.0628211354666418
11.260979999999998,6.681950825551872,0.0624706564121107
11.265084,6.682546668898283,0.0621349698506111
11.269187999999998,6.6860556126696,0.0617812020985513
11.273288,6.688667339565907,0.0614304374219442
11.277388,6.691057616662341,0.0610938738376104
11.281487999999998,6.693337168858843,0.0607631657123976
11.285536,6.694830229080267,0.0604288793880121
11.289567999999996,6.697331231076637,0.0600863785525682
11.29362,6.702745333497913,0.0597270548327443
11.297668,6.700760251119224,0.059394120551068
11.301667999999998,6.69518630124049,0.0590669631479855
11.3057,6.68781791761173,0.0587421568929685
11.309736,6.684481301082757,0.0583857446167019
11.313828,6.683725610278885,0.0580307913382341
11.31792,6.685772294999984,0.0576650257402944
11.32196,6.686921762846071,0.057299526418632
11.325995999999998,6.682245029842346,0.056967169689785
11.330027999999997,6.674655196413717,0.056651117736608
11.334051999999998,6.670764955385069,0.0563244167553279
11.33808,6.66597749748141,0.05599860633954
11.342107999999998,6.666008298652615,0.0556468526207045
