Time,Force,Position
10.315519999999996,7.82331034335505,0.136995320080801
10.319556000000002,7.830461791148687,0.1363894329972089
10.323648000000002,7.824930060116689,0.1359005452688508
10.327628,7.816141636284447,0.1354343992562884
10.33172,7.809922720501774,0.1348974913443734
10.335812,7.797877603869292,0.1344483259281143
10.339899999999997,7.787959095686635,0.1339566627142895
10.343884,7.776356878653891,0.1334777247594897
10.347984,7.759260635471142,0.1330655433853884
10.352071999999996,7.734986657288297,0.1327341301491389
10.356168,7.709693319654973,0.1323759637894888
10.360268,7.681819056296549,0.1320405806300272
10.364363999999998,7.6502452005381425,0.1317503644765568
10.368460000000002,7.622935979354925,0.1314207777441474
10.372559999999996,7.596646117622188,0.131114972213749
10.376656,7.572494282014811,0.1308101424044267
10.380684,7.551599139207679,0.1304832952287672
10.384716,7.532387705250633,0.130141428524429
10.388699999999996,7.515081429943545,0.1297721363460926
10.392723999999998,7.49452987951175,0.1294636945997332
10.396703999999996,7.474654096155096,0.1291578485155038
10.400744,7.456351296748594,0.1288446482264042
10.404771999999998,7.44220240701735,0.1285013278128832
10.408815999999998,7.427610617686364,0.1281836178465316
10.41282,7.41773778020584,0.1278472933008474
10.41674,7.409105751975665,0.1275231134572722
10.42068,7.399698649445947,0.1272448551909264
10.42468,7.3885085308417375,0.1270287294483544
10.428720000000002,7.380010062862564,0.1267823593062252
10.432796,7.377005621033395,0.1264694603447207
10.436835999999996,7.370645179179582,0.1262259024998004
10.440876,7.367984329725751,0.1259370611344715
10.444971999999996,7.368801622872032,0.1256164708639915
10.449000000000002,7.364357757343712,0.1253911921205784
10.453079999999996,7.359692442015522,0.1251789914118705
10.457123999999997,7.354019184912383,0.1249825372154595
10.461212,7.34711653623443,0.1248154592088657
10.465304,7.3396602630568015,0.1246820032438795
10.469396,7.327053556104504,0.1246372597584306
10.502016,7.199073362111436,0.1246223295370401
10.506103999999995,7.182534195283755,0.1245898306352039
10.526279999999996,7.088407409245595,0.1245771961353927
10.534324000000002,7.050732266315237,0.1245625279464739
10.538363999999998,7.035766083437711,0.1245214179331036
10.54236,7.023380826285283,0.1244581563256586
10.546359999999996,7.011106294032791,0.1243879913629653
10.550388000000002,7.005444454605186,0.1242291851677937
10.554416,7.003260757777694,0.1240387984910923
10.558452,7.003547261775366,0.1238332609254719
10.562479999999995,7.001485707523341,0.1236818708219865
10.566528000000002,7.002115803896352,0.1235014326702356
10.570624,7.004318884219518,0.1233151593583279
10.574712000000002,7.010000107142794,0.1230977934535049
10.578799999999998,7.0211753562160775,0.1228185446813209
10.582888,7.03515298081433,0.1225023720894924
10.58698,7.044434488913188,0.1222934259123046
10.591011999999996,7.055964748037341,0.1220833017546471
10.5951,7.066830657761885,0.121914386564048
10.599183999999996,7.077364392786626,0.1217681958527312
10.603232000000002,7.091597720211347,0.1215759972335362
10.607319999999998,7.104712380961186,0.1214072524281813
10.61142,7.118392083886234,0.1212512231364492
10.615503999999998,7.134874162336251,0.1210595102632965
10.619544,7.148110965661559,0.1209319879250083
10.623592,7.162023536062007,0.1208099210019458
10.627672,7.179414249062569,0.1206583321024567
10.631764,7.194567628713369,0.120554526990577
10.635848,7.210728950139114,0.1204366189193861
10.639936000000002,7.223190679164878,0.1203611434634914
10.643979999999996,7.240470667265504,0.1202209729521896
10.64802,7.257972105166001,0.1200684268453947
10.652103999999998,7.2787188181912095,0.1198573346255598
10.656192,7.292409938791789,0.1197545237881184
10.660276,7.299599091467416,0.1197285626447814
10.664363999999996,7.308693402793002,0.1196788002727423
10.668451999999998,7.323048872793191,0.1195378036856376
10.672535999999996,7.3369500255181075,0.1193791849232092
10.676568,7.353309961392657,0.1191628132036561
10.680648,7.367310421341976,0.1189536727469286
10.684727999999996,7.378951405366065,0.1187507752455413
10.688776,7.390813839190022,0.1185339887689869
10.692756,7.402332680638643,0.1182942176014755
10.696839999999998,7.411381321262096,0.1180672246195967
10.700928,7.420529269109955,0.1177888757967052
10.705007999999996,7.428547132607395,0.1174892359698966
10.709036,7.431513869554571,0.1172212755204786
10.713112,7.432342580376385,0.1169455694431578
10.717152000000002,7.428120164647935,0.1167010918626376
10.72118,7.428150965819139,0.1163824030535495
10.725232000000002,7.422909190640208,0.1161084670228159
10.729268,7.417667415461276,0.1158350545512183
10.733355999999995,7.408615322982428,0.1156081052867289
10.737343999999997,7.408634706478099,0.1152479078543237
10.741432,7.409551306848784,0.1148782332636872
10.745464000000002,7.409792140144326,0.1145053895120659
10.749515999999996,7.411040915214816,0.1141207207545221
10.753551999999996,7.414416298735131,0.1137023263044671
10.75764,7.419807565805341,0.1132584710796214
10.761687999999996,7.425198832875551,0.112814113956947
10.765776,7.436084126095768,0.1123194178814308
10.769864000000002,7.450669011715966,0.1117902552424451
10.77396,7.464245955561218,0.1112770906770488
10.778048000000002,7.484214142431485,0.1107093479365243
10.782135999999998,7.504415196777157,0.1101726148582932
10.786219999999997,7.527197176847928,0.1096250342487604
10.790308,7.553568024418748,0.1090483660000997
10.794395999999995,7.584424956364626,0.1084391551456269
10.798424,7.618760030910616,0.1078079355689175
10.802468,7.655676031181707,0.1071704318972964
10.806547999999996,7.696180898952845,0.1065073659056581
10.810632000000002,7.735112782773829,0.1058483099270403
10.814716,7.775949825244772,0.1051713347331646
10.8188,7.812865825515862,0.1045472672069526
10.822883999999998,7.852805651111794,0.1038876951907138
10.826967999999995,7.889943101182753,0.1032559635146163
10.831059999999995,7.9215865251037085,0.1026725393575574
10.835151999999995,7.9504275734996925,0.1021185429699378
10.839235999999996,7.973442421045868,0.1016291329204251
10.843324,7.9963465436921055,0.1011455068695728
10.847407999999998,8.015440349038428,0.1007035270417979
10.851499999999998,8.032628995734791,0.1002835639283463
10.855575999999996,8.051722801081114,0.0998479518458246
10.859660000000002,8.064314638502484,0.0994694909896159
10.863739999999996,8.075554941773568,0.0990789677992853
10.867824000000002,8.080182552219767,0.0987482807392642
10.871908,8.08772326309087,0.0983909531347615
10.875987999999996,8.09324809041208,0.0980592372130265
10.880076,8.100788801283185,0.0977069581021611
10.884151999999997,8.10362197797936,0.097395991314511
10.888235999999996,8.105557937800524,0.0970919772577005
10.892315999999996,8.109066881571842,0.0967887983653885
10.896399999999996,8.113583767118104,0.096476098453933
10.900479999999998,8.119108594439316,0.0961531521758864
10.904563999999995,8.122617538210633,0.0958532627902702
10.908612000000002,8.131620508131958,0.0955177609014951
10.912704000000002,8.145220287328275,0.0951511690263697
10.916783999999996,8.160393050474745,0.0947863848248345
10.920872,8.183186448221049,0.0943606092123573
10.924955999999998,8.20586912106742,0.0939398566812855
10.929044,8.229670460588673,0.0935047703247184
10.933131999999995,8.253017482834652,0.0930547622718613
10.937228,8.269530362455875,0.0926661729118925
10.941267999999996,8.28805912562699,0.0922564773089242
10.945356,8.313089856723057,0.0918051520097294
10.949403999999998,8.343725338869065,0.0913131913121891
10.953487999999997,8.3686453450652,0.0908698887831345
10.957571999999995,8.390984425536232,0.090435847542756
10.96162,8.40782947985726,0.090037348767691
10.965707999999996,8.42388804220321,0.0896372635039312
10.969748,8.436468461949048,0.0892503686390371
10.973843999999996,8.447586622644664,0.0888570985303146
10.977892,8.454218698965226,0.0884871749624651
10.981939999999998,8.458269849560683,0.0881255380392608
10.986031999999998,8.462653174855948,0.0877479460579113
10.990123999999998,8.460645257126194,0.0874077501109421
10.994159999999995,8.456953630546352,0.087071779429197
10.998256,8.454712845341191,0.0867056719893167
11.002356000000002,8.44529432513594,0.0863740198699107
11.006435999999995,8.439231804955337,0.0859979756790502
11.010412,8.42958041727468,0.0856375809131791
11.014504,8.417802421144199,0.0853005765070483
11.018599999999996,8.412404250363203,0.0848894741014025
11.02264,8.405322370732115,0.084480308887896
11.026723999999998,8.38714171390108,0.0841339126528418
11.030772000000002,8.366712306044752,0.083777224275621
11.03482,8.34863095643812,0.0833847051559696
11.038928000000002,8.331778998406305,0.0829706736677134
11.042956,8.314816315474554,0.08255945060197
11.047,8.298185807242609,0.0821300142825622
11.051092,8.283571182560554,0.0816801597585799
11.055088,8.26805934100349,0.0812323865098725
11.059119999999997,8.257255033621353,0.0807546715525612
11.063112,8.246561451139154,0.0802695691588437
11.067164000000002,8.232168276256969,0.079802334336401
11.071263999999996,8.219901709824613,0.0793094856044297
11.075292,8.206737926517249,0.0788195154190951
11.079343999999995,8.18685072548506,0.0783740086641549
11.083451999999998,8.165058365802912,0.0779370145713987
11.087548000000002,8.139234239020977,0.0775346842595264
11.091652,8.114307329114055,0.0771263116411116
11.095631999999998,8.091396302757026,0.0766986189107318
11.099723999999998,8.067366609725115,0.0762841546849116
11.103756,8.046139292218177,0.0758531320725357
11.107803999999998,8.03612147681112,0.0753609029914781
11.111847999999998,8.026779428479205,0.0748759853544239
11.115888000000002,8.016207988572473,0.074409938759531
11.119984,8.008217474390841,0.0739408905739675
11.123975999999995,8.005942436159087,0.0734384086473769
11.128055999999996,8.007034815627508,0.0729359240941722
11.132032,8.009700179046083,0.0724394073127354
11.136059999999995,8.015057193089696,0.0719350394994958
11.140095999999996,8.014588006283496,0.0714678774790243
11.144119999999996,8.017818411877279,0.0709856094498092
11.148208,8.025756351645992,0.0704790465303605
11.152260000000002,8.033694291414704,0.0699727710196634
11.156291999999995,8.041410781383547,0.0694770068293037
11.160327999999996,8.05473202240233,0.0689545220761086
11.164416,8.073436564671185,0.0684163096279826
11.168468,8.095275657164814,0.0678508032123236
11.172499999999996,8.1190199083084,0.0672758805930377
11.176596,8.140969725701966,0.0667064720282314
11.180691999999995,8.162587368395725,0.0661551663945557
11.184788,8.18218912753959,0.0656210482268828
11.188883999999998,8.192154368533728,0.0651414751765251
11.192984,8.200214450877908,0.0646713730871759
11.197076,8.207266591447143,0.0642078088405895
11.201176,8.207816764091422,0.0637679585478064
11.205268,8.203548677660839,0.0633546257697706
11.209363999999995,8.197818332180036,0.0629302552963845
11.21346,8.18749117742424,0.0625188702224787
11.217560000000002,8.176266805793432,0.062109521425864
