Time,Force,Position
9.12032,6.024569302088928,0.1435412479631908
9.124403999999998,6.018506781908321,0.1430662203557384
9.128432,6.010184093026884,0.1425479133353935
9.132511999999998,5.998161811745468,0.1420989998837695
9.136612,5.984688689089364,0.1417070006476526
9.140704,5.97245637568361,0.1413277498515632
9.144759999999998,5.961354146628269,0.1409694111684123
9.148792,5.952844260973564,0.1406300969215637
9.152884,5.944788692594129,0.140309162713642
9.15698,5.937519616189771,0.1399815753098321
9.161072,5.928123931335585,0.1397074725470128
9.165072,5.922317113981448,0.1393772225303083
9.169111999999998,5.918526180177202,0.1390019958135701
9.17316,5.914181621873284,0.1386705329308616
9.177248,5.9074890053196665,0.1384078042947175
9.181283999999998,5.902480097616137,0.1381248052359896
9.18538,5.897581914812544,0.1378330101445803
9.189476,5.893580948883962,0.1375265240022307
9.193572,5.8943982420302445,0.1371236588603345
9.19762,5.893753276126308,0.1367226793905305
9.201719999999998,5.896021410647276,0.1362633543856767
9.205816,5.89929748694319,0.1357816887971285
9.209864,5.908178314289045,0.13521020441809
9.213908,5.912130157660103,0.1347367665412809
9.217896,5.9115959166561,0.1343279277867835
9.221992,5.912401792126849,0.133873231178259
9.226088,5.91242117562252,0.1334215774795631
9.230183999999998,5.912883458717932,0.1329362943544374
9.234156,5.91435368358829,0.1324276968859692
9.238187999999996,5.915823908458647,0.1319179518111274
9.242183999999998,5.917859175504213,0.1314205111291254
9.246288,5.9178785589998855,0.1309679793673983
9.250384,5.918008667395493,0.1305089207441508
9.254435999999998,5.916455066941011,0.1300668986587973
9.25848,5.92072766733634,0.1295161279860661
9.262476,5.926794701481691,0.1289417968491787
9.266576,5.926703360077427,0.1284974949144254
9.270671999999998,5.9243746853234,0.1281103776532685
9.27472,5.919808677219611,0.1277819916096381
9.278712,5.91648347836617,0.1274712128698357
9.28276,5.910920946162966,0.1272198086304689
9.286791999999998,5.903342530409869,0.1270100419783169
9.290879999999998,5.887700580457199,0.1269675963860909
9.294971999999998,5.879679265104362,0.1267918599518424
9.299008,5.876819801201727,0.126558697969067
9.30304,5.872177321224601,0.1264058090986402
9.307136,5.871688750922729,0.1262177957881
9.311163999999998,5.868630672571291,0.1261127590329871
9.315192,5.8679320701450814,0.1259969794141452
9.319228,5.871719552093932,0.1258224308931786
9.323263999999998,5.877301467792806,0.1256249746733657
9.32734,5.883780600366691,0.1254164254406893
9.331416,5.888698166665957,0.12527009230805
9.335444,5.89249706629034,0.1251514297091266
9.339527999999998,5.894845124540037,0.1250871698320499
9.343604,5.896639558290061,0.1250644195833779
9.347687999999998,5.907516885690138,0.1249186301480398
9.351768,5.9239989641401545,0.1246880052626591
9.355856,5.945077851865165,0.1243929872296715
9.359939999999998,5.965370247615099,0.1241023010211976
9.364031999999998,5.989583685564885,0.123743778367996
9.368119999999998,6.017385991014717,0.1233408758710176
9.372211999999998,6.047314904914378,0.1228878017896389
9.3763,6.072314834839242,0.1225291822032421
9.380388,6.096306822989158,0.1221931378770234
9.38448,6.119401594264064,0.1218665435744332
9.388564,6.138796773138986,0.1215944667087702
9.392644,6.161215777338749,0.1212636376620887
9.396736,6.182848289563435,0.1209387578800219
9.40082,6.200670484488204,0.1206773663839572
9.404908,6.217595462537961,0.1204287783165023
9.409,6.233512498812771,0.120199746021176
9.413087999999998,6.249761709787386,0.1199465918987119
9.417184,6.271504946912006,0.1196232544446447
9.421215999999998,6.290667258311527,0.1193249538943476
9.425307999999998,6.307248643985946,0.1190495543292052
9.429396,6.321249103935265,0.1188012969127088
9.433484,6.334241622109636,0.1185746590859478
9.437576,6.344431764759039,0.1183880345097595
9.441664,6.355408399383518,0.118199603958659
9.445752,6.361677499833068,0.1180776521255797
9.449839999999998,6.364025558082767,0.1180189883662019
9.453872,6.364468457682506,0.1179880682031322
9.457964,6.36782445770715,0.1179116337471071
9.462052,6.370726140456522,0.1178147963963631
9.466107999999998,6.374967939680645,0.1176771155777295
9.470204,6.38223356422961,0.1174871408153851
9.474235999999998,6.389609913678509,0.117290641146575
9.478324,6.398215654702224,0.1170634435620128
9.482376,6.407042845525808,0.1168213494770954
9.486463999999998,6.414518502199108,0.1165687485237205
9.490551999999996,6.4203104500223205,0.1163270501006406
9.494647999999998,6.4254266307703904,0.1160797927882843
9.4987,6.422467859643354,0.1159189393349515
9.502788,6.4196198134162525,0.1157500768319794
9.506875999999998,6.419795592513991,0.1155292337143559
9.510928,6.416714678811486,0.1153235291466957
9.514955999999998,6.408250463858911,0.1151752221624767
9.519047999999998,6.400339873406012,0.1149883009324488
9.523091999999998,6.38984835722801,0.1148223112202631
9.527188,6.3834993330497305,0.114579476502966
9.531232,6.38039558399616,0.1142694464392768
9.535276,6.381323602042377,0.1138908985944037
9.539383999999998,6.3776548108136,0.1135671465590157
9.543428,6.372756628010006,0.1132754420308157
9.547528,6.36785844520641,0.1129836891846883
9.551568,6.358363453127823,0.1127458961964028
9.555647999999998,6.348081969074159,0.1125095879532934
9.559687999999998,6.331974284170683,0.112358600348828
9.563724,6.314072165517184,0.1122255108031072
9.567776,6.298750972588786,0.1120711618291321
9.571867999999998,6.288469488535121,0.1118326898349132
9.575968,6.28188759688144,0.1115509170234966
9.579999999999998,6.280910456277699,0.1111989556033944
9.583983999999996,6.280044040573891,0.1108386990289859
9.588072,6.277272466220126,0.1105040351826993
9.592123999999998,6.278986976241419,0.1101250749561989
9.596159999999998,6.285519745337577,0.1096779504366964
9.600255999999998,6.293625498383888,0.1092311919554314
9.60436,6.3038578598800274,0.1087437990373755
9.608415999999998,6.309947729376446,0.1083296075740862
9.612512,6.316037598872863,0.1079176088134924
9.61656,6.322016743469344,0.1075166539520599
9.6206,6.33281414714069,0.1070520201235518
9.624631999999998,6.344619492586983,0.106571492913785
9.628723999999998,6.354408954483382,0.1061216533312863
9.632811999999998,6.368684500754841,0.105630506995498
9.636903999999998,6.382849322126365,0.105148053992811
9.640992,6.402618894547829,0.1046000021689961
9.645024,6.425190842494263,0.1040204234811564
9.649048,6.442833806465899,0.1035114262945511
9.653076,6.457120770412889,0.1030756495978946
9.657111999999998,6.46647875038508,0.1027110451114118
9.661136,6.476733947232283,0.1023414888823794
9.665164,6.486435519579812,0.1020076081266875
9.669144,6.499947409227259,0.1016302332803997
9.67318,6.5131271241749005,0.1012784447619095
9.677208,6.525863939522803,0.1009576675718433
9.68124,6.534790437570789,0.1006820196063806
9.685275999999998,6.546076411544004,0.1004079622133044
9.689363999999998,6.559488993967048,0.1000971068448677
9.693403999999996,6.572790851490158,0.0997955482242338
9.69744,6.584187550363311,0.0995175576610229
9.701476,6.594354857661648,0.099270193297274
9.705564,6.605419381834994,0.0990168666382633
9.709656,6.619064831733442,0.0987492610201858
9.713743999999998,6.633718223406836,0.09847123410632
9.717828,6.649268831955243,0.0981877143312418
9.72192,6.659214689453708,0.0979584586872926
9.726008,6.6699470389272495,0.0977313686343728
9.7301,6.684932605300449,0.0974354311590693
9.73418,6.699353129498442,0.0971253602584923
9.738267999999998,6.715900262146263,0.0967804054886055
9.742296,6.726621193944273,0.0965029647009497
9.746379999999998,6.740808850666864,0.0961576155803341
9.750408,6.75017824831459,0.0958677587697041
9.754487999999998,6.753045678037364,0.0956369133523882
9.758568,6.754450848709918,0.095398549167595
9.762652,6.758658394907445,0.0951332550425457
9.766692,6.760617190079673,0.0948613632608998
9.770771999999996,6.762354535452033,0.094603586690442
9.77486,6.764202605724327,0.0943399385827326
9.778948,6.7642562422465975,0.0940884808485026
9.783027999999998,6.760831736168756,0.093854917764422
9.787104,6.753929087490802,0.0936391608126066
9.791135999999998,6.746572121537574,0.0934021076026497
9.795123999999998,6.730918753909371,0.0932344377340347
9.799108,6.71268446055607,0.0930777813234653
9.803083999999998,6.700387092952511,0.0928482304732629
9.807168,6.682706424098882,0.0926551555303949
9.811215999999998,6.659986046370519,0.0925269280595153
9.815276,6.637154943742221,0.0924046722407942
9.819308,6.614323841113923,0.0922810929301446
9.823356,6.597540389135307,0.0920781369472807
9.827392,6.575041461206814,0.0919313294874313
9.831488,6.552542533278321,0.0917841238606547
9.835524,6.5360912559995095,0.0915568841898062
9.839607999999998,6.52143441247072,0.0913166593868996
9.843643999999998,6.504085918316896,0.0910939180828406
9.847739999999998,6.483381424138427,0.0909307136612806
9.851727999999998,6.463009104659763,0.0907453565765973
9.85578,6.439834409656127,0.0905839433390182
9.859863999999998,6.4155410479776105,0.0904422771730146
9.863951999999998,6.394836553799143,0.090275612155751
9.868036,6.382207011495779,0.0900547425650068
9.872063999999998,6.367450860742588,0.0898659804652588
9.876148,6.357967286339532,0.0896476259968482
9.880228,6.349048754111685,0.0894439104811077
9.884228,6.337892888534076,0.0892805022191307
9.888275999999998,6.331223107331525,0.0890868388834435
9.892319999999998,6.332960452703883,0.088819202674462
9.89642,6.337278723801344,0.0885418380909301
9.900455999999998,6.3420513121740765,0.0882877047362365
9.904488,6.3473889427220165,0.0880516669195861
9.908572,6.356093990970134,0.0878058094577248
9.912664,6.368498631618233,0.0875307663898946
9.916695999999998,6.382254806416616,0.0872757439549916
9.920696,6.396686748290141,0.0870313803004416
9.924732,6.412802399013755,0.0867828170470232
9.928715999999998,6.431044658187198,0.0865005356770501
9.932803999999996,6.4508599013107935,0.0862239954125279
9.936888,6.472248128384544,0.08595008515083
9.940963999999996,6.501035540258259,0.0856209904690525
9.945003999999996,6.527020576607004,0.0853153369740518
9.94908,6.541685385955931,0.0851087501577189
9.953124,6.56386010500476,0.0848423100700406
9.957203999999996,6.589058649378426,0.0845422199931904
9.961295999999995,6.619186177726894,0.0841924076556847
9.965328,6.647519272325334,0.0838520962070445
9.969416,6.674844425148829,0.0835254088454228
9.973503999999998,6.698580710472277,0.0832241467950973
9.977584,6.719736070070625,0.0829321003582275
9.981664,6.739761345318558,0.0826102299188159
9.985744,6.755411261091369,0.0823071485672761
9.989828,6.776211610638845,0.081944819727381
9.993855999999996,6.794431034461223,0.0815914661848832
9.99794,6.807488606833399,0.0812528732877594
10.002015999999998,6.817178761505397,0.0809196430925104
10.0061,6.828098307752211,0.0805634605308087
10.010132,6.840136520673908,0.0801901678495593
10.014215999999998,6.849593807870503,0.079824671516875
10.018304,6.860501936441784,0.0794234505304263
10.022396,6.864564504712775,0.079038282756788
10.026484,6.872769564983489,0.0786049431501572
10.030572,6.889148884353711,0.0780782589545162
10.034612,6.896556034973813,0.0775951320282327
10.038708,6.89869060924378,0.0771301155471937
10.042804,6.895441882263677,0.0766900339774756
10.046896,6.8972328641583065,0.0761999374667471
10.050984,6.902379846077582,0.0756632875730724
10.055015999999998,6.904048685396745,0.0751342010101847
10.059064,6.908852074940682,0.0745705740744506
10.063147999999998,6.912536797809738,0.0740219845732778
10.067248,6.918015954428816,0.0734657451732598
10.071331999999998,6.919684793747979,0.0729412132818705
10.075367999999996,6.922361574842089,0.0724071305707463
10.079463999999998,6.927840731461169,0.0718557074459036
10.083564,6.9353357716301405,0.0712849246004797
10.087656,6.940028436274143,0.0707301788471584
10.091752,6.944610376018209,0.0701826385920788
10.095852,6.945271273562426,0.0696624294107846
10.099947999999998,6.944027012456683,0.0691553399412994
10.10398,6.946150169051117,0.0686483459364812
10.108072,6.945138775420777,0.0681766008020635
10.112164,6.941668598640804,0.0677497075581087
10.116256,6.939660680911049,0.067333082172229
10.120283999999998,6.943146789331301,0.0668943502363359
10.124371999999996,6.946411447951683,0.0664664976915139
10.12846,6.947660223022171,0.0660595453450203
10.132496,6.942750622543044,0.0657118345392777
10.136584,6.939414006014073,0.0653700034195851
10.140672,6.934847997910283,0.0650507131917016
10.144755999999996,6.934768074181553,0.0647202148463854
10.148784,6.934688150452824,0.0643900277853009
10.152863999999996,6.934608226724094,0.0640611015279229
10.156948,6.935204070070505,0.0637430109452562
10.161027999999998,6.935467738717112,0.0634435582141884
10.165108,6.935509957563851,0.0631567113114716
10.169144,6.940148985685582,0.0628545285422168
10.173232,6.947701114232219,0.0625364036635595
10.177315999999998,6.96309532717856,0.0621667467345952
10.181344,6.978268090325031,0.0618093256689019
10.18542,6.988733319296573,0.061472450709109
10.189452,7.000206490043063,0.0611279761953748
10.193528,7.011901110589422,0.0607719880656951
10.197608,7.026730281360554,0.06038706019622
10.201708,7.035733251281878,0.0600374670034843
10.205748,7.04944375537813,0.0596689997923917
10.209792,7.060241159049476,0.0593178544434855
10.21388,7.072267954295639,0.0589450358833675
10.21798,7.085413416216684,0.0585590509937167
10.222072,7.094970010637682,0.0581790053157328
10.226132,7.100937737558632,0.0578065196754993
10.230228,7.1080241311544645,0.0574220276201853
