Time,Force,Position
8.31174,5.121335623325317,0.1422666364071375
8.315771999999999,5.13362953907348,0.1418040898588946
8.31986,5.150852438796442,0.1412219243570505
8.323948,5.168751105594547,0.1406394844713125
8.328044,5.1825072803929295,0.1401754817287881
8.332063999999999,5.193693947141746,0.139813867936153
8.336096,5.202643280540799,0.1395249365748028
8.340124,5.215181481439901,0.1391730739676985
8.344159999999999,5.22704391526386,0.1388144239428887
8.348244,5.23576038118751,0.138482952135449
8.352331999999999,5.238196328986078,0.1382654156238486
8.356372,5.2379292084840765,0.1380330900821675
8.36046,5.236199828931856,0.1378028793372394
8.364492,5.236375608029592,0.1375314995557922
8.36858,5.236440662227396,0.1372693268685088
8.372664,5.230790240475322,0.1371303561090762
8.376748,5.225250543623183,0.1369808704116802
8.380851999999999,5.221616005421003,0.1367892763961404
8.38494,5.210693007318794,0.1367351239036088
8.389024,5.2041339510161775,0.1365462840536846
8.393075999999999,5.193420985038307,0.1364066725016297
8.397164,5.178111209785441,0.1363538370732182
8.401252,5.161904217657565,0.1363127363494096
8.405296,5.147823833979516,0.1362111338149857
8.409336,5.136656550726371,0.1360438982654929
8.413432,5.126497209248172,0.1358515244179016
8.417475999999999,5.116337867769973,0.135658405247495
8.421555999999999,5.105170584516828,0.1354895607038375
8.42564,5.096019184813576,0.1352701291230238
8.429736,5.085416943735639,0.1351149451598701
8.433764,5.077617078182671,0.1349037755399219
8.437804,5.069374313029965,0.1347318560621968
8.44188,5.061131547877258,0.1345593353984219
8.445908,5.054683216474574,0.1343561654622723
8.449995999999999,5.052045202371808,0.1340739002528492
8.454036,5.056806373069008,0.1336500818867103
8.458128,5.063251252616293,0.1332071401961358
8.462228,5.0704826241386565,0.1327632154522152
8.466268,5.081978630236211,0.132256849732498
8.470291999999999,5.09011863630912,0.1318570044322069
8.47438,5.100839568107128,0.1314226827147087
8.478408,5.111449775005202,0.130997005409555
8.482444,5.116455230853336,0.1306798078290529
8.486476,5.119666252951445,0.130393190141809
8.490528,5.121082841299533,0.1301366446437477
8.49462,5.123728821222437,0.129835840061213
8.498719999999999,5.128169234895365,0.1295050159719286
8.502828,5.128123564193233,0.1292462127211217
8.506915999999999,5.128864385466179,0.1289834803620352
8.51102,5.13105604811381,0.1286549659885207
8.515068,5.131674726811288,0.1283362638787993
8.519172,5.134752188658398,0.1279294117766493
8.52322,5.140853475830348,0.1274518338000799
8.527268,5.142357953727306,0.1270570823777018
8.53136,5.141060056099292,0.1267166782069251
8.535447999999999,5.137181232746179,0.126408564711615
8.539484,5.127919108142993,0.1261816683230343
8.54352,5.114060174264814,0.1260331065879113
8.547564,5.10445445728629,0.125770628382612
8.551596,5.09596740698265,0.1254748251234453
8.555691999999999,5.084677981154039,0.1252291894698024
8.559776,5.0745072220003085,0.1249496770081375
8.563872,5.067925330346626,0.1246138335629708
8.567919999999999,5.059106105343181,0.1243436089975913
8.57202,5.04995470563993,0.124102272380687
8.575947999999999,5.039573914361863,0.1239037663446371
8.579984,5.030876831933886,0.123687203531991
8.584068,5.023752733456062,0.1234613590769265
8.588096,5.015399243403421,0.1232794054228516
8.592179999999999,5.010523895950892,0.1230518320858436
8.645228,4.946970989716333,0.1229523044003176
8.649312,4.955610983766646,0.1228487127340943
8.653395999999999,4.96683190354206,0.1227152825352548
8.657487999999999,4.981420241017651,0.1225496190978042
8.661576,4.99701652026819,0.1223656644067452
8.665668,5.018106825668735,0.1220969588077814
8.66976,5.042442406193989,0.1217469297490571
8.673855999999999,5.063864886294338,0.1214579273814049
8.677944,5.0816984988946405,0.1212171019136228
8.682032,5.101437270144899,0.1209439999579595
8.686124,5.126437200069764,0.1205404583251538
8.69022,5.151547854894562,0.1201279713188647
8.694315999999999,5.182595435469106,0.1195885323851261
8.698407999999999,5.213532291143714,0.1190626708264152
8.702499999999999,5.244014829543051,0.1185210796780803
8.706596,5.277299743467356,0.1179369752822062
8.710628,5.309343848141314,0.1173326129617781
8.714716,5.336569693740408,0.1168235088587846
8.718803999999999,5.365135655814253,0.1162681046629609
8.722892,5.393468750412695,0.1156673920158236
8.726975999999999,5.414734834910979,0.1151533941914026
8.731067999999999,5.437119586084141,0.1146217866104487
8.735156,5.456136919557127,0.1141179854947447
8.739248,5.4739134437797645,0.1135978775098743
8.743324,5.486085216952461,0.1131640227918049
8.747408,5.491865747100141,0.1128184968241978
8.7515,5.492606568373086,0.1125741574288618
8.755583999999999,5.492560897670955,0.112331556558049
8.75968,5.50103307844367,0.1119567155570763
8.763772,5.504011233066378,0.1116551496521069
8.767828,5.506878662789152,0.1113651949715125
8.771863999999999,5.5086274258370445,0.111103177646033
8.775952,5.506455146685084,0.1109107291999238
8.779992,5.501591216908089,0.1107502924662638
8.784084,5.49359273690632,0.1106574083814819
8.788167999999999,5.483578373354657,0.1106031019649491
8.792256,5.476709977703301,0.1105412127123005
8.796235999999999,5.47275468247685,0.1104304547216707
8.80032,5.467680720575519,0.1103473479133452
8.804295999999999,5.465076959499352,0.1102508046617046
8.808335999999999,5.468753716548268,0.110082734488296
8.812363999999999,5.467390764722451,0.1100093450990202
8.816396,5.4696166803966815,0.1098958717053659
8.820492,5.471510421371105,0.1098088444618463
8.824472,5.477890246720591,0.109672096499893
8.8285,5.4916692568700425,0.1094405494994512
8.832484,5.508361367444396,0.1091616200144903
8.836584,5.526737186868838,0.1088718454295432
8.840667999999999,5.538389588568459,0.1086886843167416
8.844704,5.55564674131802,0.1084299669312359
8.848744,5.57458760291767,0.1081658782079717
8.852844,5.5956550729671495,0.1078580249142053
8.856843999999999,5.622548743866437,0.1074628477974798
8.86094,5.653252732065644,0.1070143822886368
8.864988,5.689893646014595,0.106475274714355
8.869083999999999,5.728661168413375,0.1058977054416109
8.873132,5.76193466466215,0.1053828071034869
8.877104,5.792405785385954,0.104906436819216
8.881191999999999,5.823774122984768,0.104423323065594
8.885219999999999,5.852561534858482,0.1039616499767075
8.88922,5.87776007923215,0.1035385997000434
8.893251999999999,5.901385639655664,0.1031128007711001
8.89728,5.921643782379,0.102707720954703
8.901375999999999,5.936075724252524,0.1023850648020313
8.90536,5.946918798626004,0.1020982768939781
8.909404,5.952489296649345,0.1018594339025314
8.913456,5.953573710297627,0.1016635533581296
8.917492,5.955998240420662,0.1014275422077475
8.921579999999999,5.956739061693609,0.1011993210903637
8.925628,5.959274316716578,0.1009563912901993
8.929715999999999,5.956536995389412,0.1007571773425324
8.9338,5.955594107812269,0.1005424353358389
8.937783999999999,5.94725203543516,0.1004096963334663
8.941823999999999,5.9381234710829744,0.1002769324410545
8.945912,5.923279430780914,0.1002152044471078
8.949952,5.905300840254079,0.1002080929961327
8.953999999999999,5.893369900376924,0.1001059848008137
8.958096,5.880431018724822,0.1000195140118113
8.962183999999999,5.869397295722679,0.0999091035391027
8.96628,5.861841715320649,0.099775490346602
8.970376,5.855294076693565,0.0996261197196474
8.974423999999999,5.85345397224141,0.0994227047621784
8.978508,5.8549812854894325,0.0992046082021329
8.982591999999999,5.865580074711975,0.09884822976328
8.986671999999999,5.8794241390592274,0.0984306644572058
8.990699999999999,5.893943970481622,0.0980213864206567
8.994784,5.914744320029099,0.0975591707055689
8.998823999999999,5.9334180611267495,0.0971387498192584
9.002912,5.956688611499391,0.0966736199539782
9.006884,5.973567918847018,0.096269777961326
9.010964,5.99123371816972,0.0958647891934367
9.015052,6.002618999367341,0.095511440897199
9.019052,6.01983048141477,0.0950832020639249
9.02308,6.036931238562267,0.0946659102314151
9.02712,6.0532455037346855,0.0942464604408503
9.031152,6.068994726731898,0.0938086551234481
9.035244,6.081830849304203,0.0934124247085697
9.03934,6.098809463876231,0.0929506380287637
9.043432,6.110404777198187,0.0925319206357966
9.047464,6.116727514170006,0.0921477055962582
9.051516,6.122263759166749,0.0917627738314866
9.055616,6.125894845513535,0.0914010086983577
9.059708,6.126945006135219,0.0910526223973686
9.063764,6.122168965907093,0.0907755880590898
9.06786,6.112353216804234,0.0905682173386579
9.071908,6.10376685927619,0.0903313971204201
9.075956,6.091923808947905,0.0900975714222457
9.080004,6.078618499569399,0.0898527631749067
9.084044,6.065534639990764,0.0895931396650423
9.08814,6.057490489286862,0.0892644386241434
9.092172,6.047873354632809,0.0889311971356526
9.096268,6.042853029253746,0.0885582366579024
9.100296,6.034587428749977,0.0882415907506137
9.104392,6.025646061171064,0.0879160443420627
9.108472,6.01670469359215,0.087588713032522
9.112556,6.011573643313152,0.0872223818042654
9.116604,6.004315984584327,0.086889494003182
9.120692,5.993923775630728,0.0866043298792567
9.124776,5.987231159077111,0.0862874342447882
9.128864,5.981435759398506,0.0859625549489375
9.132892,5.976426851694977,0.085638948325715
9.13692,5.970520727116436,0.0853206526623846
9.140964,5.965733269212778,0.0849810230662428
9.14506,5.9636374619341534,0.0846239180484378
9.149028,5.966359913730394,0.0842141428122816
9.153128,5.969868857501712,0.0838090235517156
9.157212,5.976180176798,0.0833817894845366
9.161308,5.981937871594613,0.0829899247704854
9.165388,5.985790407741267,0.0826185354549601
9.169476,5.98247662656336,0.0823433563237216
9.173536,5.981743771110554,0.0820586412344656
9.177584,5.978097815232842,0.0818046282892182
9.181664,5.976578467804959,0.0815175180498486
9.185716,5.9757348874522185,0.0812408718913436
9.18976,5.975899248874424,0.0809505244759472
9.193852,5.974047726746736,0.0806864481757934
9.197896,5.9752200299438885,0.0803845245608731
9.201928,5.976503058040976,0.080074379603317
9.20602,5.976778144363116,0.0797775027040087
9.2101,5.98053137328537,0.0794686302498326
9.214144,5.983276660432675,0.079171941791731
9.218228,5.99050803195504,0.0788529947263687
9.22228,5.999423112327494,0.0785341377905767
9.22628,6.009346134474895,0.0782057962074696
9.230308,6.018150489947414,0.0778979031965382
9.234388,6.022136586345069,0.0776344834942868
9.238468,6.024782566267973,0.07740634882542
9.242512,6.030673821315588,0.0771285961035393
9.24654,6.034438467913373,0.0768808973499148
9.25062,6.046831690885939,0.0765570353588723
9.2547,6.060011405833583,0.0762373038110556
9.258784,6.077001438081143,0.0758867047714362
9.262864,6.0929835285537575,0.0755495450357103
9.266892,6.109076343926305,0.075207625300495
9.270976,6.127860809923889,0.0748555980709969
9.275064,6.14574805904646,0.0745081060686892
9.279152,6.16442180014411,0.0741670170023334
9.28324,6.182087599466812,0.0738360276179523
9.287328,6.200872065464396,0.0734890657291638
9.291412,6.220996647936731,0.0731148012495042
9.2955,6.246050214383866,0.0726978158489786
9.299584,6.265831204480864,0.072298655192902
9.303668,6.280793935502998,0.0719384572071823
9.307752,6.293065015900096,0.0715906646291363
9.311836,6.306676212771946,0.0712134592220058
9.315876,6.321406076318678,0.0708162064706793
9.319964,6.335238722990398,0.0704234753710617
9.324056,6.34884991986225,0.070047212681943
9.328136,6.3627932914339045,0.0696482483848408
9.332224,6.373258520405445,0.0692593537333957
9.336308,6.381253548551822,0.0688662933898702
9.340392,6.385548984298215,0.0684933799245599
9.344476,6.388160711194521,0.0681191782760122
9.348564,6.386175628815833,0.0677659621716157
9.352648,6.38127744601224,0.0674361748660351
9.356732,6.377387204983592,0.0670961170962378
9.36082,6.368113662704875,0.066772701587698
9.364904,6.360966728875984,0.0664217037883094
9.368944,6.352811853272147,0.0660807490322626
9.373032,6.3409573852683305,0.0657580377940015
9.377032,6.322490224439623,0.0654739397008671
9.381124,6.305031005385863,0.0651784103032369
9.385208,6.293619436981784,0.0648261579938659
9.389292,6.28209714367777,0.0644795113924872
9.393384,6.268448241923928,0.0641576337485222
9.39748,6.257601715695056,0.0638210457626277
9.40148,6.248206030840871,0.0634483048058439
9.405576,6.236229420261584,0.0630747822648244
9.409664,6.228960343857227,0.062677042291681
9.413708,6.221580542552935,0.0622859829243024
9.417792,6.21801105854856,0.0618734187058593
9.421832,6.214552299444119,0.061451981488864
9.425868,6.214903857639597,0.0610097940359944
9.429904,6.220970891784949,0.0605356271135949
9.433944,6.231180417930024,0.0600232540684477
9.438024,6.243405827624991,0.0594972245756671
9.442068,6.260449496394822,0.0589420870180399
9.446056,6.280295540689624,0.0583805486726706
9.450096,6.297449934359388,0.0578228924999229
9.454184,6.313596386254208,0.0572728096208149
9.458244,6.331869446598855,0.0566984549774006
9.46228,6.348913115368686,0.0561444690267826
9.466376,6.361249249963588,0.0556137468829539
9.470476,6.373917559258294,0.0550630434727853
9.474524,6.390728360552724,0.0544784226086853
9.478624,6.404958236122051,0.0538914406264986
9.48272,6.414369852616516,0.0533288666906509
9.486772,6.42680529443582,0.0527447751162156
9.490856,6.4325173185303015,0.0521934106118219
9.494964,6.436656358674629,0.0516299871518235
9.499064,6.437882298394052,0.0510836196514022
9.5031,6.441013396763433,0.0505286955023284
9.5072,6.441120669807974,0.0499966919094779
9.511256,6.435401742002703,0.0494927193238731
9.51536,6.422848671572679,0.0490236483280232
9.519392,6.403461458517894,0.0485874565223107
9.52344,6.379255986388247,0.0481695393023652
