Time,Force,Position
11.702823999999996,16.0848735039524,0.1373124071942083
11.706855999999998,16.091792084270637,0.1370073953428647
11.710852,16.089372068112347,0.1367016567559998
11.714932,16.07672765627806,0.1364201480198711
11.719008,16.057115541568013,0.1361517233430479
11.723088,16.036140475032152,0.1358595462272803
11.727116,16.01190871569605,0.13557718537577
11.731196,15.98856275555942,0.1352687573813571
11.73528,15.961849377722618,0.134972925555844
11.739307999999998,15.936919015960305,0.1346462190273581
11.743348,15.917704130147865,0.1342797925831106
11.747427999999996,15.899718635910242,0.133898341841636
11.751512000000002,15.883084675822904,0.1335197387418427
11.75554,15.869363816160472,0.1331196491287351
11.759592,15.852619131173196,0.1327433838980023
11.763684,15.842044239411072,0.1323359817738323
11.767776,15.830583548449468,0.1319536649457754
11.771855999999996,15.818015608488516,0.1316030633184593
11.775944,15.807364244853051,0.1312598505460535
11.780019999999997,15.801321108168118,0.1309100370481731
11.784103999999996,15.797305272708613,0.1305654147013064
11.788188000000002,15.793411579824568,0.1302378557358164
11.792227999999998,15.793339621915978,0.12990551496629
11.796324000000002,15.799216007432666,0.1295496750103225
11.800416000000002,15.807230419074711,0.1291950948915418
11.804508000000002,15.81626419016724,0.1288530597726858
11.808595999999998,15.82787888698487,0.1285002277813642
11.812684,15.837599842828077,0.1281805105715364
11.816771999999997,15.85248265012148,0.1278396322539421
11.820863999999997,15.864795949365316,0.1275303740951088
11.824947999999996,15.874085423284312,0.127244664243213
11.829032000000002,15.883374897203304,0.1269591159478381
11.833119999999996,15.8900834453972,0.1266842303637685
11.837203999999996,15.895562602016282,0.1264235372617875
11.841292,15.903057642185257,0.1261475979918437
11.845380000000002,15.909201148203945,0.1258688468605854
11.849467999999998,15.919930045822094,0.1255451573680743
11.853556,15.928742367114753,0.1252126301378265
11.857651999999998,15.93474089520691,0.1248753826738634
11.861695999999998,15.93490180477372,0.1245561228407448
11.865787999999998,15.92990086289033,0.1242567366235545
11.869876,15.92365911175659,0.123949917967954
11.873963999999996,15.918081710022465,0.1236248047193967
11.87806,15.911374223937916,0.1232901170351131
11.882147999999995,15.906006854328126,0.122938710523744
11.886244,15.9032089927679,0.1225573455410923
11.890275999999997,15.900632581007546,0.1221701293134978
11.894311999999996,15.899728460421745,0.1217567151081564
11.898396000000002,15.897362080785728,0.1213432058157236
11.902488000000002,15.897343759399408,0.1209058847244688
11.906575999999998,15.89934132156298,0.1204540414843717
11.910664,15.902568275301372,0.119989221870166
11.914756,15.90511946196462,0.1195215116958771
11.918843999999996,15.908900040202685,0.1190407274876384
11.922928000000002,15.913910010015565,0.1185476887225864
11.927012,15.916006879403538,0.1180726238236191
11.931099999999995,15.911834648341964,0.1176464447484163
11.935191999999995,15.913832210505536,0.1171963949231244
11.93928,15.91987295744443,0.1167386768587653
11.943367999999996,15.933767206458558,0.1162523161666324
11.947464,15.95304475672276,0.115742900945025
11.951551999999996,15.975800449587071,0.115221498000073
11.955636000000002,15.995532317126544,0.1147217106713357
11.959735999999996,16.015607777041357,0.1142348261117443
11.963764,16.036359004031308,0.1137516867529658
11.967848,16.057675273196466,0.1132761810846491
11.971932,16.078770092561758,0.1128078350053091
11.976012,16.09953273722724,0.112349078339335
11.980091999999996,16.1181687734429,0.1119070190831994
11.984171999999996,16.13669408475862,0.1114690505780477
11.988252,16.1545436289992,0.1110294322331148
11.992332,16.17273676561512,0.1106023777547005
11.996312,16.19440804483115,0.1101646018866893
12.000404,16.215857874247305,0.1097337370349124
12.004484,16.23686480406373,0.1093163668819858
12.00856,16.26235781825521,0.1088824807291332
12.012635999999995,16.29008816579645,0.1084296462044
12.016719999999996,16.310530053437663,0.1080081844782197
12.020811999999996,16.33275495715337,0.1075618758413461
12.024896000000002,16.34914224234373,0.1071285132147244
12.028972,16.358351792533995,0.1067213456463007
12.033052,16.36789351742407,0.1063066546474253
12.037131999999996,16.377324517414205,0.1058944842704446
12.041216000000002,16.381482941054205,0.1054984788531653
12.045303999999998,16.383060438969107,0.1051095124730948
12.049392,16.38082761958409,0.1047395697615299
12.053484,16.37601387447397,0.1043759700063089
12.057576,16.37400250488882,0.1040004518341773
12.061663999999997,16.373220526878494,0.1036128068184027
12.065752,16.370644115118136,0.1032313567689875
12.069836,16.366051819807886,0.1028614217969449
12.073924000000002,16.357305614822387,0.1024978115524437
12.077955999999997,16.35147251026179,0.102120385441123
12.082047999999997,16.345185088425914,0.1017344815522202
12.086147999999998,16.33743540753983,0.1013461341892342
12.090248,16.328112742703585,0.1009585439710029
12.09434,16.320805961417232,0.1005595790474247
12.098432,16.31921465608076,0.1001345155069177
12.102527999999996,16.31146497519467,0.0997466576927621
12.106624,16.304169611583855,0.0993665841586484
12.110719999999995,16.30528137454795,0.0989520814507736
12.114819999999998,16.306171687712176,0.0985442641559385
12.118911999999998,16.31008582620124,0.0981198129244312
12.123,16.32139914949027,0.0976677449039257
12.127092,16.33540412340433,0.0972080195971621
12.131184,16.349630547118263,0.0967422958522222
12.135279999999998,16.36733511343231,0.0962688932248354
12.139368,16.383134521096398,0.0958051606989137
12.143455999999995,16.400617637610576,0.0953399604067414
12.147552,16.41967373807491,0.0948754467357848
12.151647999999998,16.440524272289263,0.0944054753730161
12.155731999999997,16.464066457128656,0.0939273451081077
12.15982,16.481438848742894,0.093466001523953
12.163907999999996,16.497471123882388,0.093018579048623
12.167999999999996,16.511598240371917,0.0925789137933763
12.172084000000002,16.52460669018657,0.0921479577535061
12.176168,16.532575431126485,0.0917434264382948
12.180252,16.53382075434158,0.0913672696697965
12.184344,16.542686712156506,0.0909609162924805
12.188376000000002,16.55468722019621,0.0905366061997199
12.192468000000002,16.56377462781101,0.0901265936087752
12.196507999999998,16.569383892825698,0.0897234377494839
12.200599999999998,16.57219078231541,0.0893304052420788
12.204648000000002,16.56580405325514,0.0889655517503886
12.208727999999995,16.557733615344777,0.0886027043091637
12.212776000000002,16.551568336084376,0.0882324072639751
12.21686,16.54080624754898,0.0878756501938113
12.220944,16.525668799538458,0.0875264092054367
12.22498,16.506831759127955,0.0871883590018816
12.229072,16.488437618317192,0.0868391239098574
12.233119999999996,16.47306730283127,0.0864752477886198
12.23716,16.45971287089524,0.0861016330623183
12.241184,16.446702031334546,0.0857387736578746
12.245268,16.43794440867351,0.085351227169745
12.249343999999995,16.43445936236261,0.0849543043846085
12.253396,16.433100924501538,0.0845455021411196
12.257488,16.440481787915186,0.084103032141114
12.261571999999996,16.45436461925378,0.0836410890480889
12.265675999999996,16.464326408392527,0.0831970326247219
12.26978,16.471153647306494,0.0827700461699674
12.273875999999998,16.476972944445517,0.0823480154103113
12.277903999999996,16.487167601059667,0.0819197161595154
12.281988000000002,16.501959066948807,0.081480498638141
12.286016,16.52863580201297,0.0810127605223007
12.290048000000002,16.556099029052213,0.0805468784704481
12.294132,16.585356689841483,0.080079356725207
12.298219999999995,16.621337768355566,0.0795898565882233
12.302316,16.66471803166962,0.0790821958676349
12.306403999999995,16.71471098780856,0.0785566734250453
12.310495999999995,16.76537971102264,0.0780371597238201
12.314584,16.816724201311864,0.0775249622918403
12.318671999999996,16.868855183576166,0.0770169070039347
12.32276,16.926247324515067,0.0764848454032176
12.326848000000002,16.981291407204274,0.0759719586933972
12.330879999999995,17.033865289068313,0.0754612741998062
12.334976,17.0874471127073,0.0749498329892853
12.339071999999998,17.135424185296344,0.074455776056133
12.343168000000002,17.183844157485133,0.0739547222428233
12.347264,17.234612187923613,0.0734406992520684
12.351359999999996,17.292435810786724,0.072902337495902
12.355456,17.355299142524565,0.0723478920306903
12.359551999999995,17.415692273437244,0.071794915114549
12.363587999999996,17.475520362174716,0.0712398774609462
12.367672000000002,17.530186599461985,0.0706915943987093
12.371708000000002,17.58608222832407,0.0701370868099833
12.375792,17.639396931461054,0.0695861081882141
12.379828,17.693043809297844,0.0690321286732979
12.383864,17.743101819634585,0.0684853976004541
12.387896,17.7858713700713,0.0679517284482093
12.391935999999998,17.829981036982762,0.067409965198876
12.396067999999996,17.87284989464388,0.0668612430912173
12.400108,17.915940202104856,0.0663107218571768
12.404140000000002,17.95533091716586,0.0657691571602205
12.408168,17.995164531826603,0.0652195206823069
12.412195999999998,18.03544104608709,0.0646622025396425
12.416276,18.070899301272703,0.0641178563377261
12.420315999999996,18.10546033958331,0.0635749588248326
12.424407999999996,18.13520311881905,0.0630447803194267
12.428496,18.16001691407999,0.0625293436287455
12.432523999999995,18.17810729161611,0.0620310576497299
12.436604,18.19048219320236,0.061546000977018
12.440684,18.205659470313577,0.0610576309456387
12.44476,18.214899821675047,0.0605856709224607
12.448843999999998,18.222910781461703,0.0601219730031314
12.452920000000002,18.22789791592352,0.0596677718267589
12.456956000000002,18.22997194996043,0.0592196457963661
12.460992,18.225211841372577,0.0587878892677414
12.465023999999996,18.22045173278473,0.0583561130846184
12.46912,18.22118565034689,0.0579185795278194
12.473151999999995,18.2179985257092,0.0574907676535847
12.477239999999998,18.208653025521887,0.0570819295901658
12.481323999999995,18.19437854135978,0.0566848979622644
12.485407999999996,18.176637332273096,0.0563047064674982
12.489444000000002,18.15385641431168,0.0559375401073953
12.493475999999998,18.125592887875783,0.0555925329290892
