Time,Force,Position
9.407812,13.132818766332772,0.1342233196181804
9.41184,13.13029944295008,0.1338857527910536
9.415932,13.133285563392926,0.1335342982015126
9.42002,13.143571561411337,0.1331572106618711
9.424104,13.158687236180144,0.1327647796106973
9.428132,13.17370360372455,0.1324025753694919
9.43218,13.192763156044272,0.1320277144169805
9.436264,13.217549601989404,0.1316345050863613
9.440292,13.245027698559571,0.1312252075980348
9.444376,13.280248572305045,0.1307776798656772
9.448416,13.322536456150676,0.1302907599999853
9.452504,13.372112799896335,0.1297595565937714
9.4566,13.424380794267028,0.1292150897542014
9.46068,13.4774352806128,0.1286707902633951
9.46476,13.53217347580866,0.1281207044744487
9.468844,13.588816829654478,0.1275602807210171
9.472932,13.644895141325089,0.1269977050541991
9.47702,13.700862728095768,0.1264417358754726
9.481104,13.749098955366676,0.1259473999619556
9.485188,13.800580457762292,0.1254219310881205
9.489272,13.845892166932764,0.1249344255647897
9.493356,13.892322542778112,0.1244360312176899
9.49744,13.935274776023352,0.1239564153569662
9.501524,13.973962374693402,0.1234964497639748
9.505608,14.011863481388376,0.1230404363461842
9.509696,14.049420995708012,0.1225740282953401
9.513784,14.087421409627389,0.1220967485953583
9.517872,14.12025997209656,0.1216444945928368
9.52196,14.152312042590657,0.1211952180904441
9.526048,14.18132887008438,0.1207502291628271
9.530144,14.205859613203046,0.1203307373102892
9.534232,14.22163963737146,0.1199526334249311
9.53832,14.233376476764558,0.1195848259002914
9.542416,14.245777665557265,0.1191974955916127
9.546508,14.260748362399536,0.1187789586687828
9.5506,14.2696599909166,0.1183854923906919
9.554696,14.27688791058357,0.1179981842407576
9.558792,14.28175635432531,0.1176141508014788
9.562824,14.293680390491676,0.1171753372002944
9.566916,14.301339792082857,0.1167527707974145
9.571008,14.307315484823944,0.11633558790731
9.5751,14.3129475851897,0.1159065891956155
9.579192,14.318125368280178,0.1154679763179453
9.58328,14.32341387627059,0.1150252992057287
9.587372,14.325334966560828,0.1145928964406915
9.59146,14.322548522676138,0.1141882500690166
9.595552,14.31662752856667,0.113810424216646
9.599588,14.309809317582191,0.1134363328421869
9.603676,14.300299455972675,0.1130743437427261
9.607652,14.290678869463228,0.1127158297133017
9.611692,14.280603965678504,0.1123473516240391
9.615784,14.27411792939383,0.1119615900374139
9.619824,14.26640250153434,0.111589227779204
9.623908,14.257457682100034,0.1112314980448486
9.627956,14.242686661815917,0.1109116820133027
9.63204,14.232512450806793,0.110567728232922
9.636036,14.219314414472828,0.1102450965164469
9.640128,14.207235044813746,0.109911087736678
9.644224,14.193471966304577,0.1095822451008671
9.64832,14.178479496220588,0.1092665177278879
9.65236,14.16158186748664,0.1089609345355742
9.656456,14.14367629697775,0.1086621928333676
9.660552,14.128462377093893,0.1083514315795353
9.664604,14.115153615859992,0.108029165865975
9.668648,14.105433722126142,0.1076912269590861
9.672732,14.09481661151728,0.1073554551239815
9.676832,14.085650342283104,0.1069988169077736
9.680884,14.076484073048926,0.1066414418256593
9.684988,14.071914613089746,0.1062617264887612
9.689088,14.065439994480606,0.1058926647466873
9.693192,14.06053835982162,0.1055226580884343
9.697288,14.051604958062844,0.1051803028125608
9.701388,14.047489815378936,0.1048092636828743
9.705472,14.042477455820014,0.104441895530466
9.709528,14.040046021986193,0.1040664627758895
9.713628,14.036385196577552,0.1037052690597806
9.71768,14.038550572018725,0.103308850665877
9.721776,14.04206748161018,0.1029192194375373
9.725876,14.041552624101849,0.1025571744527506
9.729972,14.045634575868512,0.1021742670370983
9.73402,14.05689426263527,0.101763910134949
9.738056,14.06692455782721,0.1013669482603072
9.742156,14.075725461444335,0.1009844078617958
9.746252,14.084526365061462,0.1006025769226683
9.750288,14.09512170242861,0.1002157917522322
9.75434,14.116140049920563,0.0997771110579911
9.758376,14.13671549781278,0.0993527545335278
9.762408,14.160093321229963,0.0989160574344439
9.766492,14.180668769122178,0.0984937899738715
9.770524,14.204943809414374,0.098056499003268
9.774612,14.22944029950644,0.0976139303586272
9.7787,14.264802699323049,0.0971100760470177
9.782784,14.29893570756484,0.0966217391321347
9.786812,14.336092541131476,0.0961166581793964
9.790892,14.373360099598044,0.095609695314859
9.794928,14.412864991414374,0.0950863976000406
9.799016,14.452259158330772,0.0945698246481279
9.8031,14.492096224846907,0.0940430681730795
9.807188,14.53764876731292,0.09349116684458
9.811276,14.579612442278885,0.0929523675457006
9.815364,14.618208699544672,0.0924219640434626
9.819448,14.661401766085454,0.0918762745354542
9.823536,14.702013906901136,0.0913359579193022
9.827624,14.74531769834185,0.0907904764763306
9.831712,14.784135405407506,0.0902607377245879
9.835792,14.818024128498363,0.0897612799165478
9.839876,14.853142243164038,0.0892516986977784
9.843956,14.887363140954704,0.0887466168353637
9.848036,14.92259198052031,0.0882369564996913
9.852116,14.953002561011058,0.0877500239787978
9.8562,14.984088908576943,0.0872684853748236
9.860288,15.003412129543277,0.0868461124876788
9.864372,15.023964742084424,0.0864139544721568
9.868448,15.041161354600929,0.0860083891914289
9.872532,15.058579416917295,0.0855976616959052
9.87662,15.07207643703382,0.085206314176011
9.8807,15.08299253142524,0.0848199232704138
9.88478,15.093576451116856,0.084443809467303
9.888872,15.101357995283504,0.0840788012975183
9.89296,15.111155423000042,0.0837035431177342
9.897052,15.120952850716582,0.0833290360162023
9.90114,15.126485643857931,0.0829601461791422
9.905224,15.136615246274276,0.0825779740397482
9.909308,15.14136154744055,0.0822089974429429
9.913396,15.1468943405819,0.0818407168673044
9.917476,15.149846207998149,0.0814758764878276
9.92152,15.153806017189346,0.0811072857479449
9.925608,15.158773768155488,0.0807345146980722
9.929644,15.16956771997144,0.0803404695406186
9.933732,15.186187872637202,0.0799238705480414
9.937812,15.201124316452876,0.079508933655573
9.941896,15.221997686018298,0.07906774306311
9.94598,15.239171463183736,0.0786379368802361
9.950064,15.259025473298676,0.0781821258536105
9.954152,15.278768758513682,0.0777302727716786
9.958236,15.301314419253655,0.0772708187693278
9.962316,15.324535847068775,0.0768161627918754
9.9664,15.345176349158791,0.076364512636413
9.970484,15.365816851248807,0.0759138610578431
9.974572,15.39004622083887,0.0754588075858357
9.978664,15.414054140629064,0.0750105690461209
9.982752,15.43985649416928,0.0745597456140551
9.986732,15.465991022409302,0.074102889066906
9.990812,15.49571441814937,0.0736403287921347
9.994812,15.525548538789376,0.0731754692687149
9.9989,15.557066368279472,0.0727109473765456
10.002988,15.581860780044742,0.0722686990117413
10.007076,15.604860758059989,0.0718306336576972
10.011104,15.617327001050498,0.0714268401127237
10.015184,15.623512725915925,0.0710335231100179
10.019264,15.629809175681284,0.0706375123765951
10.023344,15.634311191696622,0.0702448606357423
10.027376,15.63824816553675,0.0698445719340568
10.03146,15.639050589152106,0.0694598505203922
10.035552,15.641082404342276,0.0690661672083735
10.039636,15.63974680183227,0.0686719631136462
10.04366,15.637956882046993,0.0682680095254495
10.047736,15.639080062686618,0.0678550504634414
10.05182,15.640535418026053,0.0674342861915639
10.055896,15.63682892191528,0.0670159031654587
10.05998,15.6345732671792,0.066583235532603
10.064064,15.633436279117998,0.0661447081250448
10.068148,15.630394132406838,0.0657120642087841
10.072132,15.625889726645458,0.0652736815375702
10.076176,15.623622654233843,0.0648228233031074
10.080256,15.623925089871795,0.0643520655015257
10.084352,15.630164451259493,0.0638615151518105
10.088392,15.63752247932207,0.0633651563624656
10.092424,15.649920216259384,0.062850025880697
10.096456,15.669827862896591,0.0623209278081354
10.100492,15.68984623443374,0.0617897123498042
10.104588,15.71188048952078,0.0612527554162034
10.10868,15.739187320957956,0.0607152016949857
10.11278,15.766937051994868,0.0601671199551037
10.116872,15.792892349281765,0.0596222090690981
10.120972,15.822547238968635,0.0590727247780227
10.125064,15.85119418688056,0.0585273061672811
10.129164,15.875244325517494,0.0579883251912944
10.133256,15.896381363729525,0.0574570260364507
10.137356,15.91841561881656,0.0569256637360569
10.141448,15.935631614828736,0.0564056163701554
10.145544,15.94892656864106,0.0558962258162568
10.149644,15.959197697128545,0.0553963618314064
10.153736,15.970255317591104,0.0548993772681538
10.157832,15.974257345629038,0.0544236335059782
10.161928,15.973895431867378,0.0539689501894561
10.166028,15.969612475905867,0.0535238542919292
10.17012,15.963092186594595,0.0530899872811775
10.174156,15.952318680383668,0.0526727386909905
10.178248,15.932695147998087,0.0522769541735547
10.182336,15.909826340487797,0.0518941767749136
