Time,Force,Position
9.83714,12.590571580066442,0.1319302135177073
9.841232,12.57421615815664,0.1315796037816464
9.845328,12.57255979862236,0.1311500348470891
9.849364,12.577527549588504,0.1306933925287638
9.853452,12.589905903030145,0.1302086426921511
9.85754,12.611378567797368,0.1296884305615552
9.861576,12.639708210540416,0.1291589724887583
9.86566,12.675227005959094,0.1286121207307884
9.869748,12.710314319453564,0.1281061243239394
9.87384,12.752247193248325,0.1275674931581573
9.877928,12.79778035221866,0.127033443620785
9.881964,12.855088055464089,0.1264259002627446
9.88606,12.91543100170989,0.1258207261969551
9.890152,12.971742180855903,0.1252567730466326
9.894244,13.03063428572702,0.1246834189536599
9.898336,13.092328766123105,0.1240896556498823
9.902432,13.162762547793903,0.1234275574781929
9.90652,13.224789202889797,0.1228280732173017
9.910616,13.282440498510562,0.1222565145151246
9.914712,13.334032725806113,0.1217205301713019
9.918804,13.378557943001509,0.1212246517793629
9.9229,13.415229658121664,0.1207680234518596
9.926996,13.44505581294153,0.1203438523846407
9.931096,13.473419708711177,0.11992063021349
9.935188,13.499313403655655,0.1195073491811327
9.939284,13.51948020497473,0.1191114088691072
9.94338,13.538627646843326,0.1187009433581363
9.947476,13.54734066091158,0.1183375291187529
9.951572,13.556374432004109,0.1179382003586334
9.955668,13.561586468121186,0.1175418921167483
9.959764,13.562079552387802,0.1171520692062795
9.963864,13.550908817279266,0.116824195656688
9.967956,13.533224696570246,0.1165118492614054
9.972056,13.51598347546096,0.1161843760154617
9.976148,13.49649350332638,0.1158560960801118
9.980244,13.477557155691477,0.1155093734802377
9.984344,13.45133234815654,0.1152024051896986
9.988436,13.427234149071438,0.1148744119408193
9.992472,13.403578849586072,0.1145314461622243
9.996552,13.378239841250618,0.11419296322391
10.000644,13.355027441364989,0.1138336604109713
10.004736,13.337530517429236,0.1134358198692395
10.008828,13.32552761964349,0.1130082849537375
10.012824,13.309825129457764,0.1126008878794014
10.016916,13.289193655297238,0.1122285936715626
10.020948,13.271032381961874,0.1118495744379518
10.024924,13.24995800820161,0.1114899268793961
10.029,13.23695858631645,0.1110901609905039
10.033084,13.22351626483155,0.1107039267998521
10.037124,13.210417535721987,0.1103307854377479
10.041204,13.202591382962565,0.1099352701478627
10.045276,13.199140589678262,0.1095205048463366
10.049308,13.195922663869364,0.109121719198353
10.053352,13.192372563360658,0.10873364559686
10.0574,13.188379563252216,0.1083599263193019
10.061496,13.18595954709393,0.1079859365271941
10.065548,13.185112514885796,0.1076102075406068
10.069644,13.189083741752526,0.1072038219968935
10.07374,13.185999376194626,0.1068500508249745
10.077828,13.182472111036988,0.1065101227762735
10.081868,13.176596787629652,0.1061958594477635
10.085968,13.168705580672423,0.1058970848445502
10.09002,13.153304464015296,0.1056412883700353
10.094068,13.145191807258197,0.1053498211996489
10.09812,13.141897409575964,0.1050267631331771
10.102152,13.138603011893728,0.1047039229543593
10.106236,13.138110989736465,0.1043653028501722
10.110336,13.13223566632913,0.1040499561433605
10.114436,13.130059935321777,0.1037156859385978
10.11842,13.129002870989307,0.1033704299855516
10.122472,13.124024764456983,0.1030514566229343
10.126564,13.120841091674682,0.102725059221837
10.130664,13.12168918599217,0.1023690416586321
10.134696,13.1235452220846,0.1020058165451973
10.138732,13.12640919995198,0.1016354414705682
10.142772,13.126360077394454,0.1012839477712725
10.146812,13.126310954836926,0.1009322697995914
10.150844,13.12021418162972,0.1006240295528896
10.154928,13.12454041854732,0.1002577375467999
10.159032,13.131779755889823,0.099873710637882
10.163084,13.144058802107065,0.0994543449480129
10.167112,13.158918774049402,0.0990289775671011
10.171192,13.179383497041682,0.0985756635179515
10.175276,13.196935119609057,0.0981426974996083
10.179348,13.216502625726324,0.0976977094085066
10.183436,13.236070131843592,0.0972537845266904
10.187516,13.25519473836112,0.0968247337495933
10.1916,13.279481196328849,0.0963828115322935
10.19568,13.30343547959677,0.0959538614573278
10.199764,13.325152429514931,0.0955456737006323
10.203844,13.350568971833075,0.0951218044515235
10.207928,13.37620696395109,0.0946929099889337
10.212016,13.401623506269235,0.0942728302837245
10.216108,13.426818598787507,0.0938606401398292
10.220192,13.453697400155871,0.0934474023252543
10.224288,13.479568259749287,0.0930406163112279
10.228372,13.506336336217714,0.0926314122033522
10.23246,13.535120296236038,0.0922086474802912
10.236492,13.566817356679262,0.0917755956262423
10.240584,13.597395750447609,0.0913538071190755
10.24468,13.628649911291092,0.0909391187209497
10.248772,13.6562044797346,0.0905403612882065
10.252868,13.67961655617838,0.090170793274416
10.2569,13.699218315322248,0.0898194784181368
10.260988,13.718487899766307,0.0894802835114101
10.265072,13.737425309510565,0.089151786095908
10.269164,13.757592110829636,0.08881143363769
10.273248,13.776185928198554,0.088471170782864
10.277332,13.791412327867295,0.0881357959301143
10.281416,13.808654611085933,0.0877884171457011
10.2855,13.823205243679531,0.0874499770458478
10.289588,13.836526484698314,0.087125009973506
10.293672,13.846148133317117,0.086813856550425
10.297712,13.856101956635722,0.0864933393875474
10.301748,13.863142679529425,0.0861877251840875
10.30578,13.872088561073085,0.0858736652467477
10.309868,13.88103444261674,0.0855600701828907
10.313904,13.896482292085352,0.085224189745357
10.317936,13.899491247879268,0.0849439920631325
10.321964,13.900927219723028,0.0846620730592129
10.325996,13.89664771561691,0.0844046404654082
10.330032,13.894273370160752,0.0841389297483073
10.334068,13.892120474504464,0.0838661218529438
10.338096,13.893999345947964,0.0835705663697279
10.342124,13.89296511696656,0.0832890203540002
10.34616,13.887444803610093,0.0830185024915367
10.350188,13.882932432028571,0.0827430238926371
10.354228,13.87920655242213,0.0824687854774556
10.35826,13.87806159854079,0.0821909361903777
10.362292,13.875122210909424,0.0819174400381576
10.366376,13.871064156603175,0.0816522699676701
10.370468,13.866108885421918,0.0813892599808171
10.374556,13.866869090190534,0.0811034199130941
10.378596,13.864494744734376,0.0808367754879222
10.382684,13.861223182403204,0.0805719062506081
10.386716,13.85974605382206,0.0803031855488292
10.390756,13.85815820034098,0.0800378483209237
10.394852,13.848949712260062,0.0798030304457641
10.398952,13.842432874804183,0.0795605986238619
10.403044,13.83928345504848,0.079316255941706
10.407128,13.838039193942736,0.0790639701829991
10.411164,13.838700091486947,0.0788048527706139
10.415196,13.841941914756264,0.07854278120621
10.419224,13.843843621550828,0.0782960227346302
10.423304,13.845856053245328,0.078045900309896
10.427384,13.858180770164696,0.0777614633629863
10.431464,13.864457836434385,0.0775081245184581
10.43554,13.87062417780414,0.0772586335140575
10.43962,13.874663910724069,0.0770228236238147
10.443664,13.883865495094192,0.0767824118474348
10.447744,13.896877396764236,0.0765283665776761
10.451832,13.912580949059317,0.0762692556197753
10.455916,13.925039226229686,0.0760325680063892
10.459992,13.94209431267505,0.0757836739290289
10.464072,13.963070441320268,0.075518546973461
10.468152,13.982030686415587,0.0752642513980157
10.472176,14.005587740785902,0.074999456088446
10.476212,14.032057895581122,0.0747235149408484
10.48024,14.065140743201232,0.0744267718261505
10.48428,14.096207707271448,0.0741407516646416
10.488372,14.128958380191754,0.0738550579699133
10.492472,14.161487603312189,0.0735773842660596
10.496564,14.19334105935748,0.0732961377507639
10.500652,14.225194515402777,0.0730154383240559
10.504688,14.257723738523213,0.0727396135934815
10.508724,14.2843160358939,0.0724908924546568
10.512764,14.316402359414596,0.0722293180634706
10.516808,14.347591466060278,0.0719702462859484
10.520904,14.380907181155788,0.0716994327352497
10.525,14.411752695426136,0.0714289191993338
10.529027999999998,14.440693051046525,0.0711656811761354
10.53306,14.466941756041876,0.0709078081568494
10.537096,14.49430912771211,0.0706430130370893
10.54112,14.52055783270746,0.0703867877123156
10.545152,14.543782712377972,0.070144838083978
10.54918,14.56891275069844,0.0698978174202154
10.553264,14.58754082109396,0.0696678034411624
10.557352,14.603931558139717,0.069452924617497
10.561436,14.619535803210391,0.0692380148334074
10.565524,14.637155931830964,0.0690150319605921
10.569552,14.65880782755132,0.0687763540090428
10.573636,14.676538681071827,0.0685521132175319
10.57772,14.697858402092375,0.0683238430390001
10.5818,14.719067398212998,0.0680988126994916
10.58588,14.745316103208353,0.0678541566170297
10.589964,14.771675533103638,0.0676069248875234
10.593988,14.801169513223698,0.0673461376808236
10.598024,14.831449985318836,0.0670877655084868
10.602108,14.86420065823914,0.0668331328282662
10.606148,14.895721939584629,0.0665890924474319
10.610184,14.928029712905191,0.0663474971029299
10.614268,14.962131919975782,0.0661042493038743
10.618356,14.9934317515214,0.0658676964863199
10.62244,15.025285207566691,0.0656178119693393
10.626528,15.059043822261945,0.0653634067941713
10.630612,15.089102844557214,0.0651168109300932
10.6347,15.120280533527364,0.0648634977327102
10.638788,15.154703497622226,0.0645933892825275
10.642872,15.18318953596734,0.0643445009692036
10.646964,15.210999807237313,0.0640921692228633
10.651048,15.23208666078246,0.0638594757664231
10.655136,15.25552157257731,0.063610674483837
10.65922,15.27256524134714,0.0633723002585851
10.663304,15.291281201291527,0.0631138604222946
10.667348,15.302708701335884,0.0628667479611849
10.671444,15.31177672545501,0.0626138331331399
10.67554,15.311983305723954,0.0623675439199042
10.67964,15.306917309642763,0.0621233142436674
10.683668,15.295116478161214,0.0618748736469433
10.687704,15.280280403679294,0.0616151791105026
10.691788,15.26117969462218,0.0613535703974738
10.695828,15.239830234539776,0.0610828303903916
10.699912,15.220718107807134,0.0607987076951188
10.703888,15.20160598107449,0.0605146955800853
10.707968,15.180134378416618,0.0602242504581768
10.712048,15.160113617133431,0.059918344261921
10.716084,15.140092855850243,0.0596119477624004
10.720116,15.115586010191995,0.0593087739944685
10.724204,15.09174351393336,0.0589875542748869
10.728284,15.064312150174676,0.0586684665584176
10.732364,15.036315744240785,0.0583404795487229
10.736448,15.007532846331811,0.0580097876069145
10.74054,14.982670990622694,0.0576674462727638
10.74462,14.956469018438826,0.057336809296087
10.748644,14.92993487155515,0.0570132479909831
10.752684,14.90810825884641,0.0566806622338655
10.756711999999998,14.891664947387737,0.0563437529927203
10.760752,14.883960937203776,0.0559849691703684
10.764784,14.881529503369954,0.0556256254715992
10.768784,14.885267862761282,0.0552656805925924
10.772872,14.895618914977495,0.0548942573994858
10.776916,14.909226659993957,0.0545299732193824
10.781012,14.926533997410392,0.0541628612573639
10.785108,14.940706784602057,0.0538084282196237
10.789136,14.95746049751882,0.0534560498754972
10.793228,14.971866152185886,0.0531180280052825
10.797268,14.987279748627897,0.0527772438739718
10.8013,15.00247189527004,0.0524412959971659
10.805384,15.021252909412228,0.0521044006313404
10.809412,15.039701748854617,0.0517751356634706
10.813492,15.060620789122169,0.0514505322635375
10.817576,15.080310437814902,0.0511346300541273
10.82166,15.096079044307784,0.0508283499169386
