Time,Force,Position
11.297712,13.110318907729322,0.1389197167390145
11.301807999999998,13.10472212249952,0.1387377963223829
11.305899999999998,13.104852230895126,0.1385317337560973
11.309995999999998,13.10812830719104,0.1383166376343779
11.314084,13.117463451812169,0.1380658238623603
11.318179999999998,13.128371580383448,0.1378098301241819
11.322271999999998,13.146457443954825,0.1375051120304612
11.326368,13.161519482201362,0.13723186678766
11.330464,13.1765815204479,0.1369591558976588
11.33456,13.196351092869367,0.1366485330362758
11.338656,13.213429014665795,0.1363569911434467
11.342752,13.23375221158693,0.1360291985302548
11.346847999999998,13.253288916532997,0.135704631216396
11.350943999999998,13.273157796178864,0.1353685437503955
11.35504,13.293137400724666,0.1350298641187076
11.359136,13.316583730195044,0.1346479248851501
11.363184,13.33644119216538,0.1342895796394172
11.367276,13.354049903110418,0.1339345831338262
11.371323999999998,13.366951079880527,0.1336166539092821
11.375412,13.381192373125389,0.1332779535966828
11.379507999999998,13.4017027668198,0.1328745283424187
11.383603999999998,13.422323885414146,0.1324686787614494
11.387688,13.4386803694333,0.1320848546919946
11.391776,13.455258303252329,0.1316954343573249
11.395868,13.467239427796356,0.1313381857123895
11.39996,13.48358449413998,0.1309334824444228
11.404048,13.495332751208611,0.1305620969525419
11.408127999999998,13.50741318297704,0.1301800945989603
11.412216,13.521620223195306,0.1297772629344349
11.416263999999998,13.535262221238362,0.129370537829518
11.420348,13.55069865303144,0.1289535289292459
11.424392,13.562214042624666,0.1285699858489643
11.428472,13.573729432217894,0.128187067505665
11.432451999999998,13.587039255561145,0.127794106329141
11.43654,13.600681253604195,0.1273915182804551
11.440624,13.610291484547464,0.1270254027256165
11.444708,13.622704091015704,0.1266395483708838
11.44874,13.63612463925889,0.1262453581168425
11.452816,13.654584896376807,0.1258073605783769
11.4569,13.671926486819844,0.1253823294934654
11.460984,13.687473643512858,0.1249700184033443
11.465063999999998,13.704250191780687,0.124543602369511
11.469148,13.722931898698477,0.1241035015247759
11.473176,13.739032679891167,0.1236761125371379
11.47726,13.76129183663347,0.1231944756296578
11.481348,13.779519226275983,0.1227490501897164
11.485432,13.800881166143276,0.1222759918852544
11.489524,13.82123516423562,0.1218120185761891
11.493552,13.837668120128114,0.1213790828674459
11.497644,13.849172092045809,0.1209843105959894
11.501732,13.860111021788295,0.1205846194851239
11.505824,13.8748602688307,0.1201593679870201
11.509912,13.886807140348132,0.1197516148958074
11.514008,13.89908618656537,0.1193346610738353
11.518096,13.914499783007384,0.1188924315955175
11.522188,13.930134829249267,0.1184425459625378
11.526239999999998,13.946999267065966,0.1179788411139521
11.53034,13.963863704882666,0.117516247042525
11.534432,13.977704317374524,0.1170790720044974
11.538519999999998,13.992885046341137,0.1166239376954392
11.5426,14.007057833532798,0.1161780385953063
11.546684,14.018538970099426,0.1157466765492752
11.550771999999998,14.02956578939078,0.1153063788307442
11.554856,14.039695391807124,0.1148702387526734
11.55894,14.04691189379856,0.1144557926402951
11.563028,14.054239120689934,0.1140378753478916
11.567076,14.056748088506444,0.1136519574106055
11.571164,14.05947850612282,0.1132590786110499
11.575252,14.063438315314018,0.1128512688316311
11.579339999999998,14.072437833379947,0.1124047819209915
11.583427999999998,14.078634975920906,0.1119741476270317
11.587523999999998,14.080456758986742,0.111561259853022
11.591615999999998,14.087318250927307,0.1111106733850129
11.595707999999998,14.094069017967945,0.1106649146586768
11.599804,14.091748309034056,0.1102869127416135
11.603912,14.092340700525074,0.1098900769053564
11.608,14.091703700441276,0.1095081411040072
11.612096,14.089948033682596,0.1091370855993616
11.616191999999998,14.088303091823851,0.1087624381544406
11.620248,14.088341858815197,0.1083842145308092
11.624336,14.089720742281292,0.1079893245397856
11.628436,14.090202408872376,0.1075979947893177
11.632531999999998,14.089343958988708,0.1072237022847652
11.636627999999998,14.089382725980052,0.106845221036301
11.640724,14.090429434746344,0.1064602881810399
11.644816,14.091586868412568,0.1060719175516622
11.648896,14.09756256115366,0.105655035307154
11.652984,14.1025303121198,0.1052449893466163
11.657076,14.11041116351085,0.1048182291153885
11.661168,14.118292014901895,0.1043928797670476
11.665252,14.128975241817916,0.1039532041238815
11.669339999999998,14.145041769984006,0.1034929679820191
11.673376,14.159092414600204,0.1030482478394616
11.677464,14.171348625466376,0.1026114404815507
11.681548,14.191446920732254,0.10212699067563
11.685627999999998,14.2094186075483,0.1016604448483921
11.689716,14.228619685939163,0.1011819447952527
11.693804,14.248042214129898,0.1006971362291718
11.697883999999998,14.2702671178456,0.1002003945285046
11.701971999999998,14.291594804686294,0.0997093015193834
11.706056,14.311360925252364,0.0992426350499779
11.710144,14.332700029768588,0.0987762844738082
11.714232,14.357738726684795,0.0982946832668655
11.718315999999998,14.386477016000985,0.09779898478279
11.722404,14.4120807550924,0.0973266375730152
11.726488,14.441273361683864,0.0968437724327005
11.730572,14.467442142950484,0.0963815656285293
11.734652,14.496413299742075,0.0959077937288892
11.73874,14.52135268943388,0.0954604471043328
11.742824,14.545173412450804,0.0950240908298676
11.746904,14.56989135234274,0.0945862820781658
11.750988,14.59001248295968,0.0941678050562009
11.755067999999998,14.608228454926666,0.0937587300930508
11.759152,14.623531326468743,0.0933641539839467
11.763224,14.634015938935956,0.092994573446201
11.767308,14.645508493178118,0.0926192797863138
11.771396,14.655993105645331,0.0922510233597808
11.775427999999998,14.666145543412744,0.0918923260937531
11.77946,14.670693230130214,0.091556730311975
11.78354,14.672327816422776,0.0912359229445038
11.787616,14.671492201890176,0.0909166942602892
11.791704,14.670091545182366,0.0905908083205576
11.795732,14.664315528999436,0.0902753088466088
11.799768,14.654950645316452,0.0899709507272554
11.803856,14.646815153208284,0.0896540460945033
11.807944,14.635090793600076,0.089348004770444
11.812027999999998,14.622469217116857,0.0890440327688174
11.816119999999998,14.610634132608707,0.0887410688652221
11.820156,14.59958554007564,0.0884381666022234
11.824148,14.585623847117663,0.0881486034714839
11.828176,14.569535545709858,0.0878733297153351
11.832264,14.556028170027156,0.0875934159287491
11.836356,14.545212444969486,0.0873058606046724
11.840443999999998,14.537874862511933,0.0870109324481408
11.844428,14.529529338279431,0.0867207985038998
11.848464,14.521970306022006,0.0864315596258658
11.852552,14.51217394041482,0.0861593415549638
11.85664,14.502377574807632,0.0858868184203706
11.860723999999998,14.496170076700492,0.0856040997889449
11.86476,14.489741128793485,0.0853270368452621
11.868735999999998,14.486568873686716,0.0850495750341849
11.872736,14.482621544280406,0.0847937773349706
11.876828,14.48372534142436,0.0845333981975316
11.880924,14.484275514068642,0.0842884875289387
11.885012,14.484050612413377,0.0840652486428511
11.889104,14.484058578233515,0.0838584048173734
11.893183999999998,14.48373436935385,0.0836605277205491
11.897212,14.479378393374398,0.0834843897852261
11.901239999999998,14.477603343120046,0.0833046892574944
11.905324,14.481100869215831,0.0831146388026163
11.909408,14.487179321036718,0.0829212557814607
11.91346,14.493822815032807,0.0827355235984624
11.917444,14.498007525879268,0.0825729235450698
11.921428,14.502868003800872,0.0824145454653607
11.925424,14.51131734922252,0.0822474294068941
11.929527999999998,14.518648027969286,0.0820889962322348
11.93356,14.528670357341088,0.0819241754574921
11.937652,14.541495062237862,0.0817503152595712
11.94174,14.552868925759949,0.0815940277907035
11.945823999999998,14.565926498132123,0.0814365418370154
11.949904,14.577976128729352,0.0812845437438967
11.953992,14.595741235276456,0.0811114916919429
11.95808,14.61048251649872,0.0809544390722133
11.962163999999998,14.627018231471007,0.0807934441860576
11.966259999999998,14.644894062918048,0.0806182526232413
11.970344,14.662991344164958,0.0804371610775781
11.974432,14.685906884486728,0.08023728994671
11.978524,14.714648625658311,0.0800140234640835
11.982656,14.739801499329849,0.0797991984124467
11.98674,14.758452405076431,0.0796044766182924
11.990835999999998,14.772617226447954,0.079419821342406
11.99492,14.780501529694394,0.0792487786921316
11.999012,14.792528324940555,0.0790551052137667
12.0031,14.8056737868616,0.0788540783782491
12.007184,14.817700582107763,0.0786614090884477
12.011267999999998,14.82983810225386,0.0784659972863783
12.015352,14.841975622399955,0.0782710897363436
12.01944,14.854002417646118,0.0780800640228591
12.023523999999998,14.870171704892002,0.0778671048310314
12.027604,14.887459658812766,0.0776467662206867
12.0317,14.89824564480858,0.0774444346194727
12.035788,14.899838012254408,0.0772667418273061
12.039872,14.90097606242496,0.0770788899217574
12.043964,14.900651853545291,0.0768858130389743
12.048047999999998,14.899319702890685,0.0766975137591485
12.052132,14.89630384338598,0.0765096726033196
12.056216,14.892280042106332,0.0763271980681492
12.060247999999998,14.879627664451904,0.0761753544620787
12.064276,14.868991170347368,0.0760137998503667
12.068359999999998,14.864513051792448,0.0758207566745848
12.072444,14.865528959387536,0.0756144570835949
12.07648,14.871363126057483,0.0753901189130718
12.080568,14.87148181677756,0.0751851375947549
12.084647999999998,14.867900915097652,0.0749899990409055
12.088728,14.86644662186757,0.0747828933413652
12.092759999999998,14.862976445087597,0.0745848824296818
12.096836,14.857711834557598,0.0743902247330684
12.10092,14.850542065377644,0.0742020478458374
12.104952,14.843372296197687,0.0740144995417531
12.109044,14.837099743892743,0.0738256793717021
12.113087999999998,14.843155360362562,0.0735986784542437
12.117176,14.857618103407292,0.0733488392032085
12.121264,14.87735342280216,0.0730937330578605
12.125352,14.89955894302219,0.072840503910204
12.129435999999998,14.925685505442075,0.0725734112197381
12.133527999999998,14.95349577671205,0.0723063484038863
12.137628,14.978725122256922,0.072041671592971
12.141716,15.010788610426552,0.0717520627938229
12.145812,15.045654474121152,0.0714567227018636
12.149908,15.080077438216012,0.0711748126676127
12.154008,15.11472185211074,0.0708892058653631
12.1581,15.152168641530444,0.0705981678516045
12.162136,15.19364719804993,0.0702905627766852
12.16622,15.238149579894255,0.0699710178659137
12.170303999999998,15.280968252888492,0.069652894721788
12.174388,15.329834576532413,0.069311342075275
12.178468,15.379033074876135,0.0689618112147064
12.182551999999998,15.429460964794677,0.0686037783563595
12.186636,15.474616278363078,0.0682517692079858
12.19072,15.515617682256224,0.0678984135128325
12.194812,15.55459178492395,0.0675357338794468
12.198895999999998,15.589190528116548,0.067177888002362
12.20298,15.618848869658818,0.0668177382496117
12.207064,15.646369185075724,0.0664481523369816
12.211108,15.668395474342626,0.066088785465251
12.2152,15.691872604984212,0.0657154273731755
