Time,Force,Position
14.238056,14.64245635048735,0.1384279481701121
14.242140000000004,14.653875884711567,0.1383165262241362
14.246224000000002,14.663035250234955,0.1381856907319459
14.250256,14.669147955082437,0.1380372773918598
14.254332000000002,14.668292957054163,0.1379045656832425
14.258376000000002,14.66440271602552,0.137776706208066
14.26246,14.66161972399622,0.1376136135633475
14.266544,14.654228505016397,0.1374596277670226
14.270636,14.644699259911206,0.1373046954249271
14.274724000000004,14.633818480655735,0.1371466459259228
14.278812000000002,14.61687863307505,0.1370201666464899
14.2829,14.595563426019243,0.1369176087041445
14.286992,14.575588335438184,0.1367951870001114
14.29102,14.55773985330696,0.1366509249594902
14.2951,14.543247371200376,0.1364689132980338
14.299172000000002,14.52807912201865,0.1362850442792086
14.303256,14.510662121811633,0.1361032572963426
14.307336,14.49245862962953,0.1359229631171304
14.311424000000002,14.473579370372288,0.1357407798390553
14.315508,14.460415587064926,0.135514940529983
14.319584000000004,14.44590026960728,0.1352854679965347
14.323664,14.434740952174272,0.1350188146567521
14.327748,14.424024534341006,0.1347381212231682
14.331828000000002,14.414426783182623,0.1344446263750296
14.335912,14.407520682649276,0.1341346253736001
14.34,14.403527682540837,0.1338015443029083
14.344096,14.400431899307405,0.1334631510059215
14.348124000000002,14.39700394137417,0.1331346396385513
14.352216000000002,14.394251750516077,0.1328074069210002
14.356304000000002,14.39318326850807,0.1324729070601229
14.360396,14.394917162025036,0.1321182608442931
14.364484,14.402587981291749,0.1317144327680786
14.368576,14.409472308583382,0.1313127248065073
14.372672,14.411649101700084,0.1309438647024284
14.376768000000002,14.410691344592015,0.1306047843163912
14.380864000000004,14.413654629683798,0.1302348288271815
14.38496,14.417293681850722,0.1298658191012072
14.389056,14.422727167767674,0.1294858280818451
14.393148,14.431073754109525,0.1290842669033202
14.397244,14.43683941472628,0.1286954964730057
14.40128,14.443170117518235,0.1283112368292987
14.405312000000002,14.443342444760582,0.1279823709901738
14.409404000000002,14.440269496878216,0.1276857692267396
14.413504,14.43798304097093,0.1273876287709219
14.417592000000004,14.433680701513747,0.1271063094372894
14.421684000000004,14.42859187008149,0.1268268184390263
14.425712,14.420589938224326,0.1265688246230084
14.429804,14.415611831692004,0.1262854370669097
14.433896,14.410965899859482,0.1259914480053859
14.437988,14.404525534276935,0.1257070974098961
14.442084,14.397187951819385,0.1254272740875457
14.446180000000002,14.386494369337182,0.1251830209030232
14.450272000000002,14.3772630459052,0.1249393362510379
14.454364000000002,14.374644415298109,0.1246513346181251
14.458452,14.373144451365896,0.1243512571165948
14.462548000000002,14.368399212308976,0.1240831505684034
14.466640000000002,14.368361507426984,0.1237846210087436
14.470736000000002,14.373031336719922,0.1234565115990413
14.474828000000002,14.378155483288133,0.1231388678338959
14.478924,14.383058180056471,0.1228280315950929
14.48302,14.392557686099806,0.1224912708426368
14.487116,14.40575678454312,0.1221325473342991
14.491208,14.424560634036377,0.1217399720183085
14.495308,14.441127150179868,0.1213701110889659
14.4994,14.462290475598357,0.1209749722886599
14.503500000000004,14.48312162631704,0.12059084006653
14.507592000000002,14.509668252985596,0.1201704164820621
14.511688,14.534985488079338,0.1197659273394168
14.515784,14.563670140873256,0.1193521284068945
14.51988,14.595157169192143,0.1189224610524095
14.523976,14.631019556986155,0.1184757189405841
14.528076000000002,14.664190294155135,0.1180409575109627
14.532172,14.697693206023915,0.1175980940142716
14.536264,14.727275075692846,0.117184464458472
14.540364,14.75753271243692,0.1167738343640561
14.54446,14.790703449605898,0.1163448517041158
14.548556,14.823984911674811,0.1159160895299643
14.552648,14.849645739143892,0.1155351352909645
14.556748000000002,14.869247498287756,0.1151773534622963
14.560840000000002,14.893556791606551,0.1147940200107904
14.564936,14.912814958375082,0.1144265304170681
14.569032,14.931840257668206,0.1140447619294799
14.573128,14.944585038836248,0.1136917115894627
14.577224,14.960575095129004,0.1133105211488356
14.581320000000002,14.972300516846566,0.1129438314399787
14.585416000000002,14.98234222971404,0.1125818258396273
14.589516,14.989692291956478,0.1122330435746772
14.593612,14.998493195573609,0.111864981353772
14.597704,15.004823898365569,0.1115033515802824
14.601756000000002,15.00947089230744,0.1111466979767572
14.605836,15.010750468549132,0.1107997087231025
14.609920000000002,15.021777287840488,0.1103935785011821
14.614008000000002,15.030898948481886,0.1099987892070976
14.618092,15.043265884247992,0.1095778994491515
14.622184,15.057870153363863,0.109138248524668
14.626272,15.069107004779555,0.1087075905748418
14.630400000000002,15.075747046920254,0.10829911677082
14.6345,15.090229173460656,0.1078436206109541
14.638588000000002,15.106395008851148,0.1073829791055889
14.642688,15.119082701641522,0.1069355941514781
14.646776000000004,15.138837404532062,0.1064648178788416
14.650868000000004,15.159943641572882,0.1060014355569017
14.6549,15.186876079463518,0.1055053857811503
14.658984,15.21402996715402,0.1050052793379852
14.663072,15.24308901349448,0.1044959782489623
14.667164,15.276290551834665,0.1039592359286345
14.671252000000004,15.309602815074784,0.1034209907577557
14.675340000000002,15.33989125299006,0.1029030782912098
14.679432000000002,15.368385257155316,0.1023923442736271
14.68352,15.398673695070595,0.1018764469834534
14.687612,15.430080799660756,0.1013523944441611
14.6917,15.454199444350886,0.1008600382387774
14.695796,15.479547480615832,0.1003563134705453
14.699888,15.501306649380732,0.0998665113474335
14.703984000000002,15.520595617320463,0.0993815298206944
14.708071999999998,15.543916352359984,0.0988736859779573
14.712156000000004,15.56756926209931,0.0983566340337961
14.716244,15.58684681236351,0.0978539509114596
14.720332000000004,15.611385521302314,0.0973172300814672
14.724416000000002,15.632335362741069,0.0967920605490428
14.7285,15.646439643879535,0.0962827922941219
14.732580000000002,15.657176507317825,0.0957797582321147
14.736667999999998,15.667126878781035,0.0952785265723905
14.740744000000005,15.676069308469302,0.0947842328232074
14.744828000000002,15.686130404832449,0.0942825536388087
14.748908000000004,15.692270458995743,0.0938013447572626
14.752996,15.698410513159038,0.0933208622879881
14.757076,15.70858233442212,0.0928189026635015
14.761124,15.72166725611011,0.0923038740501337
14.765207999999998,15.73598156937291,0.0917795128633481
14.769296,15.749963707935906,0.09126482717739
14.77338,15.765408105549122,0.0907541517677926
14.777472,15.780741778262408,0.0902474660857969
14.781560000000002,15.801348027325826,0.0897307373734268
14.785647999999998,15.824313752314476,0.0892170054018509
14.789676000000004,15.846836577703383,0.0887174248284012
14.793755999999998,15.871718879017523,0.0882202260258021
14.797844,15.898849931356962,0.0877290973663995
14.801924000000003,15.923522200546763,0.087262285019325
14.805955999999998,15.95335632118677,0.086788128278869
14.810052000000002,15.98432052617719,0.0863265169460991
14.814132000000004,16.017079164917636,0.085861265145007
14.818168000000004,16.04659252853337,0.0854177993977538
14.822304,16.076892384124182,0.0849765283215827
14.826400000000003,16.10854377386528,0.0845447451145201
14.830428,16.14378403110642,0.0841057501690094
14.834512,16.18261315584761,0.0836611099339833
14.838552000000004,16.218197005464088,0.0832382796132253
14.842584,16.2535594052807,0.0828230011973821
14.846672000000002,16.286795196647482,0.0824220228410956
14.850708,16.32126037958908,0.0820123319291124
14.854796000000004,16.35594701233055,0.0815983345512442
14.858884,16.391420137047096,0.0811867573095352
14.862968,16.422075002688775,0.0807946648064117
14.867008000000002,16.448022334155528,0.0804179645595865
14.871108000000005,16.470270073222295,0.0800521879528784
14.875204,16.49195277011386,0.0796811886129773
14.879304,16.51105454128032,0.0793138143998017
14.883404000000002,16.528361878696757,0.0789506251343369
14.887496000000002,16.544096232163042,0.0785866565909117
14.891592,16.560273485229065,0.078212051564853
14.895688000000003,16.573426912970252,0.0778506573326861
14.899784,16.588596224261327,0.0774806258467173
14.903880000000004,16.601860376902447,0.0771172605083773
14.907976,16.607836069643536,0.0767698486290388
14.912076000000004,16.61022289488458,0.0764293927680074
14.916168000000004,16.6062184771006,0.0761033854186205
14.920264,16.60445139266639,0.0757637318309696
14.924360000000004,16.59999265760714,0.0754288368484207
14.928456,16.595533922547894,0.0750941547541216
14.932556000000002,16.59074301278884,0.0747680376008753
14.936648000000002,16.58393621947989,0.0744500663595913
14.940744,16.57511354262105,0.0741404656775359
14.944840000000005,16.56370994003711,0.073831855966679
14.948876000000002,16.553314279228115,0.0735183720924961
14.952963999999998,16.541910676644175,0.0732082350531942
14.957000000000004,16.528159015810537,0.0729139819573096
14.961088,16.51508312205204,0.0726234687061405
14.965124,16.500999286518596,0.0723365534523048
14.969212000000002,16.485686059410337,0.072058802970825
14.97324,16.47485891667713,0.0717746376024323
14.977268,16.465715482794025,0.0714898783963013
14.981296000000004,16.457358540885988,0.0712066517075967
14.985328,16.447882932303074,0.0709296406811256
14.989411999999998,16.444687841845237,0.0706431574799525
14.993492,16.444860169087583,0.0703570143332489
14.997576,16.445376088705267,0.0700822362744391
15.001604000000004,16.441528066523357,0.0698309365062297
15.005632000000002,16.438920853591796,0.0695902074580542
15.009668,16.432957640635593,0.0693687973563635
15.013752,16.423970602354547,0.0691589389749889
