Time,Force,Position
15.277008,15.407881556592452,0.1384621189795719
15.281095999999998,15.465158458666677,0.1380470659724655
15.285192,15.501520834438091,0.1376639877610652
15.289288,15.515983577482825,0.1373598246813217
15.293384,15.525838093577027,0.1370651816442897
15.297476,15.530420033321096,0.1367983012108795
15.301572,15.533318264215076,0.1365388060306293
15.305671999999998,15.535651452933848,0.1362742409587141
15.309767999999998,15.540554149702189,0.1359751048309976
15.313859999999998,15.546674820369809,0.1356388838267729
15.317956,15.54727862953636,0.1352949371845844
15.322052,15.540017518952142,0.1349700606863954
15.326148,15.523883546842209,0.1346722115306272
15.330243999999997,15.5021334060068,0.1343903294049002
15.334335999999997,15.476893704895748,0.1341039416029014
15.338431999999996,15.447267226634038,0.1338175898072334
15.342527999999998,15.413376113797137,0.133548829704095
15.346615999999996,15.37611758326006,0.1332926422730344
15.350652,15.34311226962264,0.1329956983679251
15.354736,15.309431188910075,0.1326963704552871
15.358828,15.28067909217231,0.1323583299201347
15.36292,15.25674525450941,0.1319851806125153
15.367007999999998,15.232811416846513,0.1316113619046299
15.371091999999996,15.214371605333618,0.1312039121138315
15.375187999999998,15.1967182857958,0.1307941405583184
15.379223999999995,15.185124034583197,0.130355853364019
15.383256,15.172976158870917,0.1299332044608656
15.387339999999998,15.165092917733828,0.1294929647904319
15.39142,15.159236977822165,0.1290575821732001
15.395499999999998,15.156527005810808,0.1286165774863951
15.39958,15.156065784824747,0.1281740514800064
15.403664,15.16210653176364,0.1276923272812353
15.407752,15.177008722552715,0.1271679871899089
15.411835999999996,15.197404939491795,0.1266137809704788
15.41592,15.218931240781291,0.1260703635129636
15.419964,15.244168552146304,0.1255269765154481
15.424,15.272330381611752,0.124984447464576
15.428027999999998,15.305543337627467,0.124424733015385
15.432108,15.341680811743622,0.1238706520948534
15.436079999999995,15.380177761785008,0.1233136222872175
15.440171999999995,15.417223870451704,0.1227799327971964
15.444256,15.4539378044186,0.1222589689978248
15.448348,15.490208838785756,0.1217513134448974
15.452447999999997,15.52805285710306,0.1212447159942542
15.456471999999998,15.565453975820637,0.1207516047087218
15.460563999999998,15.599044777238284,0.1202827288707956
15.464647999999997,15.636445895955855,0.1197919595871874
15.468736,15.669815247573638,0.119332244729153
15.472828,15.702287382316408,0.1188775737864424
15.47692,15.73307580820909,0.1184300409445827
15.481015999999997,15.766101567451535,0.117963719179284
15.485111999999996,15.792403908969158,0.1175396011194359
15.489144,15.810520573711738,0.1171566319359986
15.493236,15.824040429179323,0.1167981636774104
15.497324,15.838224634046522,0.1164219102721099
15.501411999999998,15.844666061738415,0.1160711082893889
15.505464,15.850763897054971,0.1157089986491678
15.509511999999996,15.853937214271092,0.1153445882127911
15.513551999999995,15.848581262336833,0.1150071955834021
15.517599999999998,15.844221834501989,0.114642644169648
15.521696,15.836937888566704,0.1142747772818688
15.525796,15.82213261525599,0.1139250891470212
15.529892,15.810339749594585,0.1135339223517975
15.533928,15.789796164982922,0.1131735507644694
15.537924,15.767114554245904,0.112808036555912
15.542016,15.747113176458388,0.1124094234410841
15.546104,15.721274180145528,0.1120236641303525
15.550192,15.692621390632166,0.1116294267854881
15.554275999999998,15.66261706696852,0.1112291174822336
15.558359999999997,15.63148265895446,0.1108166813447792
15.562448,15.59350269064011,0.1104226801015529
15.566536,15.557195013500314,0.1100016596473138
15.570504,15.522116727935334,0.1095659049926137
15.574583999999998,15.48647340019515,0.1091228602546481
15.578623999999998,15.4460118133801,0.1087053793578609
15.582708,15.415751786889984,0.1082377093428051
15.586796,15.382910834674773,0.1077760320356309
15.590823999999998,15.347046057134714,0.1073322887095123
15.594904,15.312754263544814,0.1068856471982514
15.598979999999996,15.272414819305236,0.1064772662376843
15.603067999999997,15.233980533715611,0.1060571142012045
15.607148,15.201716041351135,0.1056137743314265
15.611179999999996,15.164866157387197,0.1052111344542029
15.615264,15.133288849773397,0.1047890153920563
15.619356,15.104292467884695,0.1043582474757809
15.623448,15.076093995646607,0.1039482707004309
15.627536,15.052725200158916,0.1035325410955259
15.631615999999998,15.034751123596823,0.1031171720438397
15.635696,15.022049623384872,0.1026850006100958
15.639771999999995,15.006446440423543,0.1022893051220414
15.643856,14.996127251487888,0.1018977106415217
15.647939999999998,14.989629797527682,0.1015085088724346
15.652027999999998,14.98818347011774,0.1011096233106432
15.656067999999998,14.989440211008368,0.1007227239176899
15.660148,14.994850861574252,0.1003284789405129
15.664236,14.998699945865512,0.0999577843290989
15.668319999999998,15.006592214932096,0.0995837822126163
15.672407999999995,15.020322102524018,0.0992002715184522
15.676488,15.03741940781612,0.0988107767766496
15.680523999999998,15.059567839658488,0.0984117465270205
15.684607999999995,15.080830472301376,0.098037946827339
15.688692,15.104231131069628,0.0976722124092888
15.69278,15.130999207538052,0.0973008367360833
15.696872,15.160348209731582,0.0969251100642828
15.700959999999998,15.189143587425436,0.0965653108821997
15.705051999999998,15.218049690019225,0.0962039126678551
15.709139999999998,15.245837125938133,0.0958528010050177
15.713231999999998,15.276648387181876,0.0954861785550296
15.717319999999996,15.302309214650958,0.0951532252308973
15.721411999999996,15.332677576294968,0.0947999561151324
15.725507999999998,15.3625916206637,0.0944384919600819
15.729603999999998,15.393402881907448,0.0940766112197048
15.7337,15.42040382585128,0.0937332311276616
15.737796,15.445156018769811,0.0933865092797947
15.741895999999995,15.470916153463293,0.0930351517503741
15.745928,15.49039577003169,0.0927025454382116
15.75002,15.508191677749997,0.0923730537867352
15.754103999999998,15.52564399309297,0.0920327013386474
15.758191999999998,15.542641991160671,0.0916840877177743
15.762227999999997,15.55750196310301,0.0913288489550069
15.766264,15.574709993295045,0.0909542980112644
15.770352,15.586191129861673,0.0905831372816615
15.774435999999998,15.59362908165298,0.0902125533866097
15.778464,15.59568373219422,0.0898569947072293
15.782552,15.599189224110145,0.0894843779742884
15.786627999999997,15.596635647700854,0.0891223538751894
15.790712,15.590825378491324,0.0887606426316235
15.794791999999998,15.574359231681584,0.0884243855187653
