Time,Force,Position
16.678348,14.196214070538604,0.1440186773490133
16.682332,14.31359998927388,0.143568008889671
16.686384,14.400599224978818,0.1431211888040592
16.690428,14.459792703378534,0.1426652946084765
16.694452,14.49814812734878,0.142180129452341
16.698532,14.520063691715746,0.1416786074985407
16.702628,14.51447487230608,0.1413079053180649
16.706675999999998,14.501918350020665,0.1409531014640396
16.710715999999998,14.489915452234916,0.1405794520542108
16.714744,14.477801829549236,0.1402078638632757
16.718771999999998,14.47454965071374,0.1397807334353553
16.722848,14.47534065665356,0.1393383004248122
16.726884,14.473993636468022,0.1388935888107853
16.730908,14.463773754756764,0.1384804573986772
16.734992,14.450064312769866,0.1380645358589227
16.739076,14.43712994508251,0.1376241277882674
16.743171999999998,14.420152392619832,0.1371979023810121
16.747232,14.405301448606988,0.1367488938195443
16.751324,14.389221113019325,0.1363153746768172
16.755352,14.375389528456958,0.1358786365725918
16.759436,14.363130927844743,0.1354374638980322
16.76352,14.349077893482509,0.1350073422938039
16.767571999999998,14.33894590132012,0.1345447533354142
16.77166,14.325114316757752,0.1341071208609749
16.7757,14.309156123745554,0.1336916029507376
16.779795999999997,14.294549464883644,0.1332788868526747
16.783828,14.288139900472304,0.1328356080248394
16.787872,14.28880876383666,0.1323750505783121
16.791871999999998,14.291959245701712,0.1319285433219113
16.7959,14.300836621192174,0.1314631574556133
16.799976,14.307365938432936,0.1310266268423003
16.804064,14.31087143034886,0.1306158420889483
16.808148,14.318641556839976,0.1301850580877202
16.81222,14.332581476556236,0.1297210269236828
16.8163,14.346975713547767,0.1292664454845035
16.820392,14.35801395051466,0.1288489002122897
16.824468,14.368277113182003,0.128455388687645
16.828504,14.379670360199762,0.1280733775320499
16.832591999999998,14.39140719959286,0.1277035145592458
16.836679999999998,14.403144038985957,0.1273343357101229
16.840768,14.416786037029013,0.126952810855802
16.844852,14.43289823589723,0.1265641529458965
16.84894,14.4476703182907,0.1261959488488259
16.853028,14.468390744109447,0.1258046919192816
16.857112,14.48575516990355,0.1254492227493167
16.861192,14.503795362772795,0.1250968610375488
16.865223999999998,14.52183555564204,0.1247457487412006
16.869304,14.53808131476126,0.124405436350873
16.873388,14.553319132105534,0.1240741145858596
16.877468,14.56384941527488,0.1237740363901686
16.881552,14.575166190419305,0.1234729548215561
16.885628,14.588498849113618,0.1231552926497445
16.889712,14.604855333132774,0.1228148376765493
16.893796,14.617512224751948,0.1224968585479455
16.897888,14.630169116371125,0.1221794121134364
16.901916,14.643944674665178,0.1218504425363815
16.906004,14.66063333338414,0.1215011733605248
16.910096,14.67754344190297,0.1211463540939202
16.914179999999998,14.69837459262165,0.1207645153368634
16.918267999999998,14.71607119311556,0.1204093841423131
16.922372,14.727941592759654,0.1200947293865995
16.92646,14.73723106667865,0.1197908452693829
16.930552,14.744615381947687,0.1194995407492072
16.934648,14.748743004416484,0.1192171111881415
16.938744,14.755107960235044,0.1189124129195408
16.942795999999998,14.760797148978462,0.1186060861631389
16.946892,14.764016136896712,0.1183063850416161
16.950979999999998,14.765551415964874,0.1180119699375359
16.955064,14.767640319532712,0.1177013144784662
16.959152,14.774879656875216,0.1173500924725925
16.963236,14.782229719117655,0.1169960376470745
16.967268,14.790476998235109,0.1166380448862003
16.971356,14.796143351627457,0.1162906652945362
16.975444,14.80314982149456,0.1159257823974497
16.979536,14.807796815436427,0.1155633009062896
16.983567999999998,14.81165731740322,0.1152014475713134
16.987664,14.813379793244655,0.1148357859025506
16.99176,14.813640010035868,0.1144688948818934
16.995856,14.806833216726924,0.1141309563501122
16.999952,14.804501090117505,0.1137505424837617
17.004048,14.804738471557648,0.1133380501769221
17.008143999999998,14.80463226062246,0.1129129004332747
17.01218,14.804293182211868,0.1124716854073506
17.016272,14.800365236301229,0.1120457696368581
17.020364,14.79576152331545,0.1116173327694488
17.024416,14.787458217929684,0.1112072232831542
17.028508,14.780949346293946,0.1107889966917763
17.032604,14.777464299983045,0.1103493122812891
17.036644,14.76972603677249,0.1099440531937449
17.040724,14.75504290603724,0.1095853213287624
17.044816,14.739573283326914,0.1092268966268952
17.048852,14.72522232729147,0.1088582488222068
17.05288,14.707847545931186,0.1085100710095527
17.056924,14.692377923220862,0.1081509701261086
17.060964,14.681394384885596,0.1077730598953479
17.064999999999998,14.673323946975236,0.1073775244449995
17.0691,14.667502260090169,0.1069839580333264
17.073188,14.661237673605363,0.1066030911355339
17.077264,14.660467113270569,0.1061967234625075
17.081343999999998,14.658467161360951,0.1058043130662271
17.085424,14.660056076951385,0.1053982594946263
17.089475999999998,14.661202092942078,0.1050045965159213
17.093519999999998,14.664929034657872,0.1046040242725907
17.097556,14.671236902098768,0.1041954999276585
17.101592,14.67754476953966,0.1037871594059259
17.105632,14.689457388030494,0.103351994103329
17.109728,14.699464847871374,0.1029270067333063
17.11382,14.705440540612464,0.1025285128655115
17.117856,14.715669450253207,0.1020968206051508
17.121956,14.728922185218796,0.1016445762697836
17.126004,14.742285645084316,0.1011894565734378
17.1301,14.752957454324802,0.1007449625719729
17.1342,14.7645264804403,0.1002962530960364
17.138248,14.77296095633102,0.0998707175616919
17.142304,14.776466448246945,0.0994745717840841
17.146335999999998,14.777734606813103,0.0990981646398325
17.150372,14.777319056529176,0.0987253570019354
17.15442,14.779030114695075,0.0983370346900283
17.1585,14.778614564411146,0.0979649325230016
17.162588,14.777191072352272,0.0975992366269153
17.166672,14.773530246943633,0.0972531010343592
17.170756,14.772450347260095,0.0969009636986171
17.174848,14.768235897351785,0.0965706036233354
17.178936,14.763013505668525,0.0962460109562822
17.183024,14.757237489485592,0.0959369554075192
17.187112,14.750121356827908,0.095644084928987
17.1912,14.746483366770336,0.0953426641293696
17.195287999999998,14.751252503287674,0.0950064570753796
17.199379999999998,14.757262449055364,0.0946809555973726
17.203464,14.76585332054815,0.094350722534938
17.207548,14.774787784416276,0.0940334326042292
17.211624,14.78496305753475,0.0937260881970779
17.215712,14.800743081703164,0.0933968423665143
17.219796,14.822017132021584,0.0930491054911899
17.223872,14.846315007664847,0.0926839255944448
17.227947999999998,14.871510100183125,0.0923165335705932
17.232036,14.900294060201444,0.0919400325227475
17.236124,14.927959353544884,0.0915738047000227
17.240208,14.958648472213165,0.091191879517634
17.244288,14.991132024631469,0.0908058336854865
17.248372,15.023726301949704,0.090417777160757
17.252464,15.055534087292866,0.0900305606417999
17.2565,15.090365697960868,0.0896273534337429
17.260588,15.132707218328768,0.0891975319475209
17.26468,15.178404738721314,0.0887438808238322
17.26876,15.225553100488543,0.0882753837593944
17.27284,15.270563436130413,0.0878013987369657
17.276923999999998,15.304585719472271,0.08736372690167
17.281064,15.336469976688768,0.086919791315396
17.285156,15.365773308180168,0.0864813901409993
17.289236,15.396527481046247,0.0860271253130224
17.293319999999998,15.426938061536994,0.0855610226079813
17.2974,15.449273690152635,0.0851162118306829
17.301484,15.464431583768178,0.084690153124347
17.30556,15.479589477383724,0.0842649332330059
17.309639999999998,15.496308937273888,0.083821128657038
17.31372,15.505629212364088,0.0834006234651065
17.317804,15.513155053704269,0.0829844455823876
17.321884,15.516084085769448,0.0825821458407114
17.325968,15.518448075659425,0.0821739074466528
17.330008,15.52125496514914,0.0817545428963304
17.334096,15.521480928913755,0.081338065107162
17.338184,15.518118025178326,0.080929553892656
17.342271999999998,15.50286985226787,0.0805527074868726
17.34636,15.478095886107615,0.0802089015113515
17.350396,15.443796126697576,0.0798979661041677
17.354488,15.408156250812784,0.0795995454429653
17.358524,15.378121125977932,0.0792823090928796
17.36252,15.344164958943228,0.0789800799094477
17.36656,15.30650919950854,0.0786869900358435
17.370596,15.264256630798862,0.0784050568123874
17.374684,15.223909220739138,0.0781154732223189
17.378771999999998,15.185466969329374,0.0778174536527319
17.382856,15.147135442819549,0.0775147524029455
17.386952,15.105215048809672,0.0772180033354045
17.391008,15.05904143790014,0.0769448348683339
17.395104,15.016002377215385,0.0766528004569171
17.3992,14.968477232155564,0.0763677088909806
17.403295999999997,14.922857245745709,0.0760746025441012
17.407391999999998,14.873426942035934,0.0757927217567426
17.411488,14.82377518852629,0.0755153706245098
17.415588,14.77423415991658,0.0752332184071113
17.419636,14.726709014856764,0.0749401381672437
17.423731999999998,14.683780679071944,0.0746337983470757
17.427827999999998,14.651607528111732,0.0742840977242503
17.431924,14.627276461551226,0.0739016279495995
17.436024,14.604064061665598,0.073510689191869
17.44012,14.578835778230076,0.0731281767108283
17.444212,14.5592122458445,0.0727292665979949
17.448308,14.546422856083677,0.0723039525866893
17.452403999999998,14.53374419122279,0.0718737589949099
17.456504,14.518938917912074,0.0714555773417462
17.4606,14.509516945851429,0.0710287241860881
17.464696,14.507715608390615,0.0705788966238074
17.468792,14.510400355304863,0.0701216876840575
17.472891999999998,14.514203768893994,0.0696562156613863
17.476988,14.51857222465833,0.0691980779012783
17.481023999999998,14.536841833147584,0.0687091018495649
17.485052,14.55578720871198,0.0682254547079839
17.489096,14.579329393551369,0.0677326007373827
17.493095999999998,14.598839811290972,0.0672563999493424
17.497176,14.625860138730474,0.0667635461924623
17.501224,14.653666958145054,0.0662736644532697
17.505252,14.687078528609574,0.065773009375159
17.509335999999998,14.71713409904945,0.0652961361495067
17.51342,14.749659870314492,0.0648244304275834
17.517492,14.7849880171045,0.0643486227958902
17.521528,14.82322926431942,0.0638650520896645
17.525616,14.860462569759388,0.0633873529742902
17.5297,14.894561324974584,0.0629263398639848
17.533796,14.937853698739763,0.0624525431139999
17.537884,14.982375464079764,0.0619706985889948
17.541976,15.023308361919714,0.0614949725554539
17.546072,15.060320217559816,0.0610345205244059
17.550155999999998,15.09766424789972,0.0605679383288666
17.554244,15.138707870639609,0.0600969259671659
17.558332,15.18187810182932,0.0596176022234405
17.562412,15.21394955581909,0.0591586496276994
17.566499999999998,15.2464639094086,0.0586900111065353
17.570591999999998,15.276962379448214,0.0582296168823218
17.57468,15.314516441912454,0.0577462100420635
17.578772,15.343220478202047,0.0572897460784194
17.58286,15.372932456266584,0.0568316462509203
17.586948,15.398047625056126,0.056381453349893
17.591044,15.423494968545477,0.0559241847252306
17.59518,15.443337560984885,0.0554766091679811
17.599272,15.459369836124374,0.0550375466708644
17.60336,15.470916026888808,0.0546009870391311
17.60744,15.481897175478029,0.0541573088698635
17.611528,15.490075948542284,0.0537169705351256
17.61562,15.48883965325668,0.0532926574649103
17.619716,15.484690257546175,0.0528745790540178
17.623808,15.478414253385836,0.0524646655091316
17.627904,15.466312048375688,0.0520663797678324
17.631999999999998,15.450178076265754,0.0516798224300401
