Time,Force,Position
18.686444,9.366250591762936,0.1371506998662913
18.690528,9.43884072094542,0.1368728282641032
18.694616000000003,9.506910512726243,0.1365364650118913
18.698692,9.564633766255604,0.1362179885389534
18.702772000000003,9.61201048153349,0.1359172606363477
18.706852,9.647700542085158,0.1356618354291797
18.710936,9.674849915810915,0.1354396468077228
18.715020000000003,9.696260978235731,0.1352145822348494
18.719108,9.717194888034207,0.134909823382358
18.723192,9.736422253631533,0.1345477989227385
18.727284,9.753168000728154,0.1341683749094768
18.73138,9.768218621299155,0.1337677590692352
18.735468,9.776866581169612,0.1333954972636796
18.739556,9.787076107314686,0.132985661349668
18.743644000000003,9.79660986638462,0.1325739760812677
18.747728,9.805689308179277,0.1321530251590255
18.751808,9.816219591348624,0.131699279990918
18.7559,9.831335266117431,0.1311701559865257
18.759984000000003,9.847458882661185,0.1306308172703533
18.764068,9.863803949004808,0.1300864537397705
18.768152,9.87992756554856,0.1295542350961179
18.772244,9.90020509176757,0.1290018634128616
18.77634,9.91813455973688,0.1284912184539825
18.780432,9.941115154256458,0.1279552000645042
18.784464,9.968814700626494,0.1274095627286501
18.788548,9.99797650604675,0.1268641000882953
18.792632,10.022320052392145,0.1263686530231457
18.79672,10.051703307612271,0.1258155664171957
18.800756,10.078173462407491,0.1252956062836499
18.804808,10.10352495052783,0.1247919356800036
18.808908,10.125520438623523,0.1243388849621876
18.813,10.145389318269393,0.1239149355712413
18.81706,10.169522832490449,0.123466817265145
18.821164000000003,10.191972637861417,0.1230301529580525
18.825256000000003,10.212960184182164,0.1225924353326447
18.829348000000003,10.225983503527743,0.1222111270614754
18.833456,10.237766013622972,0.1218199384804137
18.837560000000003,10.242149338918235,0.1214927415037561
18.841664,10.244283913188202,0.1211668753179118
18.845712,10.23980579463328,0.1209023425358597
18.849824,10.236778517453049,0.1206075610079149
18.853856,10.229708055497497,0.1203262834534838
18.857948,10.227222985141402,0.1199766332039493
18.862036000000003,10.218335254084762,0.1196449548853661
18.866132,10.204384978802318,0.1193051334145528
18.870224,10.188739576994257,0.1189399887134725
18.874316,10.18014976761082,0.1184973873548075
18.878408,10.162709932052731,0.1181430365754125
18.882496000000003,10.14874823909476,0.1177684541684028
18.886588000000003,10.14196428113688,0.1173456240991578
18.890676,10.139433540078656,0.1168696336917862
18.894768,10.137234973720236,0.1163781007780002
18.898852,10.1313253972863,0.1158833211503267
18.902936,10.122269852952058,0.1153920698012058
18.907028,10.114443700192632,0.1148796260479385
18.91112,10.1112143567082,0.1143300587159721
18.915208,10.108771505198847,0.1137795885183799
18.919292,10.115067954964209,0.1131483123530213
18.923384,10.119348521179678,0.1125370049677835
18.927472,10.1278823042948,0.1118726212064852
18.93156,10.130135569284842,0.1112482160116623
18.935648,10.130594400524858,0.1106328575369652
18.939736000000003,10.123654046964912,0.1100735567415129
18.943828000000003,10.118286677355124,0.1095110909546757
18.947924,10.112930725420862,0.108980355743578
18.95202,10.115550418137303,0.1084393392542263
18.956108,10.117627904029607,0.1079579443401358
18.960196000000003,10.132720743447347,0.1074153144684433
18.96428,10.15208963511581,0.1068927922009301
18.96836,10.173607970585168,0.1064166924487365
18.97244,10.20176183423048,0.1059598037429628
18.976524,10.23968577627652,0.1054878416189342
18.980604,10.287612664198688,0.1050236548767906
18.984684,10.34856632332183,0.1045410574357194
18.988768,10.416266235520856,0.104073995841188
18.9929,10.493736226120612,0.103597260306418
18.99698,10.578063194696188,0.10313385711154
19.001064,10.665436823947674,0.1027154976712044
19.005144,10.76179403962481,0.1022859605514082
19.009228,10.863778841702947,0.1018877130785457
19.013364000000003,10.975201547482014,0.1014894840144417
19.017448,11.0980780405119,0.1010774206441367
19.021528000000004,11.23140037901765,0.1006604504488633
19.02556,11.371014653324016,0.100249609037376
19.02964,11.51657727105566,0.0998272134218436
19.033776000000003,11.65855102128726,0.0994314079795606
19.037908,11.802639962293156,0.0989953432544258
19.042044,11.93886398354828,0.0985682256500676
19.046132,12.06733380995257,0.0981421638673857
19.050216,12.185689965580796,0.0977154180144362
19.054348,12.294608217508095,0.0972944635266471
19.058488,12.394653607909682,0.0968874585887962
19.062576,12.484142427935462,0.0964948828990333
19.066672,12.559829402460728,0.0961467412383829
19.070716,12.63213754161028,0.0957844019390375
19.07476,12.697256528084209,0.0954305879711425
19.078904,12.75529708678244,0.0950788050367604
19.082996,12.80290321768034,0.0947595196460788
19.087092,12.844217412777622,0.0944412555825948
19.091172,12.879128947174353,0.0941266545486706
19.095228,12.91425051369542,0.0937830106854259
19.099264,12.94218292754086,0.093443647850586
19.103352,12.964499172660828,0.093108589234011
19.107388,12.982550783205609,0.0927848083524066
19.111416,12.99768929332548,0.0924798364158701
19.115416000000003,13.013725020320363,0.0921735849042042
19.119452000000003,13.026183297490736,0.0919066625538686
19.12348,13.046384351836409,0.0916250086977214
19.12752,13.071525807832408,0.0913402970290771
19.131608,13.105085808078854,0.0910444545853158
19.135692,13.140562384650792,0.0907644042001148
19.139836000000003,13.179074204223104,0.0904911763555697
19.143924,13.21983477482071,0.0902228770107877
19.14802,13.263397720943283,0.089941596344049
19.152116,13.30102374131612,0.0896960397611792
19.156208,13.33674460303899,0.089461247771146
19.160304000000004,13.371236073187047,0.0892401913138052
19.164396000000004,13.411775193984788,0.0889820293390189
19.168496,13.45478451560769,0.0887240254320673
19.17248,13.495323636405429,0.0884676247461256
19.176576,13.52566119687823,0.0882533894043333
19.180628,13.554315048500946,0.0880421393020084
19.184672,13.578814990448404,0.0878348637966442
19.188720000000004,13.599271747620543,0.0876278073342552
19.192812000000004,13.615120277842156,0.0874135194353624
19.196904000000004,13.623226030888468,0.0872136810566347
19.200988,13.62582634010924,0.0870087560996649
19.20508,13.617770771729806,0.0868334665941313
19.209172,13.60365613502516,0.0866701303195263
19.213256,13.582695938020224,0.0865179089535134
19.21734,13.560494931764934,0.0863538443728004
19.221432,13.536942391359364,0.0861815220865131
19.225524,13.517532342953515,0.085982161305391
19.229608,13.502829828722597,0.0857634883689739
19.233696,13.49406424024142,0.0855129091123992
19.237788,13.485077201960374,0.085268986553572
19.241876,13.47799532232929,0.0850167414824436
19.245964,13.466881675598415,0.0847879703274245
19.250056,13.456886695542424,0.0845510214910986
19.254148,13.454180175386464,0.0842918370553798
19.258228000000003,13.459880781805412,0.0840012527561624
19.262316,13.467043647274576,0.0837160407818178
19.266408,13.480376305968893,0.0834182313744369
19.2705,13.501108149463173,0.0830963076350468
19.274592,13.527444744007388,0.0827549828622807
19.278676,13.561069798451635,0.0823923982346733
19.282764,13.603556296746072,0.0820116412083792
19.286848,13.651426096290576,0.081618063758961
19.290932,13.705011371784954,0.0812029453836674
19.294964,13.760501805929293,0.0807811960135631
19.299048,13.81991328227348,0.0803438626683827
19.303128,13.879656933317474,0.0798998401313957
19.307204,13.937827600411314,0.0794582773169401
19.311288,13.992630849804977,0.0790220485651211
19.315372000000004,14.04373450679866,0.0785995792540044
19.319372,14.095391788292016,0.0781625468977278
19.323456,14.147602694285046,0.0777120243096303
19.327484,14.204288266977604,0.077230969022019
19.331564,14.25581198821996,0.0767578545344689
19.335548000000003,14.30318179978706,0.0762885201783721
19.339640000000003,14.349089352303942,0.0758174776076534
19.343736,14.395771979120369,0.0753269155448409
19.347832,14.437403479386528,0.0748399867315887
19.351924,14.474770345077498,0.0743591248558164
19.35602,14.514042369418426,0.0738763276882872
19.360108,14.55084419293419,0.0733948780624802
19.364148,14.5834921067747,0.0729156026309793
19.36824,14.61748013708996,0.0724258198666231
19.372328000000003,14.64888724168012,0.0719402801929114
19.376384,14.681302288045226,0.0714518767447616
19.380432,14.711922900660308,0.0709693878592858
19.38452,14.73974113775042,0.0704953588858663
19.388572000000003,14.764646274415629,0.0700331002621675
19.3926,14.79055935285578,0.0695680741609265
19.39664,14.81960698152071,0.0690887099964475
19.40074,14.849884001760454,0.0686011199125585
19.404832,14.87937453002512,0.0681138546512838
19.408864,14.905054740989874,0.0676397751295283
19.412956,14.931853618629503,0.0671590879432301
19.417036000000003,14.957755279394128,0.0666807025084537
19.421128000000003,14.982981173083605,0.0662001649095083
19.425220000000003,15.010222950322976,0.0657145302331203
19.429308,15.043290928412157,0.0652130791145003
19.433396,15.079272006926244,0.0647055028501587
19.437492,15.109980509090196,0.0642043069885707
19.441588000000003,15.143602111679051,0.0636969358168474
19.445680000000003,15.180136814692816,0.063183808798543
19.449776,15.213758417281673,0.0626817101650123
19.453876,15.250071670495563,0.0621794299465523
19.457968,15.286827823309196,0.0616684905179873
19.462064,15.32167881747287,0.0611635516209767
19.466148,15.36034012893646,0.0606514124204574
19.470236,15.397428456449898,0.0601355335232267
19.474324000000003,15.433730291988256,0.0596197385453332
19.478412,15.468126968876655,0.0591105262774788
19.482496,15.498381153765337,0.0586187316035338
19.486584,15.5274059470792,0.0581368879832734
19.490672000000004,15.556209290593191,0.057661147865317
19.494764000000004,15.584680459407382,0.0571943259540249
19.498852,15.615843278846606,0.0567272939189429
19.502936,15.64106917253608,0.0562776463332888
19.507028,15.658342256925923,0.0558522089545477
19.511116,15.663176447641066,0.0554525196185404
19.515204,15.656358236656589,0.0550799610591239
