Time,Force,Position
19.7967,9.15448596843068,0.1389358271967306
19.800792,9.175709834082229,0.1388063806619178
19.804884,9.189843854282548,0.1386734527641175
19.808976,9.202271330281713,0.1384834990939031
19.813016,9.211652145604972,0.1382667521545353
19.817108,9.21551609942716,0.1380382000141338
19.821196,9.212301625473652,0.1378389029638674
19.82528,9.215577701769568,0.1375333525927496
19.829364,9.223217719865074,0.1371544657086114
19.833452,9.226593103385392,0.1368084853046482
19.837536,9.229747037105838,0.1364738095344496
19.841624,9.24198386447634,0.1360478191954338
19.845708,9.255793675796992,0.1356145933381215
19.849796,9.268595545342702,0.1351971326087315
19.85388,9.28678071613848,0.1347312819168366
19.857952,9.300258352759329,0.1343206341477393
19.862036,9.311498656030414,0.1339488408972095
19.86612,9.32229605970176,0.1335999714501566
19.870204,9.340160473473269,0.1331898019391693
19.874284,9.364759722645127,0.1327355914422374
19.878364,9.39318070679244,0.1322766572610781
19.882448,9.423518267265242,0.1318330026548824
19.886528,9.45520736188833,0.1313976609267886
19.890612,9.483429731586837,0.1310272927967061
19.894696,9.513225085235495,0.1306547894777426
19.898784,9.544261248134504,0.1302934512847321
19.902872,9.58225369623374,0.1298820614169611
19.906956,9.614542086058636,0.1295697151792295
19.911044,9.649533544184097,0.1292723393034847
19.915132,9.686330853735116,0.1289929263441608
19.91922,9.727171348061452,0.1286989194734517
19.923312,9.76925265163814,0.1284215869824259
19.9274,9.815144272514743,0.1281067594413634
19.931484,9.8600279516164,0.1278047663407228
19.935564,9.901322763218008,0.1275361296606553
19.939648,9.945984992519795,0.1272495559043792
19.943724,9.996141247971588,0.1269172127944745
19.947804,10.045289561648437,0.1265974726237422
19.951888,10.096908076150449,0.1262726330588875
19.955964,10.145834940027424,0.1259721273167543
19.960044,10.190497169329214,0.125699628969296
19.964128,10.23470508135573,0.1254167356802677
19.968204,10.277229284532154,0.125144645581838
19.972284,10.32165864635854,0.1248554412585183
19.976364,10.365080066409975,0.1245807845428932
19.980448,10.412422528661269,0.1242683237985009
19.984536,10.458081282062468,0.1239695955882825
19.988628,10.509111919038206,0.1236017990936541
19.992716,10.559012471663532,0.1232243055866015
19.996796,10.614174182963456,0.122786223408433
20.000884,10.66607920146314,0.1223634949889903
20.00496,10.713941035187508,0.1219582634302045
20.009044,10.759000493386903,0.1215795377955982
20.013128,10.81078336931112,0.121144180689309
20.017212,10.864028504285557,0.1207125835889915
20.021304,10.915479205509968,0.1202951896756103
20.025396,10.964127531209412,0.1199048592424165
20.029492,11.018380607958797,0.1194735124756338
20.03358,11.066131716783229,0.1190949444040114
20.037676,11.116574476232694,0.1187016523388447
20.041772,11.171281870257346,0.1182910874236949
20.045868,11.22957813178205,0.1178630248921329
20.049964,11.289668827056776,0.1174261341400332
20.05406,11.34886230545649,0.1169975842984384
20.058152,11.409739492706294,0.1165656698683705
20.062244,11.46938728838128,0.1161580851937082
20.06634,11.52948940133154,0.1157662626631327
20.070432,11.588816439982256,0.1154089062114363
20.074528,11.64736840433343,0.11508445070442
20.07862,11.701888601584812,0.1148022097124057
20.082716,11.758989724561298,0.11451101579372
20.086804,11.81687733951286,0.1142208857034318
20.090892,11.87667011311438,0.1139184910668425
20.094988,11.929518019191208,0.1136795565601492
20.09908,11.982808824867776,0.1134267774069485
20.103176,12.038226238994172,0.1131537077344485
20.107268,12.092967886045423,0.112879251032909
20.11136,12.144120665596631,0.1126282228349807
20.115448,12.199748111847368,0.1123272605092854
20.11948,12.252229590197793,0.1120323062832328
20.123568,12.302794492222723,0.111727895555464
20.127652,12.34651383394737,0.1114520176912495
20.131796,12.387984424646715,0.1111762429515166
20.135884,12.428435655895584,0.110883870726454
20.139976,12.465065152169004,0.1105928723168531
20.144064,12.49697569659196,0.1103072991499808
20.1481,12.526293897614284,0.1100069528540649
20.152232,12.54932016283599,0.1097121269856504
20.15632,12.570872751331947,0.1093897354220111
20.160412,12.591627430177288,0.1090429372787616
20.164496,12.608781823847057,0.1086892878815891
20.16858,12.625703350041425,0.1083187239164428
20.172676,12.63958963323541,0.1079477099236496
20.176768,12.65401812325354,0.1075317924674058
20.180856,12.665743544971106,0.1071042969399521
20.184956,12.674433723688296,0.106676174148108
20.189044,12.680985876280127,0.1062420414382047
20.193132,12.683937743696376,0.105798898997975
20.197224,12.68117413516275,0.105392367842222
20.201316,12.677845484453917,0.1049787042958749
20.205412,12.668912082695142,0.1045968552702048
20.209444,12.663788998236283,0.1041912946484341
20.213532,12.657879421802352,0.1037859464139585
20.217564,12.650961903593473,0.1033882921949454
20.221596,12.64617099383442,0.1029716540525419
20.225644,12.643395967625262,0.1025393390255665
20.229672,12.642415375166127,0.1021002198142315
20.233756,12.647936750631944,0.1016266419649713
20.237828,12.648418417223024,0.1011899112019751
20.241912,12.650362342864328,0.1007577902654811
20.24594,12.650966152030875,0.1003438923963886
20.250028,12.649664802547475,0.0999417160987709
20.254116,12.650944378789166,0.0995326717573924
20.258204,12.65436198115622,0.0991318574575945
20.26224,12.654988625673838,0.0987708383767482
20.266284,12.658196195916558,0.0984033036644135
20.270368,12.66667634250941,0.0980190223495397
20.274464,12.679211091553116,0.0976575485024732
20.278556,12.69915644307232,0.0972868530236363
20.282636,12.726080915142813,0.0969483233612269
20.286732,12.764348449564189,0.0966019401403561
20.290816,12.805551919761534,0.0962912529495651
20.294912,12.85608256875987,0.0959884735658434
20.299,12.916272571259,0.0956837311685371
20.303076,12.980185001509176,0.0954147083539645
20.307156,13.05062223503537,0.0951678574003521
20.311236,13.122876737662654,0.0949658191580633
20.315276,13.19896439294092,0.0947963550174398
20.319364,13.29020542786998,0.0946016970532374
20.323468,13.383485181700006,0.0944438742850291
20.327572,13.490123881430808,0.0942697941303125
20.331616,13.602168717762744,0.094125764025201
20.335652,13.71647372279551,0.0940118689391419
20.339684,13.83684921382902,0.0939107713817609
20.343772,13.97113727526298,0.0937771323827602
20.347864,14.109479939147796,0.0936688016269644
20.351952,14.248964105058556,0.0936007108793442
20.356044,14.397187572244032,0.0934919395524063
20.360136,14.546186113729052,0.0933653408328789
20.364224,14.695150402187476,0.0931769564163826
20.368312,14.837700612269815,0.0929708855628491
20.3724,14.979552219925946,0.0927215663287532
20.376488,15.113527490155777,0.0924511034931487
20.380576,15.240756507309715,0.0921733360010901
20.384672,15.365725355762828,0.0918726935193633
20.388756,15.486971776464893,0.0915470492222535
20.392836,15.607519594740747,0.0911784188264908
20.396924,15.723669218190416,0.0907819502600793
20.401068,15.830713112638962,0.090377319145299
20.405152,15.93716912956124,0.0899280084561016
20.409236,16.03261425883243,0.0894782680316806
20.41338,16.12859017725224,0.0889776030303757
20.417464,16.224764710120844,0.0884350385104547
20.421548,16.318114032113417,0.0878689442595321
20.425632,16.401017508630122,0.0873077766732754
20.429716,16.48019855739578,0.0867227028893741
20.433808,16.555092136235178,0.0861062215614599
20.437892,16.61797830332409,0.0855120744949693
20.44198,16.67704273543755,0.0849167999825746
20.446068,16.731067458676275,0.0843509624094474
20.450208,16.78632157348982,0.083778484442958
20.454348,16.83597093725342,0.0832262629129392
20.45844,16.88684969259184,0.0826670704049681
20.462524,16.936376913779974,0.0821038029363425
20.466664,16.983201066667537,0.0815294503685663
20.470752,17.02306893435488,0.080965802020009
20.47484,17.057664225692086,0.0804122532227218
20.478928,17.08777343265423,0.0798690824920186
20.48302,17.115523163691147,0.079324637945675
20.487112,17.136095159727972,0.0787948927137202
20.491196,17.152402521189597,0.0782681716777549
20.49528,17.159626989001175,0.0777619587117815
20.499364,17.160681663587606,0.0772657759913272
20.503412,17.150859010773964,0.0767914753088886
20.507504,17.137890390060004,0.0763123297346421
20.511588,17.11975991789585,0.0758369522605331
20.515676,17.101961620431503,0.0753538271138029
20.51966,17.08460622256689,0.0748594031652501
20.523752,17.06287546522715,0.0743690424997904
20.527788,17.03889595686212,0.07387231080236
20.531884,17.010208914322156,0.0733874360456308
20.53598,16.980059612731974,0.0728959056028053
20.540072,16.942965443617098,0.0724279844754213
20.544172,16.902171682102246,0.0719665543000637
20.548216,16.860935020987654,0.0715143461585267
