Time,Force,Position
20.782648,7.861536455511684,0.0958623488650692
20.78674,7.873242493733576,0.0955405166677709
20.790828,7.890553283005408,0.095176945522881
20.794916,7.908650564252317,0.0948156335816372
20.799012,7.930558162799143,0.0944218897674402
20.803111999999995,7.949663385821,0.0940525425642793
20.807208,7.968314291567584,0.0936644838426407
20.8113,7.988305313788919,0.0932500544995277
20.815384,8.01064439425995,0.0927952477227918
20.819472,8.034777908481008,0.0923302811065828
20.823564,8.055322555202016,0.0918869568427563
20.827691999999995,8.075867201923025,0.0914453002129212
20.831783999999995,8.090352780318822,0.0910263773633597
20.835916,8.104384041439344,0.0905901476992009
20.840004,8.119976868834488,0.0901149657287763
20.844088,8.133210220304402,0.0896377680301469
20.848172,8.146665021574188,0.0891488226671835
20.85226,8.156530955343923,0.0886814695345242
20.856392,8.163705238488623,0.0882285028585999
20.860524,8.16628271235833,0.087805842250265
20.864608,8.164939144028187,0.0874200016287493
20.868692,8.163927750397844,0.0870192664266728
20.872784,8.155406447067605,0.0866712375505396
20.876876,8.144193493112331,0.0863360496138416
20.880968,8.133988480932,0.0859915983135582
20.885096,8.12310770167653,0.0856397638365568
20.889236,8.11424280597095,0.0852673839417753
20.893376,8.104259243590489,0.0849105711463182
20.897468,8.099769707360034,0.0845250197482522
20.901564,8.098193271554486,0.0841179127744238
20.9057,8.09863271929883,0.0836914101142449
20.909792,8.09896144214324,0.0832708025792083
20.913879999999995,8.108483783537636,0.0828013470615952
20.917968,8.121373542632211,0.082330004075528
20.922056,8.135049793701866,0.0818625577747426
20.926144,8.150409753621606,0.0813934270298675
20.930236,8.168572089066316,0.0809101320056474
20.934368,8.183821324086122,0.0804465619101374
20.938456,8.204220992880597,0.0799355266177923
20.94254,8.228541703874923,0.0793962528369703
20.946624,8.256107689993959,0.0788226402742157
20.950716,8.279187591737934,0.0782676518282299
20.954812,8.30853659393146,0.0776507483950792
20.9589,8.34292530499972,0.0769946241048662
20.962996,8.374843815242816,0.0763419217971476
20.967084,8.40799171706073,0.0756731416889539
20.97118,8.443831269503676,0.0750013758461313
20.975272,8.480224446446298,0.0743067693681547
20.979368,8.511345047038784,0.0736316078876851
20.98346,8.539098229931094,0.072962091566773
20.987556,8.568978021273232,0.0722766814241439
20.991648,8.599522162014978,0.0715636757568033
20.99574,8.624793726406589,0.0708675185835199
20.999832,8.645911381122941,0.070171717424603
21.003924,8.666131818964285,0.0694811953799662
21.008023999999995,8.686573706605499,0.0687826596043299
21.01212,8.704656118321484,0.0680792444198897
21.016212,8.729794122462092,0.0673268594049354
21.020308,8.749105925752891,0.0666104512151009
21.024344,8.766844745093536,0.0658925321619864
21.028392,8.783907797359037,0.0651720568217088
21.032488,8.804781166924458,0.0644349828300161
21.03658,8.823638652939984,0.0637161794730224
21.04068,8.83857509675566,0.0630228010462608
21.044775999999995,8.855195249421424,0.0623332218885423
21.048872,8.875404269587236,0.0616432326864201
21.052968,8.892135147152933,0.0609582869157138
21.057048,8.907747358043752,0.0602860014721394
21.061132,8.923138119134698,0.0596238517816964
21.06522,8.937631663350635,0.0589632111080925
21.069312,8.949212107141662,0.0583185572034584
21.073396,8.961357593107898,0.0576897140448084
21.077484,8.970589978649231,0.0570720146354615
21.081568,8.978925147315554,0.0564539208315799
21.08566,8.986695273806665,0.0558235376858385
21.089739999999995,8.990765807897796,0.0552002182789549
21.093831999999995,8.993606950414112,0.0545913186113449
