Time,Force,Position
20.532196,11.92267212647867,0.1245838065151416
20.536284,11.888582399192966,0.124275107901331
20.54032,11.857405772332166,0.1239392329742949
20.544416,11.833849780071205,0.1235398828118944
20.548468,11.807048512685528,0.123176726698541
20.552552,11.790570948200257,0.1227599363978138
20.556600000000003,11.77443697609032,0.1223571984169926
20.560648,11.76289981325538,0.1219205705662779
20.564688,11.751927692595649,0.1214894328409108
20.568768,11.743536497661015,0.1210448031517902
20.572812,11.735034577826449,0.1206039020605503
20.576844,11.726089758392142,0.1201786485785154
20.580928,11.718607198008051,0.1197561032110482
20.585016000000003,11.711013912724033,0.1193373288251195
20.589092,11.705104336290097,0.1189108566763764
20.59312,11.703570119331284,0.1184602098742245
20.597152,11.704284653397773,0.1180109573919955
20.601232000000003,11.70388052078938,0.1175749065497775
20.60532,11.71569383205581,0.1170476731751692
20.609416000000003,11.73019879394728,0.1165053780116104
20.613452,11.743806538963735,0.1159670060229016
20.617536,11.758311500855203,0.1154240844601495
20.621628,11.77450017159676,0.1148761940125142
20.625728,11.782957482838553,0.1143926301715758
20.629816,11.79690882023034,0.1138744511973074
20.633916,11.805809031071869,0.1133756126785582
20.637956000000003,11.814487792113525,0.1128850739806002
20.641992,11.820929219805418,0.1124211675233278
20.64598,11.8290543563474,0.1119513733810309
20.650064,11.84031404311416,0.1114529196174268
20.654148,11.854376105405889,0.1109373995534842
20.658244000000003,11.870343326347577,0.1104081294912074
20.66234,11.879919304264243,0.1099171746927287
20.666396,11.89017104925606,0.1094300918432258
20.670496,11.900422794247874,0.1089431556891934
20.6746,11.913255464964786,0.1084485120791679
20.678692,11.92037265973182,0.1079937983747134
20.682784,11.93096799709897,0.107525397288529
20.68688,11.936412900691453,0.1071058521012963
20.690976,11.94051768780918,0.106707669438039
20.695076,11.949219284201904,0.10628337732301
20.699168,11.959715314344647,0.1058517578188859
20.703268,11.9681954609375,0.105437580902854
20.7073,11.980153750130468,0.105009796749899
20.711392,11.990882647748617,0.1046001094832365
20.71548,12.007559888792043,0.1041736347114243
20.719568,12.025134346710487,0.1037434763330896
20.723656,12.048202830778932,0.1032860494377301
20.727744,12.072168531722388,0.1028260442098204
20.731836,12.091770290866254,0.1024120543638563
20.735928,12.110142658435304,0.102015932633221
20.74002,12.128736475804224,0.1016132185511635
20.744112,12.153942985998029,0.1011719940309271
20.7482,12.18015743796678,0.1007247051830632
20.752284000000003,12.211755191185606,0.1002572524834787
20.756376000000003,12.239653352004447,0.0998113682724471
20.760464,12.273488438573038,0.0993241279122046
20.764556,12.304742599416524,0.0988464984988657
20.768644,12.340139252259734,0.098337425386345
20.772724,12.375868079802746,0.0978183928546192
20.776808000000003,12.409802473595734,0.0973094999653079
20.780892,12.441045216763689,0.0968136903287927
20.78498,12.473406626606526,0.0963077283748518
20.789076,12.505202994274152,0.0957961164334209
20.793164,12.537220811741651,0.0952793706831412
20.797248000000003,12.564076777758949,0.094778574659239
20.801332,12.590256976701104,0.0942748443664389
20.805424,12.6119510912682,0.0937907474617887
20.809508,12.632969438760153,0.0933043030277001
20.813592,12.652414802301951,0.0928163642032493
20.817676,12.671405848568478,0.0923186104151315
20.821756,12.692302053484964,0.0918130180216996
20.825832,12.708379999326583,0.0913361142136265
20.829916,12.721766294543167,0.0908693714454142
20.833992,12.726291145909574,0.0904312233399266
20.838072,12.732942605725803,0.089976703132197
20.842152,12.73757818199214,0.089536967453255
20.846232,12.7460240755584,0.08907945956206
20.850312,12.752675535374632,0.0886301791962139
20.854396,12.761342878740756,0.0881694826094774
20.858484,12.77191538075684,0.0877010779577995
20.862568000000003,12.78629820007284,0.0872161091085663
20.866656,12.800902469188708,0.0867252219057133
20.870748,12.815506738304578,0.086235483036165
20.874828,12.8265221399204,0.0857567502341693
20.878912,12.83944270018618,0.0852695432901625
20.883000000000003,12.85426841910192,0.0847747470308506
20.88708,12.872117963342497,0.0842633498592044
20.891164000000003,12.891872666233036,0.0837455606831207
20.895244,12.918572236648266,0.0831914781652317
20.899328,12.94516108216356,0.0826426278362274
20.903412000000003,12.969844769028898,0.082104646413154
20.9075,12.99856022299402,0.0815449740075192
20.911584,13.0291808356091,0.0809778955470243
20.915672,13.06899506677417,0.0803828946522803
20.919756,13.107801356164291,0.079796375986678
20.92384,13.14693982025422,0.0792018900495997
20.927924,13.181370750169217,0.0786277698089668
20.932012,13.214007246334193,0.0780601488837698
20.936092,13.244062816774068,0.0774981446712982
20.940176,13.270750969513765,0.0769396523941416
20.944264,13.292953037878403,0.0763935137076802
20.948348000000003,13.318068206667949,0.0758378331906319
20.952440000000003,13.340713174632326,0.0752818121120272
20.956532000000003,13.367279184796557,0.0747089026794943
20.960628,13.39182931141089,0.0741471585174362
20.964712,13.414474279375268,0.0735940402871448
20.9688,13.432411713164718,0.0730578009262392
20.972892,13.44676027945412,0.0725300407195965
20.97698,13.455282644893712,0.0720278796831411
20.981068,13.46223202638315,0.0715228144605487
20.985152,13.466489757247553,0.0710224825606238
20.98924,13.46805583748692,0.0705282408886274
20.993328,13.46973264262622,0.0700314085395683
20.997416,13.46322377099048,0.0695526637668005
21.001508,13.453126031854692,0.0690789961168917
21.005596,13.437202091869096,0.0686255840596286
21.009688,13.421610326583302,0.068161226901339
21.013784,13.401089577322711,0.0677150405566975
21.017876,13.37754500273728,0.0672812911129885
