Time,Force,Position
18.301128,8.913275247096012,0.1300998484144275
18.305216,8.91790285754221,0.1297958806546946
18.309292,8.926119335488458,0.1294593379591268
18.313376,8.937924680934751,0.1290923660461418
18.317452,8.95220022720621,0.128711708278506
18.321528,8.97096185785273,0.1282929066774041
18.325616,8.990288530674453,0.1278821024917802
18.329696,9.013314795896164,0.1274366262258394
18.333788,9.038589812143163,0.1269947865709548
18.337884,9.068793812364968,0.1264946178724238
18.341972,9.10291885478662,0.1259508388569604
18.34606,9.1388383309583,0.1253967999834008
18.350148,9.176097923604726,0.1248122157637699
18.354224,9.21603774920066,0.1241761804324877
18.358304,9.25642047439633,0.123518648608646
18.362384,9.293668649367229,0.1229057622743016
18.366468,9.330351782162916,0.1222865361638763
18.37056,9.367256364758475,0.1216607081791181
18.374648,9.402698688303817,0.1210354373614764
18.37874,9.436457302999068,0.1204212160901232
18.382828,9.465619108419324,0.1198538024380553
18.38692,9.490627004164327,0.1193081544390856
18.391008,9.520674608784065,0.1187092947606455
18.3951,9.546346853928672,0.1181422007384641
18.399192,9.573359215548036,0.1175500696253478
18.403272,9.597679926542362,0.1169818972890923
18.407368,9.625135187761469,0.1163756884649513
18.411452,9.64810436460551,0.1158047257958954
18.415536,9.670397774374411,0.1152363653204265
18.41962,9.692801909043247,0.1146690124259984
18.423708,9.714308826837073,0.1141129516968774
18.427792,9.731440385155771,0.1135843926557286
18.431876,9.750477102124432,0.1130400581342893
18.43596,9.760331618218634,0.1125992202406918
18.440044,9.772767060037935,0.1121466965223658
18.44408,9.787439835207003,0.1116621202695305
18.448136,9.802223335276008,0.1111737712690227
18.452232,9.816109618469998,0.1106931354987401
18.456232,9.831679610514076,0.1102068509588117
18.460324,9.850949194958137,0.1096948542630672
18.464368,9.872234662952092,0.109164068515762
18.468456,9.89610105667115,0.1086219788685259
18.472556,9.90932299046553,0.1081778911661506
18.476604,9.925125849985012,0.1077224628038088
18.480692,9.939920767729548,0.1072792865039495
18.484796,9.953929193499006,0.1068373779698349
18.488884,9.96401657706861,0.1064326877682169
18.492988,9.973993235738282,0.1060317918183401
18.497076,9.977357201583066,0.1056834342812456
18.50116,9.977808067002943,0.1053621866451161
18.505248,9.972543456472946,0.1050868421080749
18.509336,9.968176062817962,0.104805581478941
18.513424,9.961903510513022,0.104539704749482
18.517504,9.965488926157676,0.104182631003442
18.521584,9.96739063295224,0.1038323375370579
18.52566,9.96828439797186,0.1034920682531747
18.529744,9.968956713191606,0.1031616645799828
18.533772,9.969407578611484,0.1028410918664091
18.537856,9.968961227156353,0.102526130167243
18.541936,9.964815283301236,0.1022365682795787
18.546028,9.959772122571108,0.1019527278352672
18.550112,9.955404728916124,0.1016741503749319
18.5542,9.957871477885895,0.1013377969526778
18.558288,9.962021935705756,0.1009981743402146
18.562372,9.96673743570082,0.1006684944263372
18.566464,9.969104877446194,0.1003705948669116
18.570552,9.976069128466555,0.100045205219685
18.57458,9.986732971886903,0.099697027698598
18.578608,10.004009508132135,0.0993027326410772
18.582688,10.020167377702489,0.0989226428958861
18.586724,10.04562959072276,0.0984845690929697
18.590816,10.075577888118096,0.0980267017559479
18.594912,10.105415460613496,0.0975736683968613
18.599008,10.13122126600911,0.0971606208338466
18.6031,10.1578135633798,0.0967496798355579
18.607196,10.186200294500514,0.0963313605398646
18.611284,10.215705692296108,0.0959015074875767
18.615372,10.244424598116623,0.0954721309751036
18.61946,10.273032779037203,0.0950485074622919
18.623544,10.304332610582824,0.0946141353467028
18.627624,10.334624500353495,0.0941906002257175
18.631708,10.361659697323924,0.0937713026332242
18.635796,10.386568285844522,0.0933760107421301
18.639872,10.405982848215116,0.0930102090198997
18.643968,10.42561886038558,0.0926370021260835
18.648064,10.450516031230649,0.0922131234491554
18.65216,10.471935059475603,0.0918028110249384
18.656252,10.495369971270453,0.0913799236857822
18.660344,10.515105290665314,0.0909787968583582
18.664436,10.536967218510007,0.0905578537714304
18.668532,10.55064346957966,0.090177159921121
18.672628,10.558039202524231,0.089823236931618
18.676716,10.568126586093838,0.0894591611159134
18.680812,10.580119128313402,0.0890848212734315
18.684904,10.59200094563303,0.0887161280426717
18.689008,10.606574413577691,0.0883394093180533
18.693112,10.618013331297584,0.0879904706014105
18.697204,10.633041116517518,0.0876291404340779
18.701304,10.648068901737457,0.087268395714999
18.705396,10.657491935907457,0.0869364144843885
18.709492,10.667812186952462,0.0866019661640547
18.713588,10.681721305497517,0.0862550182452594
18.717688,10.692717323617668,0.0859258910958973
18.721784,10.71133397633765,0.0855548379873701
18.725884,10.72916413708256,0.0851841652270522
18.72998,10.749575223552569,0.084812160081192
18.734072,10.774472394397636,0.0844269272243954
18.738168,10.793654089292827,0.0840744907326337
18.742264,10.815638159712991,0.0837101887751746
18.74636,10.838740896808035,0.0833371981582244
18.750392,10.862740850778092,0.082960408972983
18.754484,10.889432455373184,0.0825747128006476
18.758568,10.915559017793068,0.0821819641440208
18.762652,10.939104654487853,0.0817952991416916
18.766736,10.962085249007426,0.0814006693304383
18.770824,10.980801208951814,0.0810140881007158
18.774916,11.005896994245685,0.0805765278385537
18.779,11.02762536183938,0.0801437540062722
18.783084,11.047670020582984,0.0797122918711923
18.787168,11.07566748862623,0.0792328528674951
18.791256,11.102878464694395,0.0787537739548707
18.795344,11.129302948787483,0.0782761771823884
18.799432,11.16210725823006,0.0777490938834323
18.803516,11.18795528247241,0.077236958774549
18.807564,11.214135481414564,0.0767147516338109
18.81166,11.23112206180673,0.0762255072496545
18.815756,11.242049573873684,0.0757462303391507
18.819848,11.255435869090274,0.0752389219231079
18.823944,11.26825712213165,0.074724596597953
18.82804,11.277489507672982,0.0742202860377815
18.832136,11.291761602089048,0.0736873041683432
18.836232,11.309278971629825,0.0731313271759213
18.840328,11.328247182545285,0.0725573630021658
18.844424,11.34844478503556,0.0719709262949123
18.84852,11.370658271075731,0.0713757022069698
18.85262,11.393990423790786,0.0707722736785225
18.856716,11.411607100555964,0.0701945689483259
18.860812,11.429334502221076,0.0696135810335195
18.864904,11.448623470160811,0.0690081393114875
18.869,11.461410470175592,0.0684246117678234
18.873096,11.473853877815037,0.0678247968626273
18.877192,11.4829298677543,0.0672242523183729
18.881288,11.485171715068809,0.0666543221406473
18.885384,11.488875821433536,0.0660916883472045
18.88942,11.489445377573489,0.0655481083062168
18.893512,11.496738351438266,0.064978531766813
18.897548,11.506722975928078,0.0644044001490181
18.90164,11.516596875517951,0.0638355420088856
18.90568,11.520755299157951,0.0632853694568176
18.90976,11.523795056123069,0.0627426757579683
18.913852,11.525040379338163,0.0622053317776281
18.91794,11.522364660353404,0.0616856677310723
18.922028,11.517340883118946,0.0611883661082861
18.926112,11.513214322759502,0.0606908606888987
18.9302,11.50269651937504,0.0602037765429388
18.934288,11.49117077421563,0.059721213819225
18.938372,11.480320796131366,0.0592440703121245
18.942448,11.469581542947031,0.0587626825207998
18.946532,11.464447040812638,0.0582705158113681
18.95062,11.463798623053306,0.0577742615356329
18.954704,11.46181008881922,0.0572929629715744
18.958776,11.462291755410302,0.0568161505440862
18.96286,11.46759168107625,0.0563243062623558
18.966936,11.47512894009196,0.0558174430182151
18.97102,11.487816632882335,0.055286185581656
18.9751,11.4996071087977,0.054758222428079
18.97918,11.508595209188098,0.0542354419940632
18.983268,11.515345976228732,0.0537282671953353
18.987352,11.527701494319302,0.0532101404881724
18.99144,11.5418514461599,0.0526903190346813
18.995528,11.55174818110084,0.0521942537980917
18.999612,11.561755640941715,0.0516948208324083
19.003704,11.566047624832718,0.0512068758987253
19.007788,11.564181233174104,0.0507454284929178
19.011872,11.565460809415796,0.050295445761856
19.015948,11.562597893657768,0.0498631991053785
19.020032,11.560742919674686,0.0494270640714521
