Time,Force,Position
22.992456,13.793808825507575,0.1322281659130861
22.996536,13.823913518504977,0.1319118853948733
23.000612,13.848722799801177,0.1315806873761451
23.004696,13.86903457904678,0.1312535781383152
23.008776,13.887773374342231,0.1309294950496382
23.012808,13.907298661612764,0.1306016609448018
23.016888,13.929626324408265,0.1302543655614112
23.020928,13.95553143702828,0.1298622110936662
23.02492,13.97862275644779,0.1294662127477232
23.029004,14.001026891116624,0.1290460490619285
23.033088,14.015909698410027,0.1286562322276455
23.037176,14.033129146277597,0.1282147182487428
23.041156,14.045064600119495,0.1277790602837813
23.045244,14.055759244711046,0.1273370910834246
23.049332,14.068126180477154,0.1268671782558296
23.05342,14.079252306992911,0.1263911124368398
23.057492,14.084319365183458,0.125943049694379
23.061576,14.084900338998946,0.1255211179467021
23.06566,14.083908328864275,0.1251025477182213
23.069752,14.076857250404396,0.1247123742717964
23.073844,14.069130404869371,0.1243200222673686
23.077936,14.06094924205908,0.1239188588873335
23.08204,14.049522804124072,0.1235498462227909
23.086068,14.043258217639266,0.1231587742664855
23.09012,14.039242382179758,0.1227663045632986
23.094208,14.04038839817045,0.1223511521441257
23.098256,14.04131296436127,0.1219435183255895
23.10234,14.042470398027495,0.1215529374726263
23.106424,14.04811391606878,0.1211390466098645
23.110508,14.051630825660238,0.1207451435056776
23.114596,14.058958052551612,0.1203249359650951
23.118644,14.065388062567973,0.119910476351428
23.122676,14.074398998309436,0.1194861155022483
23.126716,14.081394050501006,0.1190779484824751
23.130752,14.081776409867686,0.1187124581928712
23.1348,14.080929377659553,0.1183620469110875
23.138844,14.087481530251384,0.1179684828298665
23.142888,14.095495941893432,0.1175761932139232
23.146916,14.103178178835677,0.1171943025703189
23.150952,14.1142278334781,0.1168015264241617
23.15492,14.125842530295728,0.1164150388618628
23.159,14.13510916886366,0.116054783051682
23.163084,14.148972616706583,0.1156697972767553
23.167124,14.161828122774562,0.1152947229714392
23.171212,14.179280438117532,0.1148962134415591
23.1753,14.199645853885407,0.1144805478285374
23.179388,14.221916428303242,0.1140547710914892
23.183476,14.24530566939596,0.1136200989443069
23.18756,14.266568302038849,0.1132055852502779
23.191644,14.293435685731676,0.1127616891833559
23.195732,14.319073677849694,0.1123326100114194
23.199824,14.344490220167836,0.1119115106958701
23.203908,14.367890878936086,0.1115061615758711
23.207992,14.39398318832937,0.1110894278642674
23.212084,14.423664365222702,0.110656409467155
23.216128,14.457155859415952,0.110202915187245
23.220216,14.488852919859182,0.10976022948742
23.224304,14.52042783772694,0.1092992675707258
23.228336,14.555358755619343,0.1088089152355318
23.23242,14.590732573111486,0.1083078278413627
23.236504,14.626660015103305,0.1077918661715607
23.240592,14.665156965144687,0.1072462244728709
23.24468,14.696808354885782,0.1067212306775031
23.248736,14.724527284751492,0.1061995275057819
23.252788,14.746297871191924,0.1056954036213317
23.25688,14.759096288882237,0.105227851787826
23.26098,14.766400680422544,0.1047852539667786
23.265076,14.767313828937835,0.1043706459911712
23.269172,14.767551210377984,0.1039532216902197
23.273204,14.759602915043091,0.1035708585190186
23.277296,14.753105461082884,0.1031687350238601
23.281388,14.746940181822485,0.1027571498194226
23.285476,14.742225743936766,0.1023260228348008
23.289524,14.738286380350594,0.1018732639442731
23.293524,14.734900641264096,0.1014048421581063
23.29752,14.724447892077436,0.1009596022033488
23.301516,14.711635666965549,0.1005145386245429
23.305512,14.698712716953724,0.1000722911711083
23.30956,14.682987391416932,0.0996431709732098
23.31354,14.664902589954908,0.0992137334725916
23.317624,14.643339645892771,0.0987926253552926
23.3216,14.62020371788048,0.0983706113370604
23.325544,14.600202340092965,0.0979248471535535
23.329544,14.580200962305453,0.0974775026369886
23.333592,14.561207526292884,0.0970226010384646
23.337688,14.550056174680016,0.0965235047113314
23.341784,14.542260823091796,0.0959951916961279
23.34582,14.537600021728352,0.0954433962101036
23.349876,14.536405945289482,0.0948615754301868
23.353924,14.538124969275522,0.094262797883596
23.357972,14.542081326611324,0.0936474366212816
23.362004,14.54525119197205,0.0930324046051915
23.366048,14.5476345653577,0.0924177425565194
23.370104,14.547215563218378,0.0918152507027248
23.374148,14.549820386403896,0.0911974599648739
23.378136,14.55814068553929,0.0905538116718441
23.382184,14.569263360199654,0.0899001758139048
23.38618,14.584196352159935,0.0892323337764565
23.39028,14.60114522767011,0.088554865434614
23.394368,14.61933491243063,0.0878886348790878
23.398424,14.64380511531624,0.0872064959788373
23.402472,14.671642735902024,0.0865230820309633
23.406472,14.703744991062996,0.085836783149798
23.410512,14.737420230174124,0.085152168548991
23.414544,14.772668453235408,0.0844702793616192
23.418588,14.805679342946926,0.0838087784397593
23.422588,14.84396280900858,0.083141494114049
23.426568,14.88515937549514,0.0824639761473903
23.430596,14.924905100607011,0.0818080776643256
23.434688,14.973057952293797,0.0811294776192733
23.438688,15.018862745730884,0.080473804054462
23.442712,15.066240523118124,0.079822570440871
23.446704,15.115080559555585,0.079178974920053
23.450788,15.165272130143324,0.0785450285313494
23.454772,15.21121048383141,0.0779400419908979
23.458804,15.25782460459464,0.0773429699681684
23.462884,15.305114492433008,0.0767538058201572
23.46692,15.351174988696563,0.0761795980533092
23.470956,15.393879484935471,0.075629576443256
23.475048,15.436805430974252,0.0750757045900202
23.479092,15.476818276588125,0.0745358035395494
23.483124,15.514593788852231,0.0740131079420219
23.487108,15.54844825891649,0.073507799695132
23.491144,15.587907480030692,0.072990628058185
23.49512,15.62646948426988,0.0724763792943619
23.4992,15.66570725558421,0.071968331336376
23.503284,15.695308508748813,0.071493484839073
23.507368,15.725929121363892,0.0710380930882704
23.511404,15.748929099379138,0.070604650294043
23.515488,15.761395342369648,0.0702050909429793
23.519576,15.771956426710195,0.069811282351456
23.523652,15.778031426675687,0.0694241028810501
23.527732,15.781414776016144,0.069041179878454
23.531812,15.782106474731563,0.0686618649614911
23.535892,15.778422813971858,0.0682849218162716
23.539968,15.767339968412188,0.0679228761575196
23.544056,15.747739271377672,0.0675819983984732
23.548132,15.722644548193154,0.0672505155025133
23.552216,15.697095507733362,0.0669078638119555
23.5563,15.665720266423758,0.0665819520266751
23.560384,15.62963749093923,0.0662660251731273
23.564464,15.58996584795465,0.0659534351659346
