Time,Force,Position
21.564164,11.565542329723382,0.1431668160976714
21.56826,11.687990792684452,0.1426200415053915
21.572356,11.789169719291849,0.1420861115726889
21.576452,11.868414760145953,0.1415910240434482
21.580544,11.930788459472575,0.1411239884292941
21.58464,11.977764493997462,0.1407071744813137
21.588736,12.015966974221032,0.140307391640611
21.592832,12.053138677318596,0.1398699911777609
21.596924,12.087385862315717,0.1394360880775767
21.60102,12.124767597537613,0.1389684923298678
21.605116,12.158793332734865,0.1385482444753617
21.609208,12.190913909282155,0.1381455598908613
21.613304,12.21933489342947,0.1377757740306123
21.617404,12.24561785145142,0.1374058109897533
21.621496,12.27110289982276,0.1370127600889298
21.625592,12.293652012418129,0.1365961491061984
21.629688,12.313043739437658,0.1361646732948996
21.63374,12.32524631378156,0.1357605840283108
21.637788,12.33575376159984,0.1353397384149449
21.641876,12.342550199342606,0.1349225724045138
21.645972,12.348438002534824,0.1344874413403534
21.650056,12.354990155126655,0.1340266409904137
21.65414,12.360301498468138,0.1335585369488489
21.658232,12.36268832370918,0.1330906852224024
21.662316,12.362704255349456,0.1326023232784079
21.666408,12.36315166891394,0.1320700448067056
21.670412,12.357650739053147,0.1315698067379351
21.674448,12.343742682617442,0.1311373767808331
21.6785,12.33051039325688,0.1307061755662111
21.682532,12.312238395021586,0.130326112801621
21.686568,12.299006105661023,0.1298952836240562
21.690612,12.292275784225414,0.1294144926434648
21.694656,12.28375102903978,0.1289440436356823
21.698688,12.275791316029355,0.1284790914108258
21.702728,12.269626036768951,0.1280030733644799
21.706768,12.260669799659112,0.1275745708832628
21.71086,12.251049213149663,0.1271700867184937
21.714956,12.241993668815422,0.1267707486403627
21.719052,12.233170991956582,0.126389812250431
21.72308,12.230296658523022,0.1259808414084413
21.727176,12.22452064234009,0.1256241784938857
21.73122,12.220428335007243,0.1252598365504121
21.735308,12.213766519624834,0.1249344529971378
21.739364,12.208013338792965,0.1246293168899374
21.74346,12.20205012583676,0.1243582264510465
21.747556,12.201703081606029,0.1240724139904504
21.75166,12.203604788400591,0.1237854874272242
21.75576,12.211897738220175,0.1234546525735064
21.75986,12.222660888864924,0.1231158261134584
21.76396,12.234321256384684,0.1227710313733587
21.768056,12.242736348779731,0.1224646978785644
21.772152,12.24499306562517,0.1222203984254667
21.776204,12.254316792570766,0.1219366306421918
21.780304,12.26902382076643,0.121621825529928
21.784344,12.28228000758741,0.1213338214526625
21.78844,12.302259612133213,0.1209932832263471
21.79254,12.325495909479258,0.1206447555510298
21.796576,12.349973016075651,0.1203052711792369
21.800628,12.377031048397146,0.1199557803029054
21.804616,12.401630297569008,0.1196432958834292
21.808716,12.430937080915797,0.1192988987963893
21.8127,12.462381890387949,0.1189606305880882
21.816788,12.501447334459934,0.1185677806179263
21.820836,12.545552487406654,0.1181324577471505
21.824884,12.600191375378111,0.117623695880582
21.82898,12.650122729174642,0.1171513294224924
21.833024,12.706556050896124,0.1166425383360316
21.83712,12.765570298342706,0.1161290148829833
21.841208,12.828394863089205,0.1155954332037308
21.845252,12.89671345398571,0.1150345415134274
21.84928,12.965818536857292,0.1144745797678857
21.853364,13.038168894853586,0.1138826340223166
21.85746,13.108724819099852,0.1133058551435022
21.861504,13.179834367845794,0.1127202523250338
21.865588,13.2506003242164,0.1121236383410993
21.869628,13.31889607976184,0.111539017997062
21.873708,13.384943084281984,0.1109566466030606
21.877796,13.455796930201457,0.1103223285227391
21.881876,13.527315125520545,0.1096732862036879
21.885956,13.59490086096424,0.1090284348612547
21.890036,13.66034857028258,0.1083844159291913
21.894068,13.724211877975234,0.1077217926748953
21.89814,13.78604788444246,0.1070580077691834
21.90222,13.843840706134364,0.1064048412753373
21.9063,13.892207041800877,0.1057877337474083
21.910388,13.942577843341756,0.105135129828814
21.914412,13.984530100632186,0.1045079403132647
21.918456,14.020976914097078,0.1038866331135576
21.922492,14.052029008636366,0.103268574560207
21.92658,14.077243484650312,0.102665255187899
21.930616,14.102667992788597,0.1020337151361372
21.934704,14.12516798282644,0.101396855786763
21.938736,14.145862121438729,0.1007456695194465
21.94278,14.158370583275977,0.1001307994943938
21.94688,14.169195336263131,0.0995196950621443
21.950976,14.179455047075082,0.0989036109112475
21.955008,14.187355281961803,0.0982873370289772
21.959104,14.19043725777366,0.0976998114745016
21.963192,14.189033149210456,0.0971296832051129
21.967228,14.190763590872027,0.0965363828052604
21.971316,14.187000006383592,0.0959646884582352
21.975404,14.183125696995225,0.0953970400167913
21.97944,14.174433128531994,0.0948549074211541
21.983468,14.163946126318738,0.0943179579974595
21.987496,14.151332515655652,0.0937953047306212
21.991576,14.13547362986786,0.0932979152989727
21.995656,14.119171844480324,0.0928119986474985
21.999736,14.104332318143012,0.0923295102243736
22.003728,14.086812558856192,0.0918780246887331
22.00776,14.071984450194412,0.091417589968447
22.011844,14.059405092557927,0.0909625697723247
22.015928,14.050979644596696,0.0905032947031406
22.019928,14.041557672536053,0.0900729281881315
22.02402,14.034495176400636,0.0896429883465877
22.028052,14.029792156190451,0.0892146266724645
22.032092,14.024535511480597,0.0888027990655204
22.036124,14.02511648529608,0.0883859332893451
22.040176,14.02446806753675,0.087981023251414
22.044224,14.023044575477876,0.087598051061506
22.048268,14.019948792244444,0.0872403702348318
22.052372,14.022579902636425,0.0868804115217046
22.056476,14.025111705804,0.0865475184300459
22.060528,14.027654926647106,0.0862370904837402
22.064572,14.035925041115624,0.0859257931886665
22.068616,14.050929990984496,0.0856078802040078
22.072652,14.06616780832877,0.0853065859608406
22.076648,14.085670260248232,0.0849997753082786
22.080676,14.10652424631798,0.0847022044541588
22.084772,14.13142141716305,0.0844055479478439
22.08882,14.152519688383736,0.0841485528273008
22.092816,14.17126990135472,0.0839137753219592
22.096844,14.19115019867612,0.0836950399171842
22.100936,14.212935654647476,0.0834689394741306
22.104964,14.238199253218948,0.083237790196591
22.109056,14.264249343765494,0.0830087449946223
22.113088,14.291872418262194,0.0827824695344179
22.117184,14.315685175458976,0.0825726455074826
22.121284,14.343651842331017,0.0823618679892436
22.125328,14.376547493177853,0.0821285401652267
22.12938,14.416166561749511,0.0818696629205431
22.133432,14.457912238771,0.0815995508162255
22.13748,14.500100815392228,0.0813182274772623
22.141568,14.549455709338018,0.0809994271262799
22.145572,14.597913386408797,0.0806855307281557
22.149556,14.647711179954324,0.0803610632726825
22.153652,14.70366734904947,0.0800058219457787
22.157696,14.759734243044548,0.0796499864528117
22.161736,14.8140067032896,0.0792996934106935
22.165832,14.867935571159318,0.0789381361099548
22.169928,14.929141481253533,0.0785383264850859
22.17396,14.989782349172538,0.0781331325392673
22.178004,15.046601482116095,0.0777218012765581
22.181948,15.105768673309347,0.077295183846179
22.185996,15.163695055252251,0.0768606186704996
22.190072,15.224080220344792,0.0764089875128412
22.194104,15.285240459736876,0.0759402474725029
22.198184,15.348970207178526,0.0754504695844486
22.20222,15.41369647871959,0.0749388737251669
22.206204,15.475952549435489,0.074429698697709
22.210128,15.531030885151292,0.0739367634377036
22.214164,15.581844586291904,0.0734488214586406
22.21826,15.632203970157246,0.0729531651650468
22.222348,15.677180052772515,0.0724697990505486
22.226384,15.717326458637393,0.0719826031909838
22.23042,15.747603478877137,0.0715123838303191
22.234452,15.774513081416702,0.0710454975219915
22.238488,15.796482282305938,0.0705762024411717
22.242564,15.818107890819835,0.0700949508309002
22.246648,15.839279182058464,0.0696053381307044
22.250728,15.854391404971878,0.0691213568519713
22.25476,15.868041368835073,0.0686319249156813
22.258748,15.880794115823251,0.0681437962422964
22.262772,15.88715561978642,0.0676675725453616
22.266852,15.889817531349602,0.0671990422332569
22.270936,15.88508025811282,0.0667458944389009
22.275016,15.875524725801174,0.066306739676397
22.279044,15.8612616593146,0.0658785391317643
22.28308,15.840496624903071,0.0654630933367096
22.287108,15.819055823416404,0.0650428739326866
22.291204,15.801868238829393,0.0646021821698021
22.2953,15.78299694539229,0.064159781788897
22.299392,15.76042605955521,0.0637229216621921
22.303488,15.738076623517994,0.0632800067278049
22.307524,15.715837912380715,0.0628327922586888
