Time,Force,Position
20.870348,5.980546728144319,0.1294390962631832
20.874392,5.962213127566613,0.1294330945408278
20.87844,5.950392912589393,0.1293813363471945
20.882484,5.943623824162438,0.1292827473047667
20.886579999999995,5.948407830210703,0.1290396038180793
20.890612,5.9581322379093,0.1287590125606985
20.894644,5.972907772158164,0.1284312966234218
20.898672,5.9947503165071865,0.1280233391138408
20.902671999999995,6.02175471230641,0.1275628323610747
20.906716,6.0513400338307335,0.1270783254728002
20.91076,6.084735672654976,0.1265297053181721
20.914804,6.117123369704271,0.1260064477577956
20.9189,6.149965384028838,0.1255063552714345
20.922872,6.183372440528613,0.1250244801421091
20.926956,6.2124155552287945,0.1246451258948181
20.931004,6.241912987204251,0.1242883685129018
20.935052,6.277801662204723,0.123847645684613
20.939088,6.313690337205196,0.1234083847662706
20.94312,6.351484170855628,0.1229423004618359
20.947212,6.391293888055952,0.122437262896605
20.951304,6.432222271931159,0.1219097797791553
20.9554,6.471024047356536,0.1214336791042006
20.959432,6.508817881006967,0.1209794610513176
20.963519999999995,6.543809339132428,0.1205690654648315
20.967608,6.572409554232872,0.120246144680043
20.9717,6.594950701008102,0.1199797332664937
20.975788,6.616926805608125,0.1197032830252572
20.97988,6.631503725408185,0.1195264584622005
20.983964,6.641705285733117,0.1193931532237316
20.988043999999995,6.64820725365807,0.1193077402553407
20.992132,6.654709221583023,0.1192231143931644
20.996216,6.658630263782874,0.1191608783302426
21.000304,6.661089046932508,0.119096093981746
21.004396,6.660966904357041,0.1190536717481486
21.008488,6.66363571963101,0.11892426121744
21.012572,6.663834334079813,0.1188093857370395
21.01666,6.658760372178481,0.1187463331495956
21.0207,6.653232093001876,0.1186632230141407
21.024788,6.645122888100172,0.1186016920306408
21.028872,6.6345434823733,0.1185543080206534
21.032956,6.621493875821264,0.1185204898731545
21.03704,6.607092735118942,0.1184760221059076
21.04112,6.59223727714135,0.1184111338746352
21.045148,6.576706052088613,0.1183408492838307
21.049232,6.562293493710759,0.1182457226149223
21.053312,6.556288061907815,0.1180425982277051
21.057396,6.551512021679688,0.1178085803309897
21.06148,6.5461709392763545,0.1175605779593532
21.065564,6.543853682197862,0.1172620664366718
21.069652,6.54287654159412,0.1169235984395185
21.073732,6.542120850790247,0.1165715996254205
21.077824,6.544167535511344,0.1161843153535132
21.081908,6.549127320657347,0.1157560058030834
21.085936,6.554640730303023,0.1152906421335561
21.089964,6.55993269014883,0.1148423625800384
21.094048,6.569256417094425,0.1143300945207776
21.098132,6.581271794665054,0.1137910237571477
21.102164,6.5932871722356845,0.1132532786463111
21.1062,6.609223592006167,0.1126622382127028
21.110236,6.6290810539765,0.1120167853843502
21.114328,6.651740891471805,0.1113417622652453
21.118424,6.67551939564199,0.1106454933396601
21.122416,6.69660624918714,0.1099733085033401
21.126452,6.720606203157197,0.1092646581293239
21.130488,6.744495432227318,0.1085650405133286
21.134584,6.7621041431723565,0.1079295719039137
21.13868,6.774783870142596,0.107363952860291
21.142728,6.7920604063878285,0.1067514271084528
21.14682,6.808329000858116,0.1061569689358196
21.150868,6.82840791262832,0.1055216149503533
21.154964,6.845684448873553,0.1049178296323483
21.158992,6.862285218043644,0.1043109682386229
21.163044,6.877988770338724,0.1037167471756089
21.167092,6.89313869813413,0.1031571353032873
21.171136,6.905707700204434,0.1026137812775342
21.17516,6.91334771829994,0.1021356424485878
21.179196,6.920311969320305,0.1016526464982519
21.183172,6.927054770540799,0.101184040683285
21.187252,6.9317816882114,0.1007472153429127
21.191296,6.935279214307184,0.100340418900837
21.195392,6.938666015503033,0.0999432865767171
21.199487999999995,6.945530959298996,0.0995290776445837
21.203579999999995,6.959684362994987,0.0990574827018865
21.207671999999995,6.971821883141086,0.0986148695656539
21.21172,6.9838486783872495,0.0981794184792404
21.215748,6.998234949558642,0.097744667266226
21.219732,7.018336696679909,0.097252580221746
21.22378,7.037209052226361,0.0967902543982231
21.22788,7.057875841522836,0.0963184079242212
21.23198,7.075075905894732,0.0959141207801814
21.236011999999995,7.096540604841817,0.0954938396340996
21.240112,7.122945705439234,0.0950692021186324
21.244164,7.149915848211857,0.0946615491276639
21.248268,7.182269292234552,0.0942224933343999
21.252316,7.219563137907579,0.0937771631606706
21.256364,7.267169268805475,0.0932508698767725
21.260364,7.321055917828456,0.0926966357644351
21.2644,7.380547317901376,0.0921058600235849
21.26844,7.439595818374557,0.0915431273680886
21.272535999999995,7.50212246144785,0.0909734433701923
21.276616,7.566000638671428,0.0904253020635531
21.280652,7.626854990570166,0.0899187665663223
21.284732,7.686590675794022,0.0894410600037993
21.288812,7.74912873654285,0.0889481937021763
21.292896,7.816706506166408,0.0884106357806371
21.296976,7.887197376214876,0.0878546684399085
21.301012,7.956348129788592,0.0873339871480652
21.30504,8.029309200662224,0.0867918053474297
21.309124,8.102946038610998,0.0862639325529513
21.313204,8.18151186053457,0.0856974541069845
21.317284,8.260299132258012,0.085128497633641
21.321376,8.334821769406267,0.0845793336702388
21.32546,8.413376173654306,0.0840028189857685
21.32954,8.492484202402023,0.0834132674225611
21.333616,8.572035130749477,0.0828125272775166
21.3377,8.646878524922,0.0822565946025754
21.34178,8.71712510981953,0.0817358097131392
21.345864,8.78198839346699,0.0812441780218921
21.349892,8.847294576714189,0.0807343916808159
21.353984,8.910462733836027,0.0802179563713284
21.358076,8.971714314632372,0.0796821716559113
21.362164,9.0340845621036,0.0791369469304644
21.366256,9.093087391874649,0.0786003833613501
21.370348,9.151414454570556,0.0780639374282745
21.374436,9.204923258191602,0.0775648923545953
21.378528,9.255851136087545,0.0770758293994957
21.382624,9.309348522033057,0.0765530760749885
21.38672,9.360375707153398,0.0760368088838976
21.390816,9.411845791873484,0.0755073340043323
21.394908,9.461742892643414,0.0749817233982089
21.398952,9.509845559663322,0.0744659040154295
21.403048,9.559964110233125,0.0739403826376859
21.407143999999995,9.603580692877973,0.0734476040985114
21.411176,9.642379016447956,0.0729862834680162
21.415268,9.679272181367985,0.0725391700864111
21.419296,9.710560595238068,0.0721164168309563
21.42338,9.738149416708172,0.071708644240345
21.427364,9.765738238178274,0.0713019284350335
21.431348,9.796461609873152,0.0708743274770608
21.435379999999995,9.825734140193342,0.0704740956046968
21.439412,9.853777278938717,0.0700915027108996
21.443392,9.882828359459037,0.0697055790729423
21.447368,9.915357582579468,0.0693185776373931
21.4514,9.947554631000097,0.0689477435391959
21.455432,9.98434848869572,0.068565811851829
21.45946,10.021818113466484,0.0681930743037454
21.463508,10.055145246237526,0.0678530567288695
21.467492,10.087353712333687,0.067526046145193
21.471484,10.117546294879956,0.0672140045567757
21.475416,10.147628152526288,0.066909615526655
21.479464,10.181631052372472,0.0665890423940253
21.48346,10.213618068668763,0.0662829221971025
21.48744,10.250312619139985,0.0659625356771765
21.49148,10.29081748691112,0.0656302465813893
21.495564,10.330757312507052,0.0652899138798554
21.499592,10.379436439377695,0.0649137723576021
21.503616,10.433941767098151,0.0645148594449293
21.5077,10.492478861918398,0.0640979860629144
21.511796,10.546984189638854,0.0637074220141842
21.515844,10.602940358734,0.0632981954584393
21.519892,10.662928294928928,0.0628717382155635
21.523936,10.72033530539876,0.0624488788272418
21.527992,10.773588406193332,0.0620239114442482
21.532039999999995,10.826387189712635,0.0615874498755539
21.536092,10.876715772406776,0.0611519324655535
21.540124,10.926811487625512,0.0606975265468905
21.544068,10.980828245044098,0.0602302747303356
21.548068,11.036185118937436,0.059750111947584
21.552116,11.092882109305524,0.059257211022516
21.556096,11.146100957073502,0.0587675935998438
21.560148,11.19180989514158,0.0583001855666894
21.564195999999995,11.237629558109592,0.0578312198229559
21.568192,11.277955194927598,0.057374131601085
21.57222,11.312786805595604,0.0569284681635593
21.576256,11.349412850013628,0.056484643001131
21.580352,11.37763176785674,0.0560620627439236
21.584276,11.403048310174883,0.0556486753533961
21.58826,11.427346185818145,0.0552472530515477
21.5923,11.452762728136287,0.0548390594439538
21.596332,11.47638483670441,0.0544342487081991
21.600332,11.497204569747558,0.0540379696858352
21.60442,11.518024302790703,0.0536427343073531
21.608512,11.537503919359104,0.0532624975119789
21.612544,11.55687281102757,0.0528875872439735
21.616524,11.573217877371194,0.052526130965487
21.620604,11.587325610365053,0.0521810355440169
21.624644,11.593358391483804,0.0518400605555771
21.628727999999995,11.59334352195288,0.051522890265452
21.632816,11.587502451572144,0.0512220501608138
21.636904,11.5761673550414,0.0509250009335209
21.640932,11.563935041635649,0.0506266012543172
21.645016,11.545311485204875,0.0503326425566176
21.6491,11.52276688657425,0.0500488125678303
