Time,Force,Position
24.470892,7.355838763723161,0.1439924769013021
24.474988000000003,7.440402051629537,0.1432693506182952
24.479076,7.49934327905818,0.1427147672372384
24.48316,7.54522348225925,0.1421445709907166
24.487244,7.579417030734101,0.1416479605677955
24.491328000000003,7.603054008833148,0.141245134863829
24.495416,7.621307685682122,0.1409131516103088
24.499504,7.638996320355891,0.1405727064638849
24.503584,7.651412378679524,0.1402926654899679
24.507672,7.657990818477812,0.1400640613540717
24.51176,7.6603046237009105,0.1398770740989227
24.515856,7.657788752173614,0.139722910542849
24.519948,7.65604795494586,0.1395210300631491
24.524036,7.654517189842445,0.1392624028744541
24.528132,7.651512748013276,0.1389617309017334
24.53222,7.649172655583716,0.1386225061433714
24.536312,7.644362362328994,0.1383021338823061
24.540404,7.6403385610493455,0.1379767855916401
24.544496,7.633180209544923,0.137710136448311
24.548588,7.621203598965637,0.1375174868172954
24.552672,7.601717078686452,0.1374302540045106
24.55676,7.580879024256982,0.1373360716228021
24.560852,7.566420795176996,0.1371171772704637
24.56494,7.553081232771893,0.136873568317992
24.56898,7.538611586016375,0.1366099567288928
24.573068,7.5188693629107215,0.1364020937907291
24.577152,7.499237864705003,0.1361865547472978
24.581248,7.476803990974314,0.1360085241856007
24.585288,7.456053826093713,0.1358152742858111
24.589332,7.437208819863072,0.1355927614321663
24.593364,7.422395580732217,0.1352990951055726
24.597396000000003,7.412068425976421,0.1349509642918787
24.601372,7.399725387670732,0.1346369244544893
24.605352,7.387382349365042,0.1343220765733308
24.609436,7.375493628334626,0.1340230922690855
24.613476,7.355197780729297,0.1338388921723823
24.617564,7.339388017499028,0.1336009752468269
24.621648,7.322570312493811,0.1333794303340043
24.625732,7.30586333238853,0.1331501644029843
24.629764,7.290164294058195,0.1329026129707939
24.633816000000003,7.279959281877867,0.1325838375223238
24.6379,7.267406211447842,0.1323203968475305
24.641992,7.2513864160932355,0.1321364601162291
24.646088,7.230891954039103,0.1320497381909042
24.650132,7.215559343435173,0.1319126992302906
24.654064,7.206285801156454,0.1317158045738378
24.658168,7.202395560127809,0.1314565395380254
24.6622,7.20467511232431,0.1311317477782676
24.666236,7.2096463151458465,0.1307761024402952
24.670272,7.215969052117667,0.130427958402899
24.674368,7.222291789089487,0.1300817413887885
24.678464,7.226709367411349,0.1297641391498003
24.682556,7.232589204783429,0.1294465999176808
24.686652,7.236010259005878,0.1291897595496347
24.690748,7.240549979903207,0.128909186507415
24.694836,7.252267435800632,0.1285470655556223
24.698932,7.25826941574818,0.1282662702583725
24.70302,7.2641606707957935,0.1279911488616557
24.707124,7.274538010218468,0.1276662203974616
24.71122,7.284018132766128,0.1273505565186984
24.715316,7.289012170938731,0.127084883221864
24.719404,7.296243542461097,0.1267710742267093
24.7235,7.302688422008384,0.1264592400466072
24.727592,7.312378576680382,0.1260808506556371
24.731688,7.319044906027541,0.125755579043703
24.735784,7.323241034549534,0.1254472311381001
24.73988,7.31891931159668,0.1252557086863646
24.743968,7.310897996243844,0.1251106227084881
24.748068,7.29794769691621,0.1250422143147855
24.752164,7.282637921663344,0.1249823801626107
24.75626,7.266320204635532,0.1249381167709842
24.760352,7.250002487607721,0.124892959916593
24.764452,7.2339062203797795,0.1248334562270164
24.768544,7.221620270451753,0.1247213362891694
24.772640000000003,7.210120812498806,0.1246059751618431
24.776672,7.19761341277091,0.1245066031546744
24.780708,7.187908388567986,0.1243716744253453
24.78474,7.181902956765044,0.1241917217843664
24.788828,7.17567607516223,0.1240257868085439
24.79292,7.172705886359661,0.1238428679557514
24.796952,7.175229723707098,0.123597663249421
24.801032,7.179215820104752,0.1233552948783785
24.805108,7.185672117327574,0.123098697479492
24.809188,7.193812123400484,0.1228319291858996
24.813272,7.201054912598383,0.1225738349643755
24.817300000000003,7.209649235946563,0.1223246495273571
24.82134,7.228334394719745,0.1219631422786078
24.825368,7.24791677036794,0.1215928173807174
24.829448,7.277135664165861,0.1210948849761908
24.833472,7.3108406423388415,0.1205553132164606
24.837508,7.344324170711952,0.1200306150597693
24.841592,7.3755703657353,0.1195491419404335
24.845676,7.407381602933854,0.119080823212976
24.849772,7.437287681482449,0.1186396699192828
24.853856,7.466407268055968,0.1182031619748607
24.857948,7.49193798712944,0.1178004752058508
24.862036000000003,7.516460764427964,0.1174132111664436
24.866116,7.538070441301585,0.1170669833932264
24.870204,7.555304758700082,0.1167573740853307
24.874292,7.571187541948293,0.1164404705702769
24.878384,7.586173108321493,0.1161358740618295
24.882472,7.6005936325194865,0.1158225589098107
24.886564,7.616575722992099,0.1154649695020477
24.890652000000003,7.6300876126395485,0.1151205512318421
24.894744000000003,7.645947560536694,0.1147287338648353
24.898832,7.661796090758306,0.1142954681818469
24.902924,7.670799060679627,0.1139100061461969
24.907020000000003,7.680920697275831,0.1135054328823997
24.911116,7.679832831772154,0.1132195872552128
24.915212,7.677958474293399,0.1129368756330373
24.919312,7.675408349739502,0.1126489694888032
24.923408,7.675317008335238,0.1123077839244046
24.927504,7.672079699030669,0.1119710515550253
24.931600000000003,7.671190447975795,0.1115890165701575
24.935696,7.667388096496017,0.111240819270626
24.939796,7.66750678721609,0.1108432747263813
24.943888,7.670870753060874,0.1103931257700538
24.94798,7.677369269130431,0.1098971281982027
24.952016,7.689583261149864,0.109339617483467
24.956000000000003,7.703591686919323,0.1087706751960852
24.960088,7.712892578513849,0.1082499732484129
24.96418,7.720177586558485,0.1077567727043793
24.968272,7.725114536353421,0.1073105841613376
24.97236,7.732521686973524,0.1068569906379649
24.976460000000003,7.738810170918745,0.1064240816445437
24.980556,7.746228739214381,0.1060161397466708
24.984648,7.753093683010343,0.1056372039395221
24.988744,7.758729235231489,0.1052843334106546
24.99284,7.773558406002623,0.1048512211206913
24.996936,7.784577259473839,0.1044581928390976
25.001032,7.7975012715950145,0.1040467759215192
25.005128,7.812895484541356,0.1036308292988182
25.009224000000003,7.832775781862756,0.1031831882728867
25.013316000000003,7.849410804059445,0.1027871545363307
25.017412,7.870974810230933,0.1023355309408302
25.021508,7.892538816402421,0.1018871083068762
25.0256,7.911976214124082,0.101472402533705
25.029696,7.930294945170861,0.1010791442212222
25.033784,7.9430089251677,0.10073549649778
25.03788,7.948102270564703,0.1004626673109099
25.041972,7.956219441286548,0.1001531602637973
25.046068,7.962874352958173,0.0998369524695846
25.050156,7.9689642224545905,0.0995089501173162
25.054252,7.972805340925713,0.0991762105219484
25.058348,7.975859967421758,0.0988435728579744
25.06244,7.97565790111756,0.0985170076501015
25.066532,7.9776931681631265,0.0981543756960011
25.070572,7.979274117933419,0.0977738119599923
25.074608,7.978384866878546,0.0974013573187858
25.078692,7.980408716248578,0.0969999412121799
25.082784,7.981424623843665,0.0966109744293193
25.086868000000003,7.977843722163757,0.096256450123531
25.0909,7.974262820483849,0.0959036016099776
25.094988,7.969108934853787,0.0955486508975172
25.099016,7.961939165673831,0.0952169074975581
25.103044,7.954658671593941,0.0948915442050038
25.10712,7.947488902413985,0.0945603646993356
25.1112,7.938413974584068,0.0942453744404141
25.115284000000003,7.934833072904159,0.0938933948838387
25.119324,7.9407779644740435,0.093460261901879
25.123364,7.94873873959382,0.0930075610107362
25.127392,7.960964149288787,0.0925414448544797
25.13148,7.975991934508725,0.0920566337382289
25.135508,7.98945815345404,0.0916101999888209
25.139596,8.003710864374435,0.0911650574954799
25.14368,8.01886079216984,0.0907145524099357
25.147768,8.034010719965245,0.0902654033096248
25.151864000000003,8.050733631710802,0.0898193869681784
25.155952,8.064543443031457,0.0893998397142144
25.160056,8.076558820602084,0.0889909182542435
25.164084000000003,8.090479356822671,0.0885691267559981
25.16814,8.107312993468165,0.0881226345728591
25.172192000000003,8.120447037713676,0.0877012199283732
25.17628,8.140193774784073,0.0872334805102976
25.180316,8.161059178529355,0.0867523466528559
25.184404,8.179232931649599,0.0862849949081249
25.188492,8.197406684769843,0.0858191501579677
25.192584,8.217817771239853,0.0853239608301333
25.196668000000003,8.23352132353493,0.0848629223294909
25.200756,8.243730849680004,0.0844349600313161
25.204796,8.250805825600303,0.0840427740506408
25.208892,8.25619709267051,0.0836547493207256
25.212984,8.258896709115684,0.0832798497182768
25.217080000000003,8.26405510871049,0.0828639151517603
25.221176,8.270221450080243,0.0824397784070681
25.225212,8.276387791449995,0.0820154428266832
25.2293,8.284459291469705,0.08158002990349
25.233392,8.290847082639331,0.0811473986901913
25.237484,8.301155916008804,0.0806848489126045
25.241576,8.310456807603332,0.0802306069929449
25.245656,8.31605810679788,0.0797969614011617
25.249744,8.32199158069223,0.0793492249516088
25.253836,8.327027837711572,0.0789030273297337
25.257924000000003,8.327467285455917,0.0784817329532766
25.262012,8.325104357675292,0.0780759203078445
25.266104,8.325986705019377,0.0776335287098493
25.270196,8.327987719038344,0.0771783938136898
25.274292000000003,8.327297082432276,0.0767331126201413
25.278388,8.329962445850851,0.0762467809661925
25.282484,8.337556793244227,0.0757256880833133
25.286576,8.343799606487316,0.0751880281812157
25.290676,8.351382536205158,0.0746282818527025
25.294772,8.358744016123131,0.0740787996031116
25.298852,8.36520827916609,0.0735329611140191
25.302888000000003,8.367297182733925,0.0729949937480642
25.306976,8.37431507027656,0.0724253617614427
25.311064,8.379981423668912,0.0718430625870889
25.315148,8.386987893536013,0.071238161178535
25.319172,8.393207871428038,0.0706341297964826
25.3232,8.404467558194797,0.0699944237780575
25.32728,8.41886179518633,0.0693279815523401
25.331364,8.430342931752959,0.0686799573902407
25.335448,8.44686377719432,0.0679962387415723
25.339532,8.464281839510694,0.067311462018671
25.343568,8.486628885801863,0.06659887839187
25.347596000000003,8.51054891604319,0.0658986790989288
25.351676,8.531334396059743,0.0652256354729421
25.355704000000003,8.553692860026446,0.0645593929501226
25.359784,8.573924715543322,0.0639147458741279
25.363824,8.590124803960412,0.0633010120369972
25.367852,8.610921701652495,0.0626753163025569
25.371944,8.630267757969893,0.0620789691014891
25.375988,8.651851147637053,0.0614615049390245
25.380024,8.673213087504346,0.0608546021891936
25.384056,8.702084937071536,0.0602235847806467
25.3881,8.725019860888981,0.0596297521436541
25.392196,8.74437733488191,0.0590794145276875
25.396288,8.763291909275102,0.0585508044568746
25.400376,8.779182658343451,0.0580419269720225
25.404472,8.790255148336941,0.0575560352579511
25.408564,8.798414537905522,0.0570841324158811
25.412656,8.808257636324193,0.0566149063734557
25.416752,8.819784443592953,0.0561531752995284
25.42084,8.829406092211752,0.0556982383082975
25.424928,8.833988031955823,0.0552732610570316
