Time,Force,Position
24.386232,6.540546059259675,0.1391667384965079
24.390276,6.534407067205732,0.1388892734563475
24.394328,6.525133524927013,0.1386811367521225
24.398304,6.52214050077338,0.1383858125119031
24.402344,6.5160129263949695,0.1381580243539433
24.40642,6.506086452392175,0.138044991639728
24.41046,6.496725020564589,0.1379424992455882
24.414492,6.489379472286895,0.137799244705592
24.418528,6.487417225259272,0.137581164736768
24.422556,6.483660544481626,0.1373882859759938
24.426592,6.482484789429081,0.1371655267870609
24.430628,6.480190367701653,0.1369700896428745
24.434656,6.474650670849516,0.1368509752071353
24.438684,6.47449427524745,0.1366580145558278
24.442768,6.4766973555706135,0.1364522735571633
24.446796,6.4815920865188135,0.1362107974928383
24.450824,6.486486817467013,0.1359695189274473
24.45486,6.506401367815011,0.1354881407412971
24.458892,6.526991685238151,0.1350118532300479
24.462976,6.539739918261587,0.134679258551908
24.467068,6.550140093035326,0.1344101157928477
24.471152,6.565137077084059,0.1340779610763297
24.475188,6.582039219782751,0.1337149480367808
24.47928,6.593901653606709,0.1334521003137056
24.483368,6.611258113580672,0.1331133118132523
24.487456,6.6333221077295645,0.1327002948862863
24.491484,6.6571805356284806,0.1322668197543547
24.495572,6.681714730602539,0.1318413531624691
24.499664,6.708043359326621,0.1314001007045919
24.503748,6.732356104500809,0.1309948265194982
24.507788,6.758352558525086,0.1305776865393094
24.511824,6.791748197349327,0.1300635116331242
24.515904,6.82928632817329,0.1294727429859485
24.519992,6.866037967022177,0.12889463271829
24.52408,6.902224563695857,0.128311658299005
24.528164,6.93549805994463,0.1277768752144696
24.532252,6.9707874397432965,0.1272110063434813
24.53634,6.996096709016899,0.1267728007106208
24.54042,7.021627428090372,0.1263229010403541
24.544496,7.054889506663612,0.1257578708291278
24.54858,7.089270251911735,0.125168170085138
24.55266,7.1164732621597615,0.1246627036014235
24.55674,7.144008447107594,0.1241399283940545
24.56082,7.171089314780155,0.1235985327672315
24.5649,7.195589256727613,0.1230843471680205
24.568984,7.21873766452479,0.1225648553632248
24.573064,7.242328971921705,0.1220233818461535
24.5771,7.265244512243477,0.1214817445978906
24.581128,7.282998201115049,0.1209853321689789
24.585212,7.30568087396142,0.1204172760382591
24.589284,7.324885404207678,0.1198801273695505
24.593364,7.334785591004012,0.1194570646366809
24.597444,7.340654010700559,0.1190989963797098
24.601444,7.342601388197255,0.118797408549085
24.60554,7.344327315894081,0.1185104280364502
24.609636,7.345377476515766,0.1182178732090106
24.61372,7.346316912237516,0.1179337678152331
24.617748,7.35275037410927,0.1175908122144601
24.621832,7.359405285780895,0.1172361982003341
24.625924,7.359336779727696,0.1169691446645577
24.630012,7.358371056799486,0.1167104825503965
24.634048,7.360994201371325,0.1164170778784216
24.638024,7.361490737493334,0.1161609608248949
24.642064,7.362884490490354,0.1158963027949849
24.64616,7.364278243487376,0.1156319593016369
24.650252,7.3664584884594735,0.1153665792628317
24.654348,7.368528008531636,0.1151096568941486
24.658384,7.368913819753711,0.1148628233439273
24.662468,7.371094064725808,0.1145994315490206
24.666556,7.370250484373066,0.1143808361465279
24.670648,7.37232000444523,0.1141252665582289
24.674736,7.379318508492193,0.1138029357511154
24.67872,7.384744028589001,0.1134819424008018
24.682808,7.392296157135639,0.1131245299011445
24.686836,7.397943127032319,0.1127900993680518
24.690864,7.408297631103925,0.1124038687396889
24.69494,7.415960484550495,0.112042526982208
24.69902,7.418915803822137,0.1117344118585162
24.703052,7.418736572869005,0.1114756591447534
24.70708,7.423375600990736,0.1111581153749292
24.711108,7.428911845987479,0.1108326909349307
24.715188,7.432542932334265,0.1105296058104373
24.719224,7.439087119105954,0.1101911061861453
24.72326,7.445409856077775,0.1098659953832522
24.727292,7.451400418349792,0.1095606150219875
24.731324,7.455375097071915,0.109283793077438
24.735356,7.45531800869425,0.1090634201762306
24.73944,7.456612454466871,0.1088538867499742
24.743476,7.457685450439621,0.1086574054653847
24.747568,7.458082679337229,0.1084554353517188
24.751656,7.458369183334902,0.1082606036712665
24.755744,7.459442179307652,0.108065792023969
24.759832,7.466230651230278,0.107808847584714
24.763924,7.473916340027915,0.1075456906821568
24.76802,7.482720695500433,0.1072627392471615
24.772112,7.490738558997877,0.1069836024614072
24.776208,7.499764364270265,0.1066913637668841
24.7803,7.510806053092548,0.1063722452303527
24.784396,7.52318785838958,0.1060200218653979
24.788496,7.533885954836526,0.1056774244447062
24.792588,7.54738642680844,0.1053104027047391
24.796688,7.563013507230184,0.1049119794931316
24.80078,7.576956878801838,0.1045231872697421
24.804876,7.591121700173362,0.1041226705392669
24.808972,7.608531796669596,0.1036742995087029
24.813068,7.627060559840712,0.1032071961362334
24.817168,7.645589323011827,0.1027372539604963
24.82126,7.66254510223279,0.1022685093666889
24.825356,7.678825114378609,0.1017940493924039
24.829452,7.694883676724559,0.1013314177780848
24.833548,7.711839455945522,0.1008655478119752
24.83764,7.727898018291471,0.1004093268994863
24.841736,7.740146263337505,0.0999932760510449
24.845832,7.752505233283473,0.0995734037912981
24.849924,7.763966986354427,0.0991600372001669
24.854016,7.771618422125465,0.0987843069210798
24.858112,7.78218295832141,0.0983809906492979
24.862144,7.793866161192236,0.0979614231815769
24.866236,7.807343797813086,0.0975313672103427
24.870328,7.821829376208883,0.09709165208103
24.874416,7.832050320029489,0.0966704600022679
24.878504,7.840587555000007,0.096255794486836
24.882596,7.850132731745472,0.095831329026989
24.886684,7.857883474740912,0.0954175704849436
24.890772,7.860140191586347,0.0950433836131061
24.894864,7.859926707606617,0.0946728443542893
24.898944,7.864187890326413,0.0942341731618093
24.903032,7.870686406395971,0.0937621429717323
24.907124,7.87852503894028,0.0932619619997097
24.911208,7.888933179534155,0.0927115963842314
24.915296,7.896084627327791,0.0921655290072015
24.919388,7.901663091171272,0.0916189325088038
24.923424,7.910265380339593,0.0910417243732441
24.927508,7.916286743782813,0.0904740510894701
24.931592,7.921632340150889,0.0898985944699036
24.93562,7.928883095168925,0.0893070721260581
24.939704,7.929853332061876,0.0887497586365331
24.94378,7.92913986010474,0.0881970173855295
24.947864,7.92853711304754,0.0876404157551067
24.951904,7.927037149115327,0.0870897103593611
24.95594,7.925537185183114,0.0865372042789918
24.96002,7.923029279475955,0.0859936616713283
24.964048,7.918948389818641,0.0854481256516334
24.968132,7.917104833511091,0.0848702859767305
24.972212,7.918174377628446,0.0842668256153519
24.976248,7.924737947895807,0.0836333065854991
24.980276,7.925475317313357,0.083047719995088
24.984316,7.922513094330926,0.0824838339928014
24.988352,7.916416321123719,0.0819536246206407
24.992436,7.909090156341698,0.0814453729838693
24.996524,7.902550483534752,0.0809374959370046
25.000556,7.897915969377766,0.0804165844577164
25.004644,7.891265571670886,0.0799159428789894
25.008728,7.886409607714029,0.0794071023594654
25.012768,7.886261177932101,0.078870076314442
25.016864,7.887342139724991,0.0783141857287366
25.020896,7.891901244117992,0.0777481881145494
25.024984,7.895120232036243,0.0772069986083014
25.02902,7.89654478620447,0.0766735635042944
25.033056,7.895166964847726,0.0761546899406126
25.037092,7.893567693691112,0.0756452133135971
25.04118,7.896786681609362,0.0751040038316575
25.045268,7.895531002828087,0.074617554605882
25.049348,7.894951091121953,0.0741404118860688
25.053372,7.894039004716015,0.0736805837280755
25.057404,7.8883086592352125,0.073253567652369
25.061488,7.888858831879492,0.0728054456374264
25.065576,7.893895088898832,0.0723428901305379
25.069612,7.902741663218089,0.0718574147669736
25.07364,7.914279888162383,0.0713665659038696
25.077668,7.92739109705683,0.070882407193163
25.081752,7.93647053885149,0.0704311901304239
25.085828,7.9446527637711375,0.069983098298239
25.089912,7.953621480665862,0.0695394909810343
25.093996,7.96136080598577,0.0691186331314294
25.098024,7.965965581080904,0.0687273591955568
25.102116,7.972254065026125,0.0683382244140177
25.1062,7.977756056996271,0.0679442473335163
25.110288,7.987965583141344,0.0675305552097274
25.114376,8.000645310111583,0.0671201446553217
25.118468,8.018929788131764,0.0666878565723509
25.12256,8.03497693280218,0.0662850693580289
25.126652,8.059984828547183,0.065821190022297
25.130744,8.083874057617304,0.0653723942514769
25.134832,8.104960911162456,0.0649344424391636
25.13892,8.129968806907456,0.0644744195476249
25.143016,8.149482676502453,0.0640328914885637
25.147104,8.166980662547557,0.0636082216818352
25.151196,8.186383807242619,0.063178623392508
25.155292,8.201079417762752,0.0627701036768766
25.159384,8.214988536307807,0.0623595801071483
25.16348,8.230913538402758,0.0619342382319591
25.167572,8.247625032472783,0.061513096547864
25.171672,8.262431367892852,0.0611014769319025
25.175764,8.275553994462829,0.0606900216630296
25.179856,8.289463113007885,0.0602815214534029
25.183948,8.299894088952831,0.0598746921967516
25.188044,8.315032599072703,0.0594509137005346
25.192128,8.321431807917858,0.0590712475326233
25.196212,8.330179075012715,0.0586649025396056
25.2003,8.333432315957564,0.0582730833462649
25.204392,8.33511257295226,0.0578740342441891
25.208476,8.332871787747104,0.0574971371608697
25.212564,8.33074172744188,0.0571154343298456
25.216652,8.333429926211522,0.0567131508585193
25.22074,8.333094299656324,0.0563300535493087
25.224824,8.3335451650762,0.0559492130735812
25.228908,8.331304379871046,0.0555703209866048
25.232992,8.325031827566102,0.0552163370906638
25.23708,8.317862058386147,0.0548614000034271
25.241168,8.30766846388135,0.0545231365129153
25.245256,8.298261361351633,0.054188653301009
