Time,Force,Position
26.710116,8.003748476999588,0.1513198199633326
26.714208,8.046551218353548,0.151012735096262
26.718256,8.087082373331148,0.1506344405300371
26.722304,8.120978000132794,0.1502831385872564
26.72628,8.149578215233237,0.1499174324073201
26.730372,8.169637743507769,0.1496054831152732
26.734452,8.183848235581426,0.1493097098665156
26.738492,8.19333977580462,0.1490446802768275
26.742528,8.196096480627459,0.148843724937764
26.746572,8.201877010775137,0.1485909511576628
26.750564,8.214380958647636,0.1482345862592555
26.754616,8.223185314120157,0.1479309414426592
26.758708,8.231092452717665,0.1476404210674801
26.762804,8.238999591315169,0.1473504990414454
26.766888,8.245555195762392,0.1470575465405774
26.770916,8.253340191784432,0.146733797744951
26.774972,8.254058177706312,0.1464911947472117
26.77902,8.256792047178086,0.1462138621244085
26.783104,8.26042313352487,0.1459263478277283
26.787192,8.267410219896302,0.1455696117520764
26.791284,8.269346179717465,0.145256780201554
26.795316,8.270384922663617,0.1449545794769629
26.799347999999995,8.270637173634691,0.144658097298461
26.803332,8.269427165555546,0.1443641834243764
26.80742,8.267098490801521,0.1440932723466648
26.811516,8.266453524897582,0.1438076625690099
26.815608,8.270294643368704,0.1434712244467254
26.819692,8.274025036939891,0.1431404253077217
26.823728,8.285376065110913,0.1427018099817623
26.827812,8.290900892432123,0.142350696129435
26.83184,8.292172502853678,0.1420792716507948
26.83592,8.295017097225385,0.1417999118814446
26.84,8.29192476584735,0.1416124782744641
26.844024,8.289729651344324,0.1414149669834175
26.848104,8.287202362141493,0.1412358015059266
26.852188,8.284453623138795,0.1410687822421376
26.856272,8.285404476536076,0.1408542134734157
26.860312,8.29005492233334,0.1405940803734472
26.86434,8.295713309905551,0.1403191113347459
26.868424,8.299920856103077,0.1400861916088832
26.872468,8.31522717950055,0.1397180036027044
26.8765,8.335019587273079,0.1393034088929909
26.880552,8.354590545245742,0.1389034343841068
26.884536,8.374615820493673,0.1385181446057676
26.888628,8.395316862816749,0.1381350618002648
26.892724,8.417701613989912,0.1377420382439684
26.89682,8.433141497638386,0.1374527988653085
26.900904,8.452502423486711,0.1371095329287281
26.904988,8.468839524010194,0.1368157552382957
26.90908,8.490216333408412,0.1364457099174919
26.913168,8.515624909906416,0.1360165404849461
26.91726,8.542041428179365,0.1355751300623724
26.921292,8.579667448552199,0.1350023395194184
26.925332,8.615056135575268,0.1344720738627816
26.929372,8.654033690098386,0.1339085704982797
26.933468,8.697718778796432,0.1332926353357541
26.937563999999995,8.741071692794673,0.1326974832202349
26.94166,8.778709130843037,0.1321762811722393
26.945756,8.814219960441573,0.1316928498897808
26.949852,8.848944298065032,0.1312135720641845
26.953948,8.873024175763819,0.1308735505180859
26.958044,8.892617969087546,0.13057905948365
26.962124,8.911093095736392,0.1303053613711952
26.966212,8.930797613960053,0.1300069673401225
26.9703,8.953525957508553,0.1296681500745502
26.974336,8.972886883356878,0.1293534670831016
26.978372,8.997287518079935,0.1289681148081908
26.982451999999995,9.019340094553296,0.1286306185137256
26.986488,9.042511337701535,0.1282760186562265
26.990576,9.06635834792492,0.1279283589775751
26.994656,9.088300199498343,0.1276054512677585
26.998736,9.108447617321746,0.1273001900612318
27.002812,9.12029863347017,0.127079568440238
27.006896,9.13528419984337,0.1268141471480645
27.01092,9.148253882666676,0.1265768826135755
27.015004,9.158421189965011,0.1263701570316304
27.019088,9.169707163938233,0.1261461198553102
27.02318,9.188835222311154,0.1258318505253245
27.027268,9.208184730483945,0.1255071927869771
27.031352,9.228763630231551,0.1251603172559533
27.035436,9.256508847303722,0.124718822779161
27.039524,9.28313539770101,0.1242939818695094
27.043603999999995,9.314015164997954,0.1238113727075431
27.047688,9.343886990519952,0.1233432915101287
27.051716,9.366359631241984,0.1229441259356798
27.055796,9.391745372388923,0.1225144907661104
27.059776,9.414218013110956,0.1221185340508286
27.063868,9.437355003232598,0.1216927737212378
27.067892,9.456792400954258,0.1213018028014176
27.071976,9.47006000545077,0.1209557715951752
27.076063999999995,9.481976075797002,0.1206038410667918
27.080155999999995,9.491200495518196,0.1202723593841734
27.084244,9.503891640163966,0.1198833517912624
27.088339999999995,9.515231250659452,0.1194894768832643
27.092376,9.525440776804526,0.1190788068209765
27.096464,9.535306710574265,0.118650394088564
27.100548,9.540232242693673,0.1182421522144879
27.104631999999995,9.53495621448814,0.1179251741570375
27.10872,9.527320710357378,0.1176121986187116
27.112804,9.51912016405141,0.1172905741053816
27.11684,9.506322808470449,0.1170073945811546
27.120923999999995,9.498897336464024,0.1166501245254148
27.125008,9.484072679657634,0.1163552026138925
27.128992,9.466888546926016,0.1160635192321046
27.13304,9.45384690619412,0.1157184770238547
27.137092,9.436319181087164,0.1154053602168949
27.14114,9.424163339554744,0.1150191406968154
27.145224,9.407632138547203,0.1146585800153117
27.149256,9.392441054014412,0.1142700123591758
27.153352,9.381060286781535,0.1138442882623499
27.157348,9.369568794648728,0.1134229219854591
27.16144,9.363117011390653,0.112943905910972
27.165479999999995,9.351625519257844,0.112520969013298
27.169508,9.335094318250302,0.1121534814279989
27.1736,9.317555175467811,0.1117961581278326
27.177692,9.29777869933556,0.111470947181101
27.181768,9.28036169912854,0.1111410810407262
27.185863999999995,9.2666442913215,0.1107793508628043
27.189908,9.256626475914445,0.1103866462654997
27.193992,9.240561009857704,0.1100608564616511
27.198072,9.228084411301015,0.1097098058165157
27.202152,9.212694712319418,0.1093877180664449
27.206208,9.204704198137788,0.1090067067906249
27.21026,9.204223593656058,0.108563545662749
27.214355999999995,9.207110406874504,0.1081086101912607
27.218336,9.212356696018182,0.1076506777925923
27.222384,9.21155533451218,0.1072598391642838
27.22638,9.214907882681429,0.1068549548322873
27.230476,9.21893619792582,0.1064548546757025
27.234504,9.222743063370345,0.1060655090514271
27.238536,9.228122912765024,0.1056756792677497
27.242628,9.229581719959848,0.1053240567429435
27.246656,9.23743177017969,0.1049287895657617
27.250744,9.25469688874939,0.1044592280436347
27.25478,9.27342426636931,0.1039938885622051
27.258824,9.293835352839316,0.1035223764817029
27.262851999999995,9.318167481509178,0.1030167639383613
27.266896,9.343286102154115,0.1025115489190868
27.270868,9.369080489874197,0.1020149157293401
27.274912,9.402384787294176,0.101459211714485
27.278956,9.43087082563929,0.1009460222139332
27.282931999999995,9.457119530634644,0.1004638992014918
27.286968,9.474850384155149,0.100049744613926
27.291004,9.485525645251029,0.0997092065488832
27.295088,9.494517197496815,0.0993761403103588
27.299076,9.502611532867595,0.0990480679334266
27.303168,9.511824534913258,0.0987046252622245
27.30726,9.519353828108828,0.0983667588274013
27.311347999999995,9.528788279954355,0.0980155856141899
27.315444,9.538333456699824,0.0976601049428543
27.319536,9.548210808145091,0.0972914546527389
27.323628,9.559993318240318,0.0969084025368312
27.32772,9.57009211948546,0.0965324543941748
27.331816,9.57357822790571,0.0962054136014469
27.335912,9.577396511025766,0.0958641985858494
27.340012,9.581768418645495,0.0954992909315911
27.344108,9.583227225840318,0.0951590874624058
27.34814,9.586923366384903,0.0947920417828443
27.352228,9.58792785630446,0.0944388393923008
27.35632,9.59105895467384,0.0940654234719413
27.360352,9.60001625389303,0.093648351254663
27.364439999999995,9.60829778603708,0.0932244099312551
27.368531999999995,9.62330273590595,0.0927514820201635
27.37262,9.639647802249572,0.0922545426398934
27.376708,9.654309159743104,0.0917626424483656
27.380796,9.669634866636247,0.0912424608449084
27.384884,9.685747065504469,0.0907236224608905
27.388971999999995,9.703764423022644,0.0901932262501317
27.39306,9.719090129915786,0.0896768047004571
27.397148,9.733850794633724,0.0891510872541263
27.401176,9.745698358926752,0.0886472162699523
27.40522,9.755308589870022,0.0881695953466364
27.40922,9.7632351119632,0.087696008946981
27.413308,9.77138308385625,0.0872118604291604
27.417344,9.779641780649232,0.0867240560573437
27.42132,9.788686969417292,0.0862389762360663
27.425356,9.799072274660103,0.08573328712533
27.42944,9.805536537703064,0.0852569910628793
27.433468,9.81211152564596,0.0847758841359705
27.437556,9.81106587898902,0.0843420650273623
27.441644,9.805534147957022,0.0839262519373269
27.445732,9.80762305152486,0.0834662121675526
27.449824,9.805790912892842,0.0830337421964342
27.45392,9.803061557385815,0.0826037858359566
27.458016,9.801118693853864,0.0821751905112989
27.462056,9.801535306247144,0.0817516838465394
27.466144,9.801165426665346,0.0813268086018919
27.47018,9.796985229783632,0.0809231062099967
27.474212,9.791686366227038,0.080530776378322
27.478252,9.78695254484565,0.0801489668219812
27.482284,9.785918315864244,0.0797507637600046
27.48632,9.79126391223232,0.0792951979381536
27.490407999999995,9.797285275675542,0.0788461054773402
27.49444,9.8059982897438,0.0783887378984989
27.498487999999995,9.8153870708872,0.0779389159692124
27.502524,9.819736143155865,0.0775250748032156
27.506568,9.818824056749929,0.0771562099725688
27.510616,9.817911970343989,0.0767863046617086
27.514703999999995,9.816999883938047,0.0764161028160042
27.518795999999995,9.825613590781902,0.0759976930943178
27.52288,9.836808223350856,0.0755764239160611
27.526972,9.838255612870151,0.0752134273255534
27.531056,9.841829610839271,0.0748315917291494
27.535143999999995,9.84708731765848,0.0744490025529488
27.539172,9.851337082702743,0.0740736389346947
27.543251999999995,9.851776530447088,0.0737175672369361
27.547332,9.855018353716408,0.0733505964452216
27.551412,9.866102261385429,0.0729395052995656
27.555488,9.882115153029243,0.072500497260734
27.559572,9.900143928222956,0.0720502069090438
27.563604,9.911670735491716,0.0716241225335104
27.56764,9.916031225435914,0.0712500731205726
27.57172,9.919605223405034,0.0708739714749834
27.575807999999995,9.922282004499142,0.0705008860911194
27.579892,9.921369918093202,0.0701358104238759
27.58398,9.926505482336944,0.0697318343259372
27.58802,9.937577972330429,0.0692935147914176
27.592116,9.95436593827379,0.0688321407951741
27.596208,9.973845554842187,0.0683666510966551
27.600296,9.983688653260856,0.0679482823204942
27.604344,9.993310301879657,0.0675400414328845
27.608436,10.010774034898157,0.0670912700814653
27.612528,10.0289135349918,0.0666510089924448
27.616624,10.050974077285298,0.0661940825624484
27.62066,10.074042561353744,0.0657320350726793
27.624748,10.10103208762204,0.0652518728447656
27.62884,10.124211296590415,0.0647883756995348
