Time,Force,Position
25.642184,10.870839700113631,0.1459935472267013
25.646216,10.954837945844798,0.145501751169255
25.650296,11.028588960548898,0.144998458157121
25.65438,11.090420453051378,0.1445318955538316
25.658468,11.141118915327311,0.144092589518238
25.66256,11.180352172676896,0.1436948023161953
25.666608,11.213060626750464,0.1433037245185328
25.670588,11.2405958116983,0.1429241676759274
25.674672,11.265206478545691,0.1425509876752542
25.67876,11.289584277917683,0.1421609849482256
25.682792,11.30980816761442,0.1417965783229501
25.686876,11.324870205860956,0.1414685005145713
25.690912,11.342391027257127,0.1410975560968953
25.694944,11.362370631802929,0.1406846349141432
25.69898,11.377520559598336,0.140294720543947
25.703076,11.389745969293305,0.1399086491138509
25.707164,11.394117876913032,0.1395809183612111
25.711208,11.387723182032625,0.1393426155425858
25.715204,11.382668603626962,0.1390785893483743
25.71918,11.375033099496202,0.1388319377566831
25.723264,11.360219860365348,0.1386437742036979
25.727348,11.35055705500916,0.1383917896336276
25.731432,11.33999703277796,0.1381465413561053
25.73552,11.32595886794665,0.1379253982884634
25.739608,11.311023486240328,0.1377110533402616
25.743696,11.298669030259108,0.1374793202116107
25.74778,11.289006224902916,0.1372257224805608
25.751808,11.279454144446666,0.1369674803991625
25.755804,11.269004847115404,0.1367163952759216
25.7599,11.255753174259167,0.1364909219963667
25.763948,11.242280051603064,0.1362738279652271
25.768,11.233182288422086,0.1360253709577304
25.772036,11.222965858566225,0.1357926949481793
25.776128,11.208606936710645,0.1356102833527393
25.78016,11.196718215680225,0.1354152860601869
25.784252,11.187188970575038,0.1352127149184399
25.788304,11.181580767669704,0.1349681550979803
25.792308,11.180569374039363,0.1346831936473612
25.796364,11.18124168925911,0.1343894889006527
25.800396,11.184384205304026,0.1340839273071876
25.804496,11.19369651457409,0.1337344297465328
25.808584,11.198534157144625,0.1334495924155007
25.812668,11.209652317840243,0.1331182721316954
25.816652,11.224027171336104,0.1327728764941751
25.820748,11.243785326082037,0.1323881615899608
25.82484,11.260408930603193,0.1320423699737277
25.828864,11.274119434699443,0.131725701256704
25.832948,11.290189414720928,0.1314039319996706
25.837044,11.30682443691762,0.1310896343311391
25.84104,11.3277240936895,0.1307530800898699
25.845132,11.351093951286543,0.130405708475109
25.849184,11.376934009708751,0.1300503893299513
25.853288,11.40502281915626,0.1296941330759727
25.85734,11.44051081340373,0.1292790454042769
25.861364,11.476453124926476,0.1288762177573194
25.865448,11.508695844049235,0.1285042114001872
25.869492,11.5411714306474,0.1281530460925649
25.873572,11.572417625670749,0.1278213207866446
25.877656,11.604118137969367,0.1275033531531852
25.88174,11.636715867142998,0.1271809784256333
25.885816,11.670210813191645,0.1268562938333951
25.889908,11.705610917890246,0.1265151576555901
25.89396,11.73720070528893,0.1262104936765166
25.898048,11.769909159362497,0.1258930724513417
25.902028,11.7977993543612,0.1256199701168127
25.90608,11.82972131645969,0.1253073631393424
25.910168,11.87027185493296,0.1249236962726022
25.914252,11.906225584131237,0.1245746426391012
25.918344,11.939598387604413,0.1242390609166931
25.922436,11.970168815552618,0.1239278885701241
25.926524,11.99984202662581,0.1236231604568716
25.930616,12.02603709509889,0.1233393779315003
25.934652,12.049872687646738,0.1230610312743484
25.938752,12.067317037169571,0.1228279760437139
25.942844,12.088903878692127,0.1225540000751069
25.946932,12.112063704164836,0.1222765851679126
25.950984,12.134990662162142,0.1219809453199338
25.95508,12.162170837059106,0.1216398929939921
25.95918,12.186315768955694,0.1213019421590815
25.963272,12.20799050002712,0.1209733669435438
25.967368,12.22428192984847,0.1206787795773357
25.971408,12.24123770906943,0.1203612068540639
25.9755,12.255723287465228,0.1200519402221498
25.979588,12.264825564610952,0.1197748502669579
25.983672,12.274592191156286,0.1194733740538661
25.987704,12.281888616876454,0.1191812046663501
25.991744,12.277975540496744,0.1189692461807654
25.995836,12.278315681016686,0.1187123483738657
25.999932,12.281790371761408,0.11842377794844
26.004028,12.281897644805948,0.1181478635188052
26.008116,12.283677209025043,0.1178392542343517
26.012144,12.28578894794395,0.1175189922260433
26.016176,12.290138020212613,0.1171729350911928
26.02026,12.295827208956029,0.116805379260603
26.024344,12.293330720924402,0.1164882471523961
26.02842,12.290822815217243,0.1161443535900426
26.032504,12.286631200659995,0.1158063277285309
26.036548,12.277167009752612,0.1154944950499117
26.040576,12.269042935319982,0.1151616799208034
26.04462,12.260575268512014,0.1148134423725291
26.048712,12.251874734228643,0.1144453011938729
26.05274,12.237790898695202,0.1141057116528984
26.056736,12.224039237861565,0.1137532725205893
26.060824,12.214430069027648,0.1133604471752861
26.064884,12.20672605884369,0.1129540245463829
26.06892,12.196330398034698,0.1125614113120404
26.072952,12.188282795475402,0.1121371739941799
26.07694,12.175638383641116,0.111740865930843
26.081044,12.161531712756604,0.1113420879483333
26.085148,12.149662375221858,0.1109168273318357
26.08924,12.139698196337072,0.1104793570702861
26.093332,12.127828858802326,0.110054633533703
26.097316,12.11595952126758,0.1096304481494438
26.101352,12.10610606728273,0.10918934956454
26.105328,12.098157771947836,0.1087335644085072
26.109412,12.091671735663164,0.1082807552312355
26.113408,12.087766625103589,0.1078183532447155
26.117456,12.089134090894152,0.1073336343302897
26.121504,12.088939990410092,0.1068769871361623
26.125476,12.089875974276447,0.1064348421626077
26.129556,12.09452296821832,0.1059984109633967
26.133604,12.107023464235429,0.1055312133383257
26.137588,12.120986219302754,0.1050672363643099
26.141624,12.135514016545288,0.1046121742145387
26.145656,12.15004181378782,0.1041590974419488
26.149592,12.166142594980512,0.1037047358622323
26.15368,12.186508010748383,0.103238046738802
26.15772,12.211248785991389,0.102755331668843
26.161756,12.23723037048474,0.1022853004854534
26.165788,12.26165038870347,0.1018424530504131
26.169872,12.281817190022542,0.1014409720567815
26.173952,12.301762541541745,0.1010465482168803
26.17798,12.317676125961164,0.1006837899077669
26.182012,12.330344435255869,0.1003527472052415
26.186052,12.345593670275676,0.100014061581752
26.19008,12.36016713822034,0.0996728513412071
26.19416,12.37485133106494,0.0993292517159264
26.198244,12.384938714634544,0.099009655950954
26.202328,12.39625548977897,0.0986751395999895
26.206356,12.406785772948314,0.0983407724692657
26.210396,12.4151780299923,0.0979995042444009
26.214424,12.419870694636302,0.0976783583906839
26.218508,12.42557130105525,0.0973504272226568
26.2226,12.431382632374136,0.0970197642324314
26.226688,12.434059413468244,0.096715056637804
26.230728,12.439538570087324,0.0963964961352619
26.234764,12.445349901406203,0.0960683420305741
26.2388,12.447572365225042,0.0957545081476315
26.242892,12.44811112019379,0.0954441527393808
26.24698,12.453800308937206,0.0950951297533496
26.251072,12.456122079980442,0.0947511139127551
26.255116,12.463594284798354,0.0943687755917563
26.2591,12.4740903149411,0.093964881075333
26.263132,12.487610170408686,0.0935401614706862
26.26722,12.498770549951043,0.0931148117159284
26.271256,12.509820204593469,0.0926940628427688
26.275344,12.518178208610852,0.0922835453541198
26.279376,12.527544154403186,0.0918658461801311
26.283404,12.53421844957048,0.0914575541249994
26.287484,12.541224919437582,0.0910382157229148
26.291572,12.548907156379824,0.0906234549667099
26.295652,12.55512713427185,0.0902039396108304
26.299736,12.556185260713672,0.0897950987243098
26.303776,12.554441011630525,0.0893992948880747
26.307804,12.553250387047054,0.0889843107789403
26.31188,12.54858161986347,0.0885781358127875
26.315968,12.540102535379969,0.0881915383251078
26.320052,12.534425826421437,0.0877922563577349
26.324036,12.526843958812949,0.0874016069464699
26.327952,12.513657340154516,0.0870358813410489
26.33194,12.50596474764609,0.0866481452471528
26.336036,12.491548737412844,0.0862949088093313
26.340132,12.475338293429576,0.0859467541020995
26.344224,12.45823063257129,0.0856014048210295
26.34832,12.444933289012925,0.0852375177947058
26.352304,12.4297307868046,0.0848821630933775
26.356288,12.416322718346295,0.0845208234212305
26.36038,12.404487633838151,0.0841613202334504
26.364464,12.394336258180092,0.0837991769074104
26.368552,12.385757866472186,0.0834390616635549
26.372644,12.37538504101426,0.0830837278162893
26.37662,12.36647447460655,0.0827336351309105
26.380612,12.363622976524054,0.0823722725254339
26.38464,12.365479012616486,0.0819916640777791
26.388724,12.36969452463415,0.0816146283700616
26.392808,12.37660168727685,0.081230494141083
26.396888,12.382390183244665,0.0808550963070129
26.400972,12.385487028587448,0.0804872608507731
26.405004,12.389481090805242,0.0801159914006155
26.409036,12.391237819673275,0.0797621787938346
26.413128,12.3900814481164,0.0794228747341381
26.417216,12.396434986259424,0.0790542766062178
26.421308,12.406488116802429,0.0786734748499064
26.425388,12.41575475537036,0.0782918890098418
26.429476,12.418973743288609,0.0779455542802606
26.433568,12.423200672981803,0.077593062442281
26.437656,12.428324819550014,0.0772391610811332
26.441744,12.433670415918094,0.0768791055960994
26.445832,12.441818387811145,0.0765098841583586
26.44988,12.453100909928969,0.076122436536525
26.453912,12.467407257371631,0.0757188001340145
26.457964,12.47924340398913,0.0753139993521349
26.462056,12.490403783531484,0.0749058975271219
26.466144,12.495848687123964,0.0745208226227498
26.470196,12.500507098741371,0.0741349890569004
26.474236,12.500457976183847,0.0737653065061039
26.478332,12.502314012276278,0.0733875669913975
26.482428,12.5058537572188,0.0730094847290713
26.48652,12.515441152811006,0.0726006261215759
26.490552,12.53477579145287,0.0721500176640455
26.494592,12.557134255419571,0.0716842906943893
26.498684,12.570974867911431,0.0712490874250468
26.502772,12.58179165507845,0.0708306085466305
26.506804,12.591379050670652,0.0704240341318549
26.510896,12.60768986398768,0.0699922327762999
26.514992,12.62478716927978,0.0695628399851159
26.519016,12.641884474571883,0.069135117892189
26.5231,12.659313954563787,0.068698985798592
26.527132,12.672035900380765,0.0682779432346183
26.531216,12.677026486697972,0.0678869806724685
26.535304,12.680111914365224,0.0675030729655124
26.539344,12.687007659332387,0.0671066504809945
26.543372,12.691776795849728,0.0667238440905171
26.547412,12.698672540816894,0.0663274390612817
26.551496,12.706465502659071,0.0659306086883952
26.555496,12.717393014726028,0.0655153711176817
26.559524,12.732130844092898,0.0650895418668756
