Time,Force,Position
25.918987999999995,9.38165073173926,0.1446956601867966
25.923016,9.437235959143257,0.1443298926182383
25.9271,9.489995975671215,0.1439316888729848
25.931187999999995,9.538590664848384,0.1435331317009659
25.935216,9.58560095239987,0.1431119921335531
25.939252,9.634837155625586,0.1426194164333572
25.943283999999995,9.682156782525809,0.142122143100495
25.947324,9.72341734110082,0.1416793232719497
25.951419999999995,9.762318423750605,0.1412517150796975
25.955452,9.797065596725126,0.1408567289524065
25.959484,9.829564018674354,0.1404650990390269
25.96352,9.86373473179814,0.1400303471626905
25.967612,9.895545968996696,0.1396101535781926
25.971699999999995,9.92241680454492,0.1392217873980405
25.975791999999995,9.93762382071799,0.138945247124315
25.979883999999995,9.954724577865484,0.1386141152443049
25.98398,9.96520122451256,0.1383243725180749
25.988032,9.977571612134062,0.137980321189398
25.992132,9.979053254679952,0.13770867079871
25.996132,9.982772230575607,0.1374013893154543
26.000164,9.9918630900458,0.137012940333499
26.004207999999995,9.99971314026564,0.1366154916663958
26.008251999999995,10.006322381235137,0.136210144057325
26.012304,10.009564204504452,0.1358262980113113
26.016396,10.010446551848537,0.1354519302058027
26.020476,10.007961481492444,0.1351000456432759
26.024504,9.998409401036191,0.1348051813851957
26.02848,9.99120537882964,0.1344685930532587
26.032508,9.983547039347812,0.1341197546620222
26.036588,9.974094266115962,0.1337859941431274
26.040572,9.968562535083963,0.13340534443019
26.044556,9.959441936551915,0.133055712396863
26.048588,9.94583525364481,0.132743866718493
26.05264,9.934355179187536,0.1324007350732511
26.056684,9.92802553850493,0.1319871525062428
26.060744,9.921474448022453,0.1315845021004932
26.06474,9.91481263264004,0.131184521142495
26.068788,9.906134933707731,0.1308101487996245
26.072836,9.90261908622563,0.130398283194413
26.076832,9.888901678418591,0.1300849775221291
26.080812,9.869468794661676,0.1298324365190456
26.084864,9.85003591090476,0.1295790063589806
26.088908,9.82657126004806,0.1293754794696239
26.092952,9.804003826066369,0.1291634956611376
26.096992,9.782222884059756,0.1289480078899
26.10104,9.759212550478328,0.128754648094207
26.105092,9.743490676796927,0.1284945767995705
26.109136,9.725752919565634,0.1282591592371857
26.113196,9.705777828984576,0.1280586027279445
26.117244,9.688826563728362,0.1278192060858976
26.121348,9.671653848672277,0.1275896304252235
26.125452,9.654481133616189,0.1273590826136608
26.129564,9.64089728606015,0.1270980777270772
26.133664,9.628099930479188,0.126834555193122
26.137712,9.614748950398551,0.1265963197067247
26.141812,9.598595594792943,0.1263845389001543
26.145907999999995,9.58804699023728,0.1261184660713598
26.14996,9.576158269206864,0.1258795133139131
26.154008,9.56494531525159,0.1256435276274367
26.158064,9.5655069055714,0.1253082158596979
26.162116,9.569435913591397,0.1249540120277852
26.166164,9.5719140802367,0.1246319716867954
26.170216,9.581680706782032,0.1242477827404325
26.174312,9.593806809252596,0.1238575771670277
26.178344,9.6062765040985,0.1234868814639452
26.18244,9.620319182894557,0.1231117643845165
26.18644,9.63492690386582,0.1227479818598589
26.190539999999995,9.651783375862385,0.1223835848695916
26.194576,9.671110048684108,0.1220084300623396
26.198619999999995,9.691456080956312,0.1216578728577706
26.202716,9.710351271853831,0.1213404141416873
26.2068,9.733068197726798,0.1210199552389036
26.21088,9.75512077420016,0.1207301030574979
26.21492,9.77650900127391,0.1204718795375317
26.218948,9.798462270522869,0.1202224849954999
26.222976,9.82546666632209,0.1199488793961429
26.227068,9.851806712721704,0.119707609738113
26.231148,9.882522118596444,0.1194386091995401
26.235232,9.916826391971233,0.1191467632413213
26.239308,9.946877448446362,0.1189136689297877
26.243344,9.975699113346677,0.1187023387793258
26.247371999999995,10.012030687946885,0.118427097593707
26.251456,10.046124929197331,0.1181875692937632
26.255548,10.082013604197806,0.1179375860899578
26.25964,10.12070465472325,0.117666575018118
26.263676,10.162198080773663,0.1173743360262619
26.267704,10.198873247749216,0.1171279073537877
26.271736,10.23868296494954,0.1168472037671023
26.275824,10.27838195724993,0.1165724165438391
26.279912,10.314492082050274,0.1163226717560499
26.284004,10.352728815300445,0.1160478104973814
26.2881,10.385803697100414,0.1157994882390108
26.292196,10.423918287775118,0.1155001779164769
26.296288,10.461467836274611,0.1151934015718317
26.300376,10.49957100927378,0.1148647865683101
26.304468,10.532623055722684,0.1145589439024478
26.30856,10.563426351146294,0.1142527845815772
26.312656,10.592091620444542,0.113942920751412
26.316748,10.61458709651764,0.1136705785679055
26.320836,10.635276721165182,0.1133785812511299
26.324932,10.658535853862292,0.113044329274559
26.329028,10.6740522093841,0.1127492010007446
26.333124,10.68294445440549,0.1124751573439678
26.337216,10.689022906226375,0.112192449785588
26.341316,10.686682813796818,0.111942051863335
26.345416,10.68119675346695,0.1116958535002886
26.349508,10.679620317661405,0.1113830277768613
26.353604,10.669182438005672,0.1111196141872078
26.357703999999995,10.656827982024453,0.1108402292235878
26.3618,10.642667674617671,0.1105394545960662
26.365828,10.62468563223544,0.1102376826406731
26.36986,10.613083415202697,0.1098624718695823
26.373904,10.59328410371938,0.1095079971171473
26.378,10.57246543278558,0.1091312761770461
26.382048,10.54950873572642,0.1087465803610674
26.386092,10.52710566316694,0.1083376862420182
26.390115999999995,10.505256215107128,0.1079050383385313
26.394196,10.482841724872111,0.1074629979292067
26.398288,10.459972917361824,0.1070060300593688
26.402335999999995,10.437104109851532,0.1065473284378266
26.406268,10.408962725991104,0.1061130239532596
26.410291999999995,10.37690029993083,0.1057096803732539
26.414383999999995,10.355039434195486,0.1052358758841379
26.418432,10.332957118660271,0.104769958989431
26.422476,10.317155321250144,0.1042671837866839
26.426576,10.300345582065065,0.1037726793552148
26.430636,10.278163959305452,0.1033381242351653
26.434691999999995,10.26528667999576,0.1028398238864175
26.43874,10.25599826818612,0.1023221945768483
26.442788,10.251871707826677,0.1017844130842336
26.446888,10.250104623392463,0.1012452414005968
26.45094,10.24397359715866,0.1007580965392125
26.45504,10.242229348075512,0.1002826297951076
26.45908,10.242512400217793,0.099820673191171
26.463128,10.244822753585495,0.099372407327388
26.467179999999995,10.246468757553592,0.0989503651546673
26.471176,10.251260729421997,0.0985298186334068
26.475224,10.258301452315695,0.0981151687071573
26.479268,10.269496084884652,0.0976924826010636
26.48336,10.288765669328711,0.097234180187808
26.487404,10.315888755848013,0.0967484980781219
26.491496,10.35747803726743,0.0961929396601418
26.495576,10.393916884912183,0.0956901641586773
26.499608,10.43159654180729,0.0952026093563127
26.503696,10.470738457752608,0.094724182400895
26.507688,10.512239849623162,0.0942477117539123
26.51172,10.563942801818648,0.0937174066045645
26.515752,10.612068304189622,0.0932389202801145
26.519836,10.658632240285971,0.0927938892304399
26.523928,10.70464255188265,0.0923741026655156
26.528024,10.75020996387959,0.0919728280538346
26.532112,10.796563867851605,0.091572681018795
26.53614,10.841344787873464,0.0911723949982079
26.540123999999995,10.88511776612038,0.0907817027929457
26.544215999999995,10.928890744367294,0.090393238026142
26.548304,10.98006290741417,0.0899701900365243
26.552388,11.025630319411109,0.0895788747419631
26.556476,11.069292572758089,0.08920142611817
26.560512,11.111946884330118,0.0888345302582503
26.564552,11.145296852452226,0.088518517682832
26.568643999999995,11.173042069524396,0.0882340469619236
26.572744,11.191925842746382,0.0879825386453618
26.576836,11.211817557743313,0.0877243464662554
26.580936,11.229239071915082,0.0874679740823864
26.585028,11.245087602136696,0.0872116773921237
26.58906,11.259473873308089,0.0869501737357475
26.593088,11.26657168457945,0.0867202015715394
26.59718,11.275231062125435,0.0864637942482843
26.601264,11.282538905521138,0.0861978049849664
26.605352,11.287597997891542,0.0859254965268561
26.609436,11.296013090286593,0.085621103911429
26.613472,11.308349224881493,0.0852942534451308
26.617556,11.323709184801237,0.0849475651830167
26.621648,11.342314419845687,0.0845740513598804
26.625723999999995,11.35923594604005,0.0842030729415835
26.629804,11.371327795484016,0.0838326052044011
26.633848,11.388459353802716,0.0834289344978367
26.63788,11.405812361921283,0.0830182119600797
26.64186,11.422600327864648,0.0825997580915364
26.64594,11.44219066933298,0.0821687964446775
26.65002,11.458978635276342,0.0817485732587487
26.654104,11.477671759869663,0.081320124632675
26.658176,11.492997466762809,0.0808946329045241
26.662256,11.510560507005714,0.080448381564843
26.66624,11.521510854423736,0.0800311986419862
26.670332,11.534366360491711,0.0796057413151138
26.67442,11.542625057284695,0.0791953252532521
26.6785,11.54337384437778,0.0788167334845337
26.682544,11.54120953104596,0.0784526056597699
26.68664,11.539266667514008,0.0780803517982665
26.690624,11.533624211582076,0.077722993621513
26.694712,11.519009586900026,0.0773899614613666
26.698764,11.499798152942985,0.0770726024469448
26.702852,11.47206886751109,0.0767916780319701
26.706907999999995,11.44478248167894,0.0764938975492219
26.710836,11.413132154047195,0.0762316190106878
26.714932,11.378568725990547,0.0759832501567479
26.718983999999995,11.340305705533916,0.0757466277113756
26.723036,11.30215340997722,0.0755046636877704
26.72712,11.261530913595358,0.0752601169357131
26.731216,11.228861226513136,0.0749693679459166
26.73526,11.19540504745584,0.0746759431109447
26.739356,11.163964751948434,0.0743687577953734
26.743452,11.132303006641155,0.0740684145882351
26.747452,11.106578187083628,0.0737343217677352
26.751488,11.076145833351168,0.0734170579085891
26.755532,11.052436897343531,0.0730681788839859
26.759612,11.03444343728577,0.0726935258128231
26.763656,11.024181336727777,0.0722830950967542
26.7677,11.01268984459497,0.0718854997641475
26.771748,10.999182468912268,0.0714984252374617
26.775848,10.98926396072961,0.0711012095851772
26.779828,10.984950203596895,0.0706848128888862
26.783864,10.988257081064017,0.0702365853140784
26.787959999999995,10.990899609131525,0.0698118212762329
26.792012,11.000376279823792,0.069354716024544
26.796116,11.011868834065954,0.0688871313849661
26.800164,11.02885541445812,0.0684050098813366
26.804216,11.043604661500527,0.0679423245901822
26.808256,11.060934834268032,0.0674783226174137
26.812288,11.073225298160802,0.0670447553870228
26.816384,11.085072862453831,0.0666276493082834
26.820484,11.09838268579708,0.0662199550697371
26.82458,11.114605609565237,0.0658019743628255
26.828676,11.13340945905849,0.0653857015037051
26.832768,11.156920842726674,0.0649543461770096
26.836856,11.180100051695057,0.0645366224200531
26.840844,11.204176477538446,0.0641193140693835
26.844824,11.222537427431964,0.0637238238598822
26.848908,11.24280353597544,0.0633221217178841
26.852952,11.265872020043885,0.0629126543781892
26.856984,11.29454525516227,0.062490157672955
26.861032,11.318400231205793,0.0620870219176932
26.865064,11.343041699224386,0.0616897409205875
26.869156,11.369920500592752,0.0612760975058944
26.873184,11.391981042886243,0.0608810166516123
26.877264,11.411914976729918,0.0605005168554286
26.881348,11.432070360373457,0.0601150719982676
26.8854,11.454241627566889,0.059720353494608
26.889496,11.47921527028529,0.0593212020348084
26.893591999999995,11.50329169612868,0.0589229597405487
26.89762,11.525684413121985,0.058523037817537
26.901664,11.547401363040144,0.0581180722182411
26.90576,11.564189328983504,0.0577336247334243
26.909856,11.576048310952066,0.0573691336108517
26.913952,11.585891409370737,0.0570143301697683
26.918044,11.597971841139168,0.0566453040922449
26.922083999999995,11.606917722682825,0.0562933986366206
26.926175999999995,11.619563196626466,0.0559356617359335
26.930264,11.632995162545182,0.055581808212898
26.934356,11.647213620438976,0.0552318691025586
27.02416,12.542047122065147,0.0551970052796228
