Time,Force,Position
27.344172,11.356702419719214,0.1336111808606867
27.34826,11.434683815971908,0.1330618273879004
27.352288,11.493102220072076,0.1325505008377923
27.356372,11.528147314719806,0.1321157066597493
27.360456,11.54576744334038,0.1317155377719427
27.364544,11.550116515609044,0.1313284832116761
27.368572,11.545126991401188,0.1309391581213181
27.372608,11.530466696017008,0.1305604018912488
27.376696,11.50592559733216,0.130227753016045
27.380728,11.469609954372226,0.1299855717706722
27.384824,11.427246660762613,0.1298075396770895
27.38886,11.38298962617857,0.12967405364543
27.392948,11.343562268344929,0.129521381302235
27.396984,11.308399545086472,0.1293432025936141
27.401032,11.27537484795338,0.1291665008943351
27.405016,11.24863066894537,0.1289428919493936
27.409108,11.218751939712584,0.1287550573187
27.413196,11.18775454380492,0.1285812414875632
27.417288,11.160013840697497,0.1283938233641431
27.421376,11.131043746015257,0.128224856222597
27.425464,11.110259328108055,0.1279934380008699
27.429556,11.099565745625856,0.1276826769652455
27.433648,11.09088804669355,0.1273491544307838
27.437728,11.08792582371112,0.1269635541014333
27.44182,11.094378669078546,0.1264988562067334
27.445856,11.098029138921008,0.1260568134498907
27.449888,11.104592709188369,0.1255885281888994
27.453972,11.111942771430808,0.1251188974930764
27.45806,11.123889642948242,0.1246146034660165
27.462144,11.141662715315483,0.1240572870924205
27.466176,11.16593775560768,0.123449579093852
27.470204,11.193347346124654,0.1228058741633829
27.474292,11.218065286016587,0.1221815532565159
27.478376,11.23818641663353,0.1215916392466046
27.482408,11.258528997050345,0.1209919883656913
27.48644,11.27685569391726,0.120415970360423
27.490468,11.300000649859042,0.1197987220295723
27.494552,11.326734473300872,0.1191587692778807
27.498636,11.350776646117664,0.1185372079982381
27.502712,11.375716035809468,0.1179108119167715
27.506748,11.393145515801374,0.1173448755873123
27.51078,11.406653953593429,0.1168171169160406
27.514816,11.423861983785464,0.116264059542383
27.518852,11.438943405527674,0.1157365332170225
27.522884,11.442483150470192,0.115306032583873
27.526972,11.45061970468771,0.1148442803820078
27.531016,11.455732433580383,0.1144127675825418
27.535052,11.460845162473063,0.1139818665506843
27.539144,11.466068616265677,0.1135488391095032
27.543232,11.46535514430854,0.113168977973993
27.54732,11.464530947451474,0.1127954520526322
27.551356,11.464947559844754,0.112433545016738
27.555388,11.469628806813224,0.1120553686637362
27.559424,11.483171497631876,0.1116325510368655
27.5635,11.501986764800666,0.1111859236153514
27.567528,11.518453973719756,0.11076984038552
27.571612,11.531454457714268,0.1103986882961433
27.575648,11.54423349190891,0.110037274134138
27.579684,11.55959345182865,0.1096659037712053
27.583764,11.577534337473493,0.1092861809758758
27.587844,11.601866466143353,0.10886966799871
27.591872,11.626874361888357,0.1084572019660953
27.5959,11.65065286605854,0.1080642679216955
27.599936,11.67298052885404,0.1076958339725312
27.603968,11.70281810134944,0.1072770343279378
27.608064,11.731537007169958,0.106873759152638
27.61216,11.763058288515449,0.1064543358904028
27.616256,11.793460903186054,0.1060483460172997
27.620296,11.821626184506895,0.1056695853681234
27.62438,11.85472044980254,0.105252819031043
27.628464,11.88310718092325,0.1048681003367768
27.632556,11.908126494343785,0.1044938640262845
27.636648,11.932359315789242,0.1041229527909406
27.640736,11.951995327959706,0.103781090153844
27.64482,11.967034530855177,0.1034662331908705
27.648912,11.984200342200475,0.1031308380399671
27.653008,12.002706270020523,0.1027755926618355
27.657096,12.020204256065629,0.1024294828230598
27.661188,12.040504617635705,0.1020694498375493
27.665276,12.05912127035569,0.1017159022869982
27.669364,12.075832764425716,0.1013764195817642
27.673456,12.092544258495742,0.1010374451745862
27.677544,12.110152969440785,0.1006961014813914
27.68164,12.132801389260557,0.1003164843719239
27.685736,12.153655375330302,0.099946428330837
27.689824,12.17260420275009,0.0995886611869514
27.693916,12.191663755069817,0.0992293647085948
27.698004,12.213747132714378,0.098848419664963
27.702096,12.235265468183735,0.0984601730522247
27.706184,12.255443687178342,0.0980927101291614
27.710276,12.27651912304796,0.0977211089531393
27.714368,12.30129415131756,0.0973318120781399
27.718456,12.322258862287242,0.096965680401095
27.722548,12.338737488881865,0.09661764006724
27.726636,12.357231999026382,0.0962555863626242
27.730728,12.375161466995692,0.0958864434997147
27.734824,12.395106818514895,0.0955043512008989
27.738916,12.417289503383865,0.0951018158982592
27.743008,12.433978162102823,0.0947255185212462
27.747044,12.4469672284218,0.0943669075886404
27.751132,12.456367427240734,0.094022032828107
27.75522,12.467894234509492,0.093660237067404
27.759308,12.473029798753233,0.0933255297838104
27.7634,12.476703103946754,0.0929879514709716
27.76748,12.484186726440196,0.0926313590117424
27.771568,12.495812840933358,0.0922445233220343
27.775656,12.5036286381266,0.0918785737029463
27.77974,12.508642059794877,0.0915267005364671
27.783836,12.515560640113108,0.0911653877314191
27.787928,12.522024903156067,0.09079326973923
27.792028,12.532520933298816,0.0903953575979134
27.796124,12.541333254591477,0.0900012260498755
27.800216,12.55137496745895,0.0895928120748012
27.804316,12.563211114076449,0.0891769651576477
27.808412,12.576841694443967,0.0887573054699404
27.812444,12.59473690938668,0.0883320917802845
27.816484,12.612299949629588,0.0879199815889993
27.820572,12.627847106322603,0.0875223994967972
27.824656,12.645299421665577,0.0871156592011691
27.82874,12.670261646708449,0.086677457930019
27.832824,12.700717897901322,0.0862200324987932
27.836904,12.730276932219189,0.085767984312563
27.840936,12.769361759786843,0.0852725364099924
27.845016,12.807217195779684,0.0847927305222238
27.849096,12.84025437269766,0.0843394173103131
27.85318,12.868251840740902,0.0839183594282068
27.85726,12.901854059834086,0.0834768118161297
27.861296,12.93825865445224,0.0830259929548673
27.865324,12.976568407720356,0.0825700430914039
27.869408,13.018577753388447,0.0821042820620037
27.873492,13.058571215506651,0.0816535460636733
27.877576,13.099351169599933,0.0812058264920396
27.881664,13.140806890768353,0.0807636762924776
27.885688,13.188764579861724,0.0803011686261282
27.889724,13.230109576130207,0.0798659212225684
27.8938,13.265960546248689,0.0794495842820528
27.897884,13.30034925731695,0.0790296097960801
27.901968,13.333619301710328,0.0786192327753694
27.906008,13.365881404328762,0.0782151491804842
27.91004,13.390633597247296,0.0778402074910387
27.914128,13.413591356415806,0.0774715762886637
27.918164,13.435319724009496,0.077116123195752
27.922204,13.451111165853447,0.0767915211719788
27.926296,13.467689099672471,0.0764690612004917
27.930328,13.482472599741476,0.0761501832384717
27.93442,13.501963633985405,0.075815509294559
27.93846,13.513834033629502,0.0755103785198206
27.942552,13.523688549723705,0.0752166967898815
27.946652,13.526598198293216,0.0749563687171084
27.950776,13.52267370423797,0.074726136796893
27.954868,13.51583610975782,0.0745080168528553
27.958904,13.507879848602787,0.0742984542840595
27.962996,13.501939470997648,0.0740789451292075
27.96708,13.489497125467556,0.0738789276501533
27.971164,13.479635705662565,0.0736761591854166
27.9752,13.46775840230768,0.0734827494471454
27.979228,13.45342231580316,0.0733122349410678
27.983312,13.439086229298644,0.0731414040742467
27.987392,13.426544576544153,0.0729669108257858
27.991472,13.41568663263975,0.0727917018108335
27.995556,13.400121154560416,0.0726312980589295
27.999635999999995,13.380966808981034,0.0724772868672053
28.003672,13.359231537676552,0.0723244932083855
28.00776,13.33077284864725,0.0721964360891074
28.011848,13.303997868468036,0.0720676450992615
28.015876,13.267697095039027,0.0719720769233363
28.01996,13.235206638909938,0.0718624549127176
28.024,13.201597516105966,0.0717607119385013
28.02808,13.171909435501844,0.0716417157109161
28.032172,13.141324138022714,0.0715238508259641
28.03618,13.111525332518656,0.07140718180152
28.040284,13.079034876389567,0.0712950383428164
28.044328,13.03859161096084,0.0712193903916681
28.04838,13.000839996157143,0.0711379635949006
28.052476,12.96330983115332,0.071049246002397
28.056536,12.930487200324428,0.0709449831264152
28.060584,12.897775294395464,0.0708369919282717
28.06468,12.865174113366445,0.0707250234471267
