Time,Force,Position
28.647824,11.119527425747076,0.1342554431398557
28.651904,11.181938829955689,0.1342026763295674
28.655984,11.24105928833746,0.1340756404978051
28.660064,11.29666735109252,0.1338827421147731
28.664152,11.350901044346232,0.1336301688466625
28.668236,11.40006077569861,0.1333509948524379
28.672268,11.438541794099718,0.1330917612859259
28.676304,11.471616675899686,0.132816558817279
28.680344,11.498056029523704,0.1325453181486448
28.684436,11.518092722447168,0.1323000035756115
28.688536,11.537663680419827,0.1320166903596415
28.692632,11.557333945616891,0.1317012546075923
28.696728,11.575087634488463,0.1313775116064589
28.700768,11.593284222959776,0.1310389575018365
28.704856,11.612488753206035,0.1306897888312401
28.708944,11.626985749277363,0.1303809502036833
28.713032,11.645293062648609,0.1300366525736097
28.717124,11.66281388404478,0.1296944052149905
28.721208,11.67718873754064,0.1293616297457112
28.7253,11.688085448436388,0.1290518845330098
28.729388,11.700322275806888,0.12871997911608
28.73348,11.72074477995243,0.1283280399865282
28.737576,11.73612757522324,0.1279896793561871
28.741672,11.755099237994092,0.1276294291689522
28.745768,11.767458207940065,0.1273261108019143
28.749864,11.776682627661256,0.1270586608588658
28.7539,11.791401073532452,0.1267504543245059
28.757988,11.815423862853574,0.1263733901838433
28.76208,11.846956561874595,0.1259392858644074
28.766168,11.87949720267056,0.1254976624074313
28.77026,11.911140626591516,0.1250645262609162
28.774348,11.939195183012425,0.1246544996913518
28.77844,11.961644988383393,0.1242873776266495
28.782536,11.981403143129324,0.1239394621630346
28.786624,12.001161297875257,0.1235921450402638
28.790724,12.028318637421156,0.1231917279192017
28.794816,12.056262468942126,0.1227908313714982
28.798908,12.087119400888003,0.1223660564872261
28.803004,12.118652099909028,0.1219442630671295
28.807096,12.152765724655149,0.1215122284100829
28.811128,12.181839640526537,0.1211287175097168
28.815216,12.204522313372909,0.1207897860463501
28.819308,12.230228811544118,0.1204220844446131
28.823396,12.249433341790374,0.1201026146156903
28.827488,12.271772422261408,0.1197506107476171
28.831576,12.296016661382398,0.1193839782266717
28.835664,12.3182450169535,0.1190376893006168
28.839748,12.327923753949962,0.1187954233663337
28.843836,12.33009258124653,0.1186087346694095
28.847928,12.331253466768148,0.1184318605954448
28.85202,12.329390526964929,0.118282556622572
28.856104,12.332013671536767,0.1181071525773269
28.860196,12.34013084225861,0.1178963586805739
28.864284,12.347129346305572,0.1176988094145722
28.868368,12.354127850352532,0.1175015028437075
28.87246,12.354735111374476,0.1173446283574852
28.876548,12.353880113346202,0.1171862122623928
28.880636,12.353135840217863,0.1170244003546542
28.884724,12.350929308039303,0.1168607077938872
28.888816,12.346252575035582,0.1167045509340862
28.892904,12.34874215935642,0.1164823206911737
28.896992,12.353469077027023,0.1162343612854839
28.901076,12.355615068972522,0.1159973706452133
28.905172,12.359998394267787,0.1157346923519292
28.90926,12.362808735612896,0.1154743531866205
28.913356,12.365275484582668,0.1151998347046798
28.917448,12.369868842002267,0.1149046225302033
28.92154,12.377928924346444,0.1145665697080968
28.925628,12.38800489024052,0.1142109230109523
28.929716,12.394602713534482,0.1138705191955031
28.933804,12.4054537537281,0.1134878984305721
28.937884,12.414731809971563,0.1131081952677512
28.941963999999995,12.422547607164809,0.1127274694517169
28.94604,12.430695579057856,0.1123348987109979
28.95012,12.440072942525724,0.1119268942106769
28.954204,12.45146618954348,0.1115009854402619
28.95828,12.46285943656124,0.1110751112738213
28.962364,12.471561032953964,0.1106641732723373
28.966444,12.48396222174667,0.1102317411585271
28.97052,12.491766601264382,0.109825018449843
28.9746,12.490831679507377,0.1094828009527487
28.978688,12.488888815975423,0.1091490325645271
28.982772,12.49075626974339,0.1087898070553189
28.986808,12.491505056836475,0.1084428679936336
28.990892,12.491921669229756,0.1081072777051931
28.994924,12.494021990473124,0.1077676119149426
28.998968,12.493652110891324,0.1074340568301795
29.003,12.495076665059557,0.1070922038024129
29.007092,12.49650121922778,0.1067506967540701
29.011136,12.4999416569459,0.1063923370719933
29.015228,12.49946105246417,0.1060628601743163
29.019316,12.498193956007364,0.1057338676823162
29.023356,12.50006140977533,0.1053783778910016
29.027408,12.502936805318244,0.1050151294783364
29.031508,12.505922925761093,0.1046491799094041
29.0356,12.51092492975383,0.104268132359039
29.039632,12.514021775096614,0.1038982002757108
29.043724,12.51823728711428,0.103516975774314
29.047816,12.520879815181788,0.1031373750301033
29.051904,12.52890564449937,0.1027332995497781
29.055996,12.544773558216654,0.1022752236385159
29.060084,12.562435905683966,0.1018102114406762
29.064172,12.57920103627626,0.1013513240289376
29.068208,12.598092775318383,0.1008746166824616
29.072304,12.619332572610208,0.1003728267994843
29.0764,12.636762052602116,0.0998945556426051
29.080488,12.654978024569097,0.0994170762481368
29.084584,12.670502345911046,0.0989514306225081
29.088676,12.685240175277915,0.0984863302581002
29.092772,12.703788321944703,0.0980013133234566
29.096864,12.730289277911131,0.09746523361639
29.10096,12.761719217852356,0.096900376026391
29.104996,12.787998724018912,0.0963769886184493
29.109084,12.81819927238532,0.0958327160129103
29.113171999999995,12.844810953251685,0.0953028290055432
29.11726,12.868730983493007,0.0947841692697172
29.121348,12.89690423063399,0.0942314511066001
29.12544,12.925298927574842,0.093673574815593
29.129532,12.952685682740746,0.0931239392652832
29.133624,12.9837606126311,0.0925371597913059
29.137716,13.010349458146395,0.0919685422402811
29.141808,13.034800277536332,0.091392797791834
29.145904,13.056105129025958,0.0908159835873945
29.150004,13.074829054790484,0.0902457742825997
29.1541,13.091869271704924,0.0896796225822082
29.15818,13.112486938443874,0.0890777659905248
29.162272,13.134555446557512,0.0884578379602646
29.16636,13.15986922979586,0.0878134255337496
29.170444,13.188428288158915,0.0871458681507442
29.174532,13.21541436257182,0.0864812527869266
29.17862,13.232985368634866,0.085860245235762
29.182704,13.242038523223068,0.0852775796046435
29.186792,13.253439736060963,0.0846727184571241
29.19088,13.256765997023756,0.0840917294101185
29.194963999999995,13.261997416636504,0.0835015465083137
29.199052,13.267228836249256,0.0829106008716862
29.20308,13.271341589187122,0.0823304664436406
29.207163999999995,13.271644024825072,0.0817661529789827
29.211244,13.270262751612934,0.081202386413277
29.215328,13.262833827751116,0.0806746057050258
29.219404,13.255404903889298,0.0801458438472685
29.223484,13.247643805327677,0.0796263135709419
29.227568,13.240558473841196,0.0791100614797334
29.231639999999995,13.234481084129662,0.0785876114519428
29.235724,13.227506477543118,0.078066802335093
29.239808,13.213587003431876,0.0775800866706581
29.243896,13.194627820445907,0.0771200090881752
29.247984,13.16973171171019,0.0766880077658424
29.252072,13.136207026599692,0.0762895828136389
