Time,Force,Position
29.79254,5.242822478226946,0.1444427619171238
29.796636,5.340560967116221,0.1441202544550007
29.800732,5.424784114502654,0.1437548672540676
29.804824,5.492025195461667,0.1434696057435585
29.808852,5.552153595618387,0.1430602595597832
29.812912,5.601813314948173,0.142635528595198
29.816948,5.639209919701,0.1422316157021308
29.820979999999995,5.664576277352268,0.1418961244648584
29.825068,5.67835528750172,0.141580576310794
29.829104,5.683139293549985,0.141307461182059
29.833199999999994,5.686228173072628,0.140998794661304
29.837291999999994,5.684265926045005,0.1407499776837704
29.841335999999995,5.681295737242436,0.1405256374925208
29.84534,5.687297717189985,0.1401579713983491
29.849436,5.70159609881251,0.1396386791135463
29.853376,5.709724687209886,0.139215280994962
29.857404,5.719636291681754,0.1387060461125919
29.861496,5.735030504628095,0.1380443904123882
29.86554,5.745373591024169,0.1374402520585084
29.869627999999995,5.745293667295439,0.13703814214506
29.873719999999995,5.746110960441721,0.1366218002611559
29.877804,5.75029567128818,0.1361677213065804
29.881896,5.75123510700993,0.1358003860082788
29.885932,5.752063817831744,0.1354410573269694
29.890016,5.752216761578417,0.1350811938022381
29.89404,5.755836430249669,0.1346212271524854
29.898128,5.7578831149707685,0.1341680360606952
29.902208,5.759475482416594,0.1336944122244092
29.906236,5.763648775587519,0.1331890785711615
29.910215999999995,5.76637122738376,0.1327426853030753
29.914307999999995,5.770666663130154,0.1322895699163789
29.918351999999995,5.783037050751655,0.1317197168045175
29.922443999999995,5.794842396197948,0.1311395141550019
29.926492,5.798129890169396,0.1307122432609819
29.93058,5.798504283715938,0.1303417566694795
29.934628,5.800673111012504,0.1299448281157771
29.938668,5.803074805784472,0.1295880300074103
29.942712,5.804812151156831,0.1292852302925919
29.946808,5.811600623079457,0.128932541905421
29.950844,5.828922830026821,0.1283916448056337
29.95488,5.846477904449587,0.1278913318075777
29.958911999999994,5.865716687722443,0.1273836268251482
29.963003999999994,5.887757846520269,0.1268302669355387
29.967095999999994,5.912601380843065,0.1262347880307308
29.971192,5.932183756491257,0.1257577356613807
29.975276,5.950204565864829,0.1253500763420285
29.97936,5.976300327113508,0.1248417225879136
29.983443999999995,6.003636897612535,0.1243552763365808
29.987472,6.029522626736877,0.1239231179203365
29.99156,6.054511138986206,0.1235013577560636
29.995587999999994,6.077373042785707,0.1231296718985187
29.999672,6.095638137310216,0.1228281344047579
30.003756,6.116041257960083,0.1225368774428593
30.007848,6.145527272260005,0.1221293644925123
30.011935999999995,6.179720820734855,0.1216565346498015
30.016024,6.2144794113849136,0.1211985902539181
30.020071999999995,6.250356668709854,0.1207188605964724
30.0241,6.282645058534746,0.1202821053115582
30.028188,6.317735823884608,0.1198146233531989
30.032271999999995,6.350257081184905,0.1194330671057772
30.036352,6.3827783384852,0.1190517877843833
30.040432,6.412840812635862,0.1187418119019107
30.044464,6.445827804886963,0.1184412424100181
30.048552,6.479723431688608,0.1181848612407224
30.052636,6.522591227240372,0.1178312362038922
30.056728,6.568604990692442,0.1174752870266278
30.060824,6.613057187869893,0.1171837723497516
30.064908,6.65829587702242,0.1168936185956715
30.068995999999995,6.708020650550006,0.1165601389158956
30.073084,6.7626858257279245,0.1162022176200748
30.077168,6.819599751931138,0.1158451210134784
30.081256,6.878540979359778,0.1155043749561948
30.085344,6.937371481888484,0.1151760433141951
30.089436,6.989257116892497,0.1149561275824887
30.093524,7.039470460721954,0.1147996822794412
30.097572,7.093272672051459,0.1146123498561367
30.101672,7.147197025956432,0.1144671873407308
30.105764,7.208974881936641,0.1142618748284126
30.10986,7.268626129467022,0.114100771216356
30.113956,7.330293260547297,0.1139157113638757
30.118051999999995,7.396667925802501,0.1136819648025437
30.122148,7.462920448482238,0.1134125712502978
30.126179999999994,7.523667527336434,0.1131548907430265
30.130271999999994,7.579241337064897,0.1128878116329156
30.134363999999994,7.627293819417928,0.1126637288337387
30.138407999999995,7.668832916170475,0.1124659733206203
30.142499999999995,7.705763785972493,0.1122722565179732
30.146596,7.740445904749217,0.1120779675372604
30.150692,7.770298346775543,0.1119003647766325
30.154788,7.7955425618513425,0.1117256905253175
30.158884,7.821107533951413,0.1114920108368317
30.16298,7.844190887550787,0.1112265854276624
30.167076,7.8651362150247985,0.1109539667507683
30.171116,7.893801484323045,0.1105532886284212
30.175212,7.922566060845696,0.1101084422038678
30.179256,7.94739817749296,0.1096732474941006
30.183352,7.971653834289485,0.1091885287846832
30.1874,7.990404047260472,0.1087159774010677
30.191488,8.004435308380996,0.1082489739228897
30.195523999999995,8.01554205140108,0.1077780272913894
30.199612,8.01923819194567,0.1073338643815943
30.203712,8.022147840515181,0.1068914920368908
30.207743999999995,8.032002356609384,0.1063714409400446
30.211772,8.047461623753529,0.1058029741021753
30.215816,8.064261007372423,0.1052040510393104
30.219844,8.08329772434108,0.1045691307625643
30.223932,8.102555891109608,0.1039226067251735
30.227916,8.122256957477877,0.1032545604225047
30.231952,8.143076690521024,0.102569625987638
30.235996,8.164228598263977,0.1018675563499652
30.240079999999995,8.184372564231985,0.1011828297313515
30.24412,8.205303022175068,0.1004991172727386
30.248103999999994,8.222866062417975,0.0998260455492045
30.252203999999995,8.232587018261176,0.0992398864625283
30.256244,8.239505598579408,0.0986787729815901
30.260344,8.24642417889764,0.0981186529015594
30.264436,8.252224092540988,0.0975774312363718
30.268524,8.257913281284404,0.0970429055757235
30.272564,8.26920722107776,0.0964652305526257
30.276656,8.27736661064634,0.0959270743692354
30.280748,8.290687851665123,0.0953692117924416
30.28484,8.303111875808895,0.0948173245745664
30.288927999999995,8.30791526535283,0.0943329429118722
30.293012,8.310813496246807,0.0938675983028844
30.2971,8.314387494215929,0.0934086101581693
30.301188,8.316953550410103,0.0929605662202842
30.305272,8.31851166482933,0.0925222210644418
30.309359999999995,8.320856271223633,0.092085770019651
30.313451999999995,8.323090152718004,0.091655494959371
30.31754,8.327007743062461,0.0912220285483431
30.321628,8.328233682781887,0.090802958873022
30.32572,8.332483447826148,0.0903558322979424
30.329808,8.3459268314204,0.0898549305114592
30.3339,8.358805172839443,0.0893402161455966
30.337992,8.37280218093337,0.0888110606176581
30.342084,8.385115480177205,0.088285454250408
30.346132,8.397539504320976,0.087755760261927
30.350172,8.410295703164552,0.0872114740994829
30.354264,8.417447150958186,0.0867048239120411
30.358356,8.425041498351561,0.0861751198419104
30.362456,8.428371211169747,0.0856570426091425
30.366488,8.4319223737878,0.0851279456905285
30.370524,8.436481478180802,0.0845872912542772
30.374608,8.438459656848703,0.0840537523070409
30.378695999999994,8.441667227091422,0.0835016568426113
30.38278,8.445993464009021,0.0829354877974992
30.386808,8.451549092501434,0.0823486464655339
30.390892,8.454523795268749,0.081768299351134
30.394972,8.458838614510816,0.0811647138183308
30.399052,8.464493550227633,0.0805398357676257
30.403132,8.470259210844384,0.0799081880313024
30.407212,8.47053084531113,0.0793040481539951
30.411264,8.462506078102898,0.0787433706811948
30.415348,8.454702760694538,0.0781690442774955
30.419344,8.445105009536151,0.0776003683237942
30.423383999999995,8.436625925052647,0.0770164298033172
30.427419999999994,8.428589740168885,0.076411825016967
30.431448,8.414838079335244,0.0758381361726096
30.435504,8.405228910501327,0.0752248062072114
30.439599999999995,8.39371458301745,0.0746192148920088
30.443696,8.382310980433507,0.0740059824314812
30.447727999999994,8.371128827649436,0.0733810676109834
30.451819999999994,8.360168124665234,0.0727431674588619
30.455856,8.350104638556045,0.0721007334938083
30.459952,8.338357443596767,0.0714586809293026
30.464052,8.323807873112518,0.0708278693538312
30.4681,8.310266244403214,0.0701885298019768
30.4722,8.297621832568925,0.0695447720374308
30.476252,8.279261944784759,0.0689286184549245
30.480356,8.255075856150784,0.068345674874616
30.484456,8.231897709291754,0.0677525376274673
30.488516,8.209616779307739,0.0671534525457655
30.49262,8.188343791098669,0.0665432486634294
30.496668,8.17054894548971,0.0659280068504914
30.500756,8.155667200305658,0.0652951158622037
30.504804,8.142579888871628,0.0646582117918165
30.508783999999995,8.129049677837862,0.0640422358813672
30.51282,8.126950418703844,0.0633736254277395
30.5169,8.119922175595029,0.0627332982561081
30.520928,8.119617350211035,0.0620606541108112
30.525008,8.120099016802119,0.0613905729659584
30.529091999999995,8.120137783793464,0.0607408827855338
30.53318,8.124662635159867,0.0600859595307705
30.53726,8.131092645176228,0.0594246762010931
30.541352,8.13618253871784,0.058784624457974
30.545436,8.14665573350952,0.0581385569363032
30.54952,8.156686028701461,0.0575147513873257
30.553608,8.16660559899347,0.0568962726922104
30.557692,8.182805687410559,0.0562696920418109
30.561779999999995,8.199792267802726,0.0556439370609191
30.565864,8.216446673495089,0.0550342856045718
30.569952,8.232768904487646,0.0544390079381661
30.574044,8.250664119430358,0.0538527474990348
30.578119999999995,8.264527567273282,0.0532906346748832
30.582204,8.274027073316615,0.0527678592311601
30.586288,8.27859759538515,0.0522688254923482
30.590316,8.277341916603874,0.051791835801491
30.5944,8.261520735698074,0.0513748806528867
30.598475999999994,8.247051088942554,0.0509745457657757
