Time,Force,Position
30.711672,3.597983645534536,0.1633471304384378
30.71576,3.821777786271248,0.1611565035658191
30.719852,4.022740824379662,0.1597609573597315
30.723888,4.203022203660673,0.1589950180078873
30.72792,4.370819018564855,0.1584838789067877
30.731892,4.537562220991958,0.1575835296656731
30.73592,4.692939525717114,0.1568011125253442
30.739956,4.842212091414926,0.1558875248943841
30.744044,4.981447458210009,0.1549820399989327
30.748092,5.10570522445203,0.154107799492495
30.75212,5.218684982540974,0.1531404758896031
30.756204,5.321406091927317,0.1521519028260236
30.760283999999995,5.4158958538364885,0.1511413520445207
30.764268,5.493304242093837,0.1503407350144101
30.768308,5.5606982667995215,0.149591038643722
30.772392,5.620425986203239,0.1487975685189075
30.776484,5.667558416330196,0.1480906983169992
30.780568,5.708597525105337,0.1473284614231017
30.78466,5.744574089654678,0.1465962247940414
30.788756,5.778080453378856,0.1458967280227046
30.792848,5.805539166453353,0.1453422559021625
30.796883999999995,5.836598164703429,0.1447872307154825
30.800968,5.874735590729198,0.1441725840950353
30.805056,5.919264259779985,0.1434434199722453
30.809092,5.962773569380292,0.1426887837227565
30.813175999999995,6.002350419105212,0.1419792174208951
30.817212,6.039789242704773,0.1412700501956482
30.821308,6.073639198804289,0.1406308254334438
30.825403999999995,6.099647070504097,0.1401628771132634
30.829495999999995,6.127903693229204,0.1396925551685233
30.833532,6.15851979187954,0.1392162507351616
30.837628,6.184096181655144,0.1388542557133615
30.841716,6.202273386630783,0.1386193571507613
30.845808,6.223241549455859,0.1382840007879165
30.849896,6.239158585730668,0.1380038658506567
30.853992,6.254399854930337,0.1377247768814692
30.85808,6.269419674330136,0.1374636541418034
30.862172,6.28410731903013,0.1372327967757352
30.866256,6.298462789030318,0.1370293859897282
30.870344,6.31954167675533,0.1367118691915791
30.874436,6.348462648880045,0.1362491179841613
30.878523999999995,6.375921361954542,0.1357915670620714
30.882612,6.401917815978819,0.1353381596427217
30.886704,6.422309518953155,0.1349746612351272
30.890799999999995,6.443155539202764,0.1346329991494232
30.894884,6.4626614429776215,0.1343353280089308
30.898972,6.484526822677709,0.1340256054914679
30.903056,6.506392202377798,0.1337175312108555
30.907144,6.535988941577655,0.1332780551592043
30.911236,6.561099596402453,0.1328987727273921
30.91532,6.5822892090274,0.132593292210559
30.919408,6.605826879902044,0.1322258625588297
30.923492,6.634293534751488,0.1317682254802289
30.927584,6.660190681551363,0.1313908474458116
30.931668,6.693597738051138,0.1309014032369942
30.935763999999995,6.7249889110010175,0.1304534602223354
30.939792,6.756933708450572,0.1299712639720121
30.943871999999995,6.786862622350235,0.1295320956480548
30.947956,6.815440002099612,0.1290889876325275
30.95204,6.83370509662412,0.1288005048040644
30.956124,6.848270598748647,0.1285672945636712
30.960204,6.865749201298078,0.128291480791751
30.964284,6.882552036772367,0.1280126888617662
30.968368,6.90439458112139,0.1276464475983649
30.972444,6.926901474870022,0.1272408027213094
30.976531999999995,6.951756426868352,0.1267808167768165
30.980616,6.979180886916249,0.126257637091357
30.9847,7.008953405213846,0.1256853460712695
30.988784,7.0303187969365295,0.1252251381899393
30.992876,7.055715955759001,0.1246987652466222
30.99696,7.082342506156289,0.1241429265187264
31.001052,7.109079781453512,0.1235839840747663
31.005132,7.1342440728005805,0.1230345010412325
31.009216,7.161867147297282,0.122427177022397
31.013288,7.184106920543913,0.1218825496139132
31.017368,7.208473302240373,0.1213016874961515
31.021452,7.229815858611991,0.1207696145010587
31.025536,7.250593372808402,0.1202280329134692
31.029616,7.269133553655051,0.119731376863916
31.0337,7.292491993576564,0.1191662381793043
31.037784,7.317079825072893,0.1185767117498558
31.041864,7.336062905519282,0.1180581234965922
31.045948,7.356053927740617,0.1175260070957708
31.050032,7.370550923811946,0.1170551798457866
31.054112,7.381126877683422,0.1166408205566036
31.058192,7.391702831554899,0.1162299604152367
31.062228,7.397349801451578,0.1158911657536564
31.066308,7.399075729148405,0.1156075427277963
31.070396,7.406517132795107,0.1152528968059703
31.07448,7.410934711116969,0.1149442836121305
31.078564,7.416360231213777,0.114622543662838
31.082647999999995,7.423248010360804,0.1143061487227978
31.086736,7.428352773433339,0.1140497371224194
31.090772,7.432461012406462,0.1138531875189762
31.09486,7.440956028530239,0.1136674776203316
31.098948,7.448454520554606,0.1135406693456824
31.10298,7.460671964429433,0.1134045742589587
31.107064,7.474805984629753,0.1132902092192464
31.111148,7.495896290030295,0.1131262540492394
31.115231999999995,7.517895229981383,0.1129986291081861
31.11932,7.539462688008265,0.1129404013334949
31.123404,7.564065389035518,0.1128820126491681
31.127444,7.589576724613317,0.1128592709499239
31.131536,7.622498662666613,0.1128052033768727
31.135615999999995,7.661147494345318,0.1127289404243713
31.139704,7.700139918399362,0.1126787852409253
31.16418,7.991477575733031,0.1125945157632057
31.168268,8.048681457789312,0.1125578965053062
31.172356,8.108565572795097,0.1124615528175042
31.17644,8.165857344400248,0.1123426453957038
31.180528,8.224145640104812,0.1121717487092776
31.184612,8.282422518133842,0.1119648296580406
31.188696,8.339458586912524,0.111744159199916
31.192788,8.39144352914094,0.1115511179929992
31.196876,8.44330632879389,0.1113265642004218
31.200963999999995,8.49078235129618,0.1110892303779738
31.204936,8.539819940073093,0.1108131918860619
31.209016,8.589743328049485,0.1104949570670051
31.2131,8.636742197925438,0.1101743955825176
31.217179999999995,8.67711695730097,0.1098788575990338
31.22126,8.711211198551421,0.1096278974387433
31.225348,8.736333271051752,0.1094442839310061
31.229436,8.768388793401243,0.1091455554778383
31.233524,8.796844030575155,0.1088370520857742
31.237608,8.823604141223441,0.1085016636749418
31.241696,8.851250051071212,0.1081230440694407
31.245788,8.874963501043593,0.107748431836303
31.249868,8.892617882690763,0.1074115837830673
31.253952,8.90488896308786,0.1071135274943173
31.25804,8.913460451084976,0.1068452647808807
31.26212,8.9174351298071,0.1066131418394589
31.266148,8.91602650727915,0.1064178450298922
31.270232,8.911250467051023,0.1062357339820057
31.27426,8.904004225997733,0.1060605633330497
31.278356,8.8935012921442,0.1058931746452255
31.282336,8.886697950690648,0.105695781439515
31.286392,8.874954207586763,0.1055125458255417
31.29048,8.858159337932614,0.1053482665262064
31.294576,8.838329225278091,0.1051798086007332
31.298676,8.82286305442316,0.1049492709479157
31.302772,8.813887433817646,0.1046291742852486
31.306823999999995,8.804900395536603,0.1042695593269473
31.310912,8.785933246730492,0.1039792573621282
31.314992,8.76651178064911,0.1036721173749144
31.319044,8.742039188017463,0.1033816714956968
31.32314,8.713523410610494,0.1030963642182662
31.327232,8.686126299878406,0.1027928619891611
31.331316,8.657156205196166,0.1024881784420094
31.335368,8.628518285213731,0.102165389006016
31.339412,8.604022857231016,0.1017915339455051
31.343444,8.585685804797915,0.1013454956728906
31.347492,8.569586085714578,0.100864778484226
31.351592,8.555502250181135,0.1003602776944951
31.355672,8.547355340397438,0.0997958173513698
31.359752,8.539208430613739,0.0992294194504222
31.3638,8.53262308710466,0.0986271651228674
31.367844,8.529405161295761,0.0980138537629818
31.371876,8.526752277662071,0.0974089737041795
31.37592,8.521862060678616,0.0968333174082717
31.38,8.517426160970432,0.0962763797117333
31.38408,8.50996643593741,0.0957519078922769
31.388168,8.507668562354587,0.0952073894031336
31.392208,8.510643265121901,0.0946365397422402
31.396248,8.515190951839367,0.0940676919564191
31.40028,8.524003273132026,0.0934845147586587
31.404268,8.536969504099938,0.0928926574207543
31.408252,8.556437702992802,0.0922606916738413
31.41234,8.577146711136017,0.0916459065366785
31.416428,8.603239020529301,0.0910071456880239
31.420524,8.627204721472758,0.0903961938097406
31.424616,8.646019988641548,0.0898429742576458
31.428648,8.666973281935698,0.0893051421679943
31.43274,8.691515442729896,0.0887531216434654
31.436772,8.710120677774347,0.0882554344353877
31.44086,8.736125097618762,0.0877183035510265
31.444952,8.757876300563524,0.0872313961723105
31.44904,8.778841011533205,0.0867456804514826
31.453132,8.805521198452766,0.0862234070852461
31.45722,8.83971129507222,0.0856560822811541
31.461312,8.870201799291696,0.0851114377461006
31.465408,8.900360128811368,0.0845825064318389
31.469496,8.928502574781145,0.0840746814897036
31.473592,8.95675574565086,0.0835650569357143
31.477684,8.98108787432072,0.0830859049437378
31.48178,9.006206494965658,0.0826116714761235
31.485868,9.03143584051053,0.082135361228403
31.489964,9.050838985205592,0.0817043384066902
31.494056,9.06978781262538,0.081257286585259
31.498148,9.083021164095294,0.0808480565349867
31.502244,9.09715173244022,0.0804359841402721
31.50634,9.113187459435103,0.0800122257171296
31.510435999999995,9.12607721852968,0.0795829826968971
31.514532,9.134702343049067,0.0791619677117747
31.518624,9.14624056799336,0.0787208962393302
31.522724,9.150268883237754,0.0783226918857074
31.52682,9.157321023806986,0.0779007809751132
31.530912,9.16437316437622,0.0774797632797388
31.535008,9.168057887245274,0.0770637476265361
31.539104,9.1644541502143,0.076676289072086
31.543199999999995,9.164992905183048,0.0762537690485991
31.5473,9.168101168201362,0.0757926410220757
31.551392,9.171873780619288,0.0753035867910314
31.555488,9.173065467312112,0.0748180690438794
31.559584,9.177723878929514,0.0742904493102606
31.56368,9.175426005346692,0.073772627516904
31.567776,9.172563089588662,0.0732441266020272
31.571871999999995,9.168459364580285,0.0726951265563043
31.575968,9.163679872496765,0.0721379295718531
31.580064,9.160240496887992,0.0715579994265879
31.58416,9.156236079104016,0.0709660691881572
31.588256,9.15166661914483,0.0703620846516785
31.592356,9.151804693360576,0.0697387850396877
31.596452,9.15474514310129,0.0691048203439045
31.600484,9.15801776754181,0.0684578601838082
31.60452,9.161401116882264,0.0678044527737583
31.6086,9.162990032472694,0.0671562057862537
31.612687999999995,9.16580833963794,0.0664936673619583
31.616772,9.167397255228371,0.0658476607676308
31.620864,9.174590921868743,0.0651810633320123
31.624956,9.177974271209198,0.0645325033520775
31.629044,9.180914720949914,0.0639051416505312
31.633132,9.181507112440933,0.0633042036854232
31.637224,9.186020546131802,0.0626842615787343
31.641304,9.193004180647836,0.0620724241993683
31.645336,9.21198380923883,0.0614305984484563
31.649416,9.22592372895509,0.0608172910106427
31.6535,9.242444574396457,0.060204888894026
31.657575999999995,9.262665012237797,0.0595851889970558
31.66166,9.281988233204128,0.058967245589095
31.66574,9.300414237295447,0.0583509480103317
31.669824,9.319737458261782,0.0577352443094261
31.673916,9.3332344783783,0.0571458981484552
31.677996,9.34169178962009,0.0565839010551592
31.682072,9.348919709287063,0.0560372772175307
31.686152,9.35625835385397,0.0554850761957117
31.69024,9.358778739346011,0.0549478700904838
31.694332,9.351551881788394,0.0544472724503833
31.698408,9.338720273180831,0.0539568197891895
