Time,Force,Position
29.404996,4.979421085690066,0.1408563714037255
29.409072,5.001309300741223,0.1405556435519258
29.413104,5.023418965592248,0.1402347941514468
29.417184,5.045417905543338,0.1399278220642239
29.421268,5.066741078419287,0.1396197213035868
29.425352,5.087388484220093,0.1393137662529625
29.42944,5.109043831795846,0.1389803822692264
29.433524,5.128118253646498,0.1386821756761027
29.437612,5.1504379506218605,0.1382908637792913
29.4417,5.1717497058222754,0.1379271069337846
29.445792,5.193626503197895,0.1375805396603446
29.449888,5.211250083673862,0.1373579398959264
29.453976,5.230335923200046,0.1371321089856129
29.458068,5.246962979576598,0.1369994596912962
29.462092,5.269416236802961,0.1367348276174435
29.466184,5.288169901629341,0.136545571640732
29.470279999999995,5.308828725105678,0.1363192940770402
29.474376,5.331171257432105,0.136077963593229
29.478428,5.354865323908815,0.1358489313556466
29.482524,5.382934749860651,0.135562193161309
29.486516,5.413363651737717,0.1352632340328453
29.490568,5.44457904558986,0.1349651015982692
29.494668,5.4759051643419365,0.1346597663909285
29.498756,5.504650357368913,0.1343871973866654
29.502863999999995,5.532387608620945,0.1341385239912396
29.506952,5.561808568723063,0.1338783334202352
29.510996,5.592569645299935,0.1335718379873197
29.515096,5.631959298251587,0.1331059194940674
29.519188,5.669111617853476,0.1327117894465394
29.523288,5.709509212580073,0.1322412856605467
29.52738,5.751246923781423,0.1317312774624234
29.53148,5.794214026557588,0.1311767179265853
29.535576,5.836616087158546,0.1306086197352445
29.539608,5.88069043893406,0.1299715348986172
29.543696,5.922859632059616,0.1293808084143528
29.54778,5.968949867385024,0.1287222272845939
29.551812,6.013467118760277,0.1280808772659924
29.555904,6.054616952435353,0.1274790802151329
29.559988,6.092510093310187,0.1269035074478554
29.564076,6.124122716059937,0.126416641881318
29.568164,6.157075455284439,0.1258945952871165
29.572216,6.186550051908828,0.1254132818986458
29.576304,6.214230214783195,0.1249552580108434
29.580388,6.244934202982401,0.1244396472386643
29.584472,6.275073149006399,0.1239103630346046
29.588548,6.301733952430284,0.1234247087904359
29.592628,6.328394755854171,0.122945553241865
29.596656,6.347545649578158,0.1225865971081624
29.600696,6.363329125601965,0.1222552707700801
29.604752,6.374515792350782,0.1219892263948923
29.608836,6.3830108084745625,0.1217578042353894
29.612924,6.394751099723053,0.1214575529343869
29.617008,6.406602115871477,0.1211497224469258
29.621088,6.412516206270158,0.1209435740861667
29.625172,6.418208846868969,0.120754263100388
29.6292,6.421664154118015,0.1206184862010169
29.63328,6.426249545717477,0.1205088084837452
29.637356,6.432640788742495,0.1204294824271506
29.641392,6.443640258718039,0.1203423736498423
29.645484,6.4601451725191215,0.1202366091330546
29.649536,6.473969853370702,0.1202125365276194
29.653568,6.494750819422507,0.120124882797262
29.657664,6.521369403999655,0.1199988291183474
29.66176,6.548896623127349,0.119913983270142
29.665859999999995,6.581818561180646,0.1198209403290105
29.6699,6.617554292434446,0.1197406507750135
29.673992,6.653301441363778,0.1197099684370218
29.67808,6.693767542143573,0.1196651038788702
29.682172,6.7409684783237225,0.1195737412805895
29.68626,6.791991149479324,0.1194781662355163
29.690352,6.847400597785578,0.1193923328668065
29.694444,6.903497230842511,0.1193638509732298
29.698536,6.964534265549776,0.119312094475021
29.702624,7.035219236082302,0.1191728465334107
29.706716,7.106690698589903,0.119033286390886
29.710812,7.179845869947593,0.1188855101620238
29.714908,7.253443940905023,0.1187140697249115
29.719004,7.329046477736813,0.1184709438481185
29.723099999999995,7.402843163143047,0.1182056700163327
29.727196,7.4750554469235935,0.1179050940949448
29.731283999999995,7.550280138353447,0.1175213127828352
29.735375999999995,7.619445761458088,0.1171907580091825
29.739467999999995,7.686584083337303,0.1168550660702298
29.743556,7.751916553790961,0.1164955397268918
29.74764,7.818466998143903,0.1160790814568756
29.751724,7.885116749721247,0.1156203549137592
29.755816,7.951865808522993,0.1151175060676465
29.759904,8.014117365274148,0.1146139953129948
29.763996,8.071760695074774,0.1141196728378023
29.768084,8.124685073024938,0.1136343646752106
29.772176,8.173444123624318,0.1131321012050927
29.776264,8.220618772598009,0.1125979983577019
29.780316,8.26285301992137,0.1120891507987429
29.784408,8.300700490094071,0.111577927588012
29.7885,8.337750050616163,0.11103253593152
29.792596000000003,8.369294167312718,0.1104967046159041
29.796692,8.39870025788391,0.1099566167189965
29.800724,8.422833772104966,0.1094555722940618
29.804816,8.44180543487582,0.1089839346067209
29.8088,8.460212055471466,0.1085054654658352
29.812884,8.47312464991711,0.1080755918457334
29.816920000000003,8.488717477312257,0.1075891932255919
29.820996,8.500942887007222,0.1071196355467353
29.82504,8.512603254526981,0.1066410794604155
29.829116,8.515070003496753,0.1062393955494209
29.8332,8.51226417611639,0.1058701791007229
29.837276000000003,8.508782581660885,0.1054972793289239
29.841352,8.507538320555144,0.1050899850082432
29.845436,8.50651550924927,0.1046718928243603
29.849532000000004,8.511651073493008,0.1041803106086415
29.853624000000003,8.514881479086794,0.1037057933940735
29.857708,8.512617858530572,0.1032720179654647
29.861744,8.509113428724,0.1028216759879126
29.865824000000003,8.505608998917426,0.1023725903399294
29.869904,8.499080743786013,0.1019572875034667
29.873988,8.496141356154647,0.1015182967517614
29.878068,8.490288868098375,0.101106551933328
29.882148,8.485333596917119,0.100688027920152
29.886228000000003,8.48744533583602,0.1002298118841677
29.890316,8.486422524530145,0.0998107117022596
29.894392000000003,8.486186205199349,0.0993905545993597
29.898476,8.480688727193948,0.0990370356892395
29.90256,8.47720713273844,0.0986615696361331
29.906636,8.474401305358077,0.0982922472657359
29.91072,8.475073620577824,0.0979052685093547
29.914808,8.478216136622738,0.0975120679956251
29.918892,8.480239985992771,0.0971363002491084
29.922976,8.479129285138026,0.0967987044360671
29.927072000000003,8.478805076258359,0.096461999727488
29.931168,8.472211766929142,0.0962012719584124
29.935252,8.469207325099974,0.0959198359368378
29.93934,8.473491343170833,0.0955920887961234
29.943424,8.48383442956691,0.0952417359428734
29.9475,8.4930588492881,0.0949084618857366
29.951592,8.504077702759316,0.0945650734134547
29.955676,8.514088614455586,0.0942331912593414
29.959764,8.528474885626979,0.0938823925377375
29.963852000000003,8.54252898209857,0.0935475490974674
29.96794,8.552207719095037,0.0932335407009883
29.972032,8.564688831616472,0.092899960068182
29.97612,8.576162002362961,0.0925758812928976
29.980216,8.59065899843429,0.0922206719328575
29.984312000000003,8.602807936255921,0.0919027690353205
29.988404000000003,8.612265223452516,0.0915992802318416
29.9925,8.621046743573968,0.0912899461085318
29.996588000000003,8.629152496620279,0.0909747199589964
30.000680000000003,8.63355865726661,0.090682444922585
30.004776,8.64188586011279,0.0903560675968331
30.008868,8.649205121184023,0.0900406555308722
30.012964000000004,8.657078006754933,0.0896973023203205
30.017056000000004,8.66259141640061,0.0893526109314127
30.021152,8.664737408346111,0.0890172030917279
30.025248,8.660492157266596,0.0887188149389064
30.02934,8.654452472437054,0.0884285231705173
30.033436,8.651436612932352,0.0881105899168228
30.037524,8.648531478327588,0.0877875567250325
30.04156,8.642369650922578,0.0874654944846843
30.045588,8.64225547416725,0.0870890630494247
30.049672,8.640236138761964,0.0867247357585808
30.05376,8.637651761181468,0.0863494434469343
30.057856,8.63887770090089,0.0859481283165608
30.061944,8.638198481970356,0.0855594460656916
30.066036,8.636843495964678,0.0851632468808162
30.070072000000003,8.636496451733946,0.0847569952391202
30.07416,8.638165291053108,0.0843331096232636
30.0782,8.640731347247284,0.0839054740046277
30.082296,8.65091803804129,0.0834274078538925
30.086384,8.658302353310326,0.0829673075552391
30.090472,8.662995017954328,0.0825174102626994
30.094520000000003,8.673181708748334,0.0820425007067026
30.098616,8.682925499942602,0.0815881519861973
30.102656000000003,8.691439899562054,0.0811533607336113
30.106684,8.70096224095645,0.0807091612375811
30.110728,8.710484582350848,0.0802636462757766
30.114824,8.717204548220272,0.0798363429838767
30.118904,8.723138022114624,0.0794076707122426
30.123,8.734565522158979,0.0789558740400183
30.127028000000003,8.738483112503435,0.0785476678587693
30.13106,8.748116178797767,0.0781057448792625
30.135040000000004,8.756519853517283,0.0776827130789808
30.13912,8.76323981938671,0.0772626378315237
30.1432,8.77085700213115,0.0768386831811884
30.1473,8.782505951975377,0.0763834378940917
30.1513,8.796957277344573,0.0759158818022243
30.15534,8.80928199426394,0.0754704943197173
30.15938,8.822725377858188,0.0750139962135488
30.16342,8.831571952177447,0.0745793276247489
30.167520000000003,8.841315743371714,0.0741422852445048
30.171552,8.858790894065752,0.0736612721943439
30.175592,8.87155851058486,0.0732062876173139
30.179624,8.888579344003626,0.0727140089144353
30.183716,8.905710902322324,0.0722168280164265
30.187804,8.92485834419092,0.0717064852376324
30.1918,8.949831986909322,0.0711649856972508
30.195884,8.975592121602803,0.0706283830132746
30.199968,9.00494112379633,0.0700857693981061
30.20406,9.028574650039983,0.0695743265637362
30.208148,9.053105393158646,0.0690593274927668
30.21224,9.073825818977395,0.0685656826800255
30.216328,9.095664911471024,0.0680611364229125
30.220416,9.119519887514548,0.0675461231301047
30.2245,9.145280022208029,0.0670235867267793
30.228584,9.169921490226626,0.0665165603729186
30.232676,9.19657884179512,0.0660018947910548
30.236764,9.226370743588388,0.0654655274153453
30.240844000000003,9.259972962681571,0.0649192981055105
30.244928,9.294361673749831,0.0643774832410485
30.249004,9.32997977639291,0.0638233219412177
30.253084,9.359882403086116,0.0632979480315494
30.257168,9.390792971554264,0.0627677688999403
30.261252,9.415655889372731,0.0622761040916214
30.265332,9.440518807191202,0.0617848522290985
30.269412000000003,9.46336584145978,0.0613073270821332
30.273492,9.480608124678415,0.0608499581754458
30.277576000000003,9.493364323521993,0.0603989062581556
30.28166,9.501412988190635,0.0599646415243705
30.285748,9.511477536409176,0.0595187177818382
30.289836,9.52333651837774,0.0590702898696814
30.293916000000003,9.536314167021184,0.0586123151532921
30.298,9.547386657014671,0.0581612728862148
30.302084,9.550727787508391,0.0577408368206234
30.306168,9.55260665895189,0.0573097053454733
30.3102,9.54977799622046,0.056891923131815
30.314280000000004,9.533834672739191,0.0565084665252038
30.318356,9.51094648173323,0.056157513100902
30.322388000000004,9.474611455277625,0.0558538604208067
