Time,Force,Position
2.82432,15.207869125188768,0.1403721298927154
2.828403999999999,15.201684462432691,0.140167604885246
2.832495999999999,15.19549979967662,0.139963089642533
2.8365839999999984,15.191552470270308,0.1397338635315301
2.840671999999998,15.18749441596406,0.1395080683704044
2.8447599999999973,15.187246678957736,0.1392540375696866
2.8488480000000003,15.19339018497642,0.1389589208549535
2.852936,15.201328124745135,0.1386538384484357
2.8570199999999986,15.209155339613911,0.1383529368917574
2.861107999999998,15.220571421982738,0.1380307070022275
2.8651920000000004,15.232663271426704,0.1377100077405297
2.8692879999999974,15.245430887945812,0.137390395107148
2.8733760000000004,15.256071896015092,0.1370917919680911
2.8774719999999974,15.2714204382593,0.1367603565480344
2.8815639999999973,15.291476514678438,0.1363956441627349
2.8856559999999973,15.304919898272688,0.1360784912234952
2.889751999999998,15.32094420759204,0.1357502268666955
2.893843999999998,15.34235181816146,0.1353913490597188
2.8979399999999984,15.364435195806026,0.1350354981545033
2.902035999999999,15.388534457000484,0.1346641373735197
2.906127999999999,15.414428151944968,0.1342840017492978
2.910219999999999,15.441673381039733,0.1339081523850887
2.9143159999999995,15.471720985659468,0.1335156944536208
2.9184079999999994,15.505136007979385,0.1331114112830932
2.9224999999999994,15.538440305399364,0.1327110733059778
2.926596,15.56894222729437,0.1323299985398983
2.9306920000000005,15.597649715439356,0.1319606880578142
2.9347840000000005,15.6233333782595,0.1316165691823899
2.938883999999998,15.646890432629815,0.1312923707549354
2.942975999999998,15.67145542877508,0.1309615593623082
2.9470719999999986,15.694115266270384,0.1306434334159955
2.951172,15.718569537515712,0.1303161176902623
2.955264,15.742913083861106,0.1299918594629589
2.95936,15.768153847081509,0.1296648697644643
2.963455999999997,15.795078319152005,0.1293333579159671
2.9674879999999995,15.828504759147451,0.1289635249549314
2.9715799999999994,15.858120881842982,0.1286198988689592
2.975667999999999,15.883926687238592,0.1283022510429727
2.979759999999999,15.912534868159176,0.1279701290038414
2.983851999999999,15.93901644062993,0.1276578054556168
2.987943999999999,15.963371404650855,0.127364969987111
2.9920319999999982,15.984358950971604,0.1270843600292023
2.9961199999999977,16.001536179992435,0.1268288818668634
3.0001999999999995,16.018713409013266,0.1265749557495557
3.0042919999999995,16.03488269625915,0.1263286407059421
3.0083839999999995,16.055538067880093,0.1260612133806206
3.0124679999999984,16.080003756800956,0.1257719876300438
3.016551999999997,16.105698837296632,0.1254694052335956
3.0205839999999995,16.132512584467193,0.1251564971815725
3.024671999999999,16.157310448087856,0.1248594460692616
3.0287599999999983,16.18714802058326,0.1245264055129999
3.032843999999997,16.218104259753538,0.1241844004584877
3.036932,16.253092266023607,0.1238144010683858
3.041015999999999,16.282254071443862,0.123482539296517
3.045043999999997,16.30883495113902,0.1231617039950656
3.049128,16.331716238434193,0.1228621604247857
3.0532119999999985,16.359526509704164,0.1225310453857092
3.0572959999999973,16.389463389423966,0.1221831565737402
3.061375999999999,16.410993142568856,0.1218820307935207
3.065459999999998,16.433420112588756,0.1215773976104907
3.069499999999998,16.458084415958425,0.1212535826184729
3.073591999999998,16.487345528603083,0.1209074087816816
3.0776799999999973,16.518511799897702,0.1205507218889036
3.0817680000000003,16.545978478792335,0.1202141468733981
3.085851999999999,16.574563824361853,0.1198677894917946
3.089931999999997,16.60056824420627,0.1195322952914295
3.094012,16.62085718810081,0.1192308180307398
3.098095999999998,16.64282984084544,0.1189254225658099
3.102176,16.668502085990053,0.1186030171988618
3.106259999999999,16.696079489784623,0.1182709167416249
3.110339999999997,16.724221935754397,0.117946228615188
3.114424,16.751467164849167,0.1176267196105453
3.1184999999999974,16.775688568619092,0.1173284291209041
3.1225799999999992,16.807641331888785,0.1169867749929742
3.126663999999998,16.839261920458675,0.1166543358694209
3.130744,16.869874567253618,0.1163287715519255
3.134827999999999,16.89577967987363,0.116028762665228
3.1389159999999983,16.922471284468724,0.1157292027702215
3.142999999999997,16.953083931263667,0.1154060273870019
3.1470959999999977,16.984028752758412,0.1150753720105264
3.1511879999999977,17.011949748928316,0.1147650196002483
3.155275999999997,17.03538466072317,0.1144734537773752
3.1593719999999976,17.05893029741795,0.1141799663721199
3.163467999999998,17.083594600787617,0.1138774972289804
3.167551999999997,17.11318788813208,0.1135479227323668
3.1716359999999995,17.141883958601536,0.113222772390804
3.175711999999997,17.17281736242075,0.1128800516738016
3.1798,17.204082940939767,0.1125306450226286
3.183892,17.228170784458694,0.1122093254627938
3.18798,17.251582860902474,0.1118870305373613
3.192067999999999,17.26893586902105,0.1115835171815656
3.1961559999999984,17.286399602039555,0.1112781181328481
3.2002479999999984,17.305314176432745,0.1109561804153013
3.2043479999999995,17.317837507800917,0.1106612332899044
3.2084399999999995,17.331922405443713,0.110346943351437
3.212536,17.35014979508623,0.1100066802721542
3.216628,17.366693475878655,0.1096697572931538
3.220723999999997,17.381885622520798,0.1093292108697743
3.2248199999999976,17.39841788563769,0.1089752948344635
3.2289119999999976,17.414052931879574,0.1086253461584162
3.233003999999997,17.432822528346232,0.1082556413240455
3.237091999999997,17.45551316701274,0.1078658760901422
3.24118,17.47562287995415,0.1074831498963659
3.245272,17.499875084895283,0.1070762269020264
3.24936,17.518633263686407,0.1066922394654253
3.253447999999999,17.535707733627444,0.1063117318631342
3.257535999999998,17.547066727618606,0.105957192047278
3.261619999999997,17.555623346084793,0.1056150883734352
3.265708,17.568666048926044,0.1052577853132939
3.269791999999999,17.576214725617284,0.1049207883532426
3.273875999999998,17.589146703558598,0.1045663578750597
3.27796,17.6011814646249,0.1042155885519359
3.282043999999999,17.611986834116387,0.1038765673949863
3.286127999999998,17.622005711632795,0.1035372291360319
3.2902120000000004,17.630684472674453,0.1032122103834637
3.2942959999999992,17.637347350166216,0.1028994896955493
3.298387999999999,17.64972570360786,0.1025620228364759
3.302475999999998,17.6626690992247,0.1022304668301264
3.306559999999997,17.676964028991833,0.1019053005116452
3.310644,17.69215617563398,0.1015780502116723
3.314732,17.704435221851217,0.1012650681630383
3.3188199999999988,17.71425548491882,0.1009741607311476
3.322907999999998,17.72575945683651,0.100680498506909
3.326999999999998,17.729986386529713,0.100430054919179
3.3310879999999976,17.736683517048075,0.1001772438075479
3.335183999999998,17.748874673716443,0.0999064882926764
3.3392719999999976,17.768243565384907,0.0996145148233853
3.343359999999997,17.78907471610359,0.0993255687607749
3.347459999999998,17.810692358797347,0.099037589835001
3.351555999999998,17.841282170241225,0.0987240918835486
3.355651999999999,17.86795093948525,0.0984297381402073
3.359743999999999,17.896303417579364,0.0981338613079321
3.36384,17.925553112548492,0.0978362203421772
3.3679360000000003,17.95906744209281,0.0975315232179191
3.372035999999998,17.99549487206203,0.0972153735822241
3.3761319999999984,18.0334952859814,0.0969009559775826
3.3802679999999974,18.070155583426025,0.0966011987925659
3.3843599999999974,18.106705155970715,0.0963050340307745
3.388455999999998,18.142136061840525,0.0960179279319803
3.3925519999999985,18.17712406811059,0.0957419355944861
3.3966439999999984,18.2157009418807,0.0954574302607074
3.4007359999999984,18.256293699200707,0.0951639087013109
3.404831999999999,18.30148326579571,0.0948579247781555
3.4089199999999984,18.34969665771556,0.0945370853174643
3.413007999999998,18.398585816710536,0.094220745463557
3.417099999999998,18.44523764235576,0.0939211982040746
3.421191999999998,18.489984309351023,0.0936300922933897
3.4252879999999983,18.53506315104609,0.0933325822172457
3.4293759999999978,18.582268601190997,0.093025192787192
3.4334719999999983,18.62689312561078,0.0927242595729792
3.437567999999999,18.67521724243056,0.0924130275610964
3.441668,18.722533417475397,0.0921077889310826
3.4457640000000005,18.769628142720357,0.0918085125447945
3.4498560000000005,18.819746693290156,0.0914977515449426
3.453955999999998,18.86885730208501,0.0911934683560478
3.458047999999998,18.91247388472986,0.0909047618154938
3.4621439999999986,18.95239087497472,0.0906273413618432
3.466244,18.992418590119524,0.0903484522416615
3.47034,19.028181670689136,0.0900753794220329
3.474435999999997,19.065284867733496,0.0897915787222126
3.478527999999997,19.09868847237788,0.0895192322963252
3.4826239999999977,19.126819500672124,0.0892567915660857
3.4867199999999983,19.14923505301649,0.0890146486474989
3.490815999999999,19.17276927203574,0.088766276142975
3.494916,19.19013369782984,0.0885295188294251
3.499008,19.20222554727381,0.0883021855745146
3.503107999999997,19.215657513192525,0.0880639578745072
3.507199999999997,19.227970812436368,0.0878328863842558
3.511295999999998,19.236473794380284,0.0876150810203496
3.5153919999999985,19.241277183924225,0.0874075260352751
3.519487999999999,19.24271315576798,0.0872031547781545
3.523584,19.240560260111693,0.0870062219816192
3.527683999999997,19.2378423222802,0.0868042112533725
3.531775999999997,19.22940890849883,0.0866208341318533
3.5358719999999977,19.2164894103424,0.0864465653075734
3.539971999999999,19.20849889616077,0.0862535949147499
3.544068,19.204429424178983,0.0860462985152872
3.548164,19.199573460222133,0.0858386183397558
3.5522600000000004,19.19830636376533,0.0856236435315341
3.5563559999999974,19.194236891783547,0.085416569193909
3.5604479999999974,19.189491652726627,0.0852063559486576
3.564543999999998,19.193042815344683,0.0849758250218728
3.5686399999999985,19.199839253087443,0.0847286651569008
3.5727319999999985,19.20383331530524,0.0844891595662747
3.576827999999999,19.217353170772824,0.0842213386676006
3.580928,19.239390877715252,0.0839294381605961
3.585023999999997,19.25862620913272,0.0836456209339821
3.5891199999999976,19.279090932124998,0.0833537519172389
3.593215999999998,19.29887988804213,0.0830592384166087
3.597307999999998,19.32247916125918,0.0827540161400181
3.6014039999999987,19.346299884276107,0.0824444792010013
3.605504,19.375049591267828,0.0821180009078983
3.6096,19.401107647634515,0.0817964516927793
3.613695999999997,19.42940303735097,0.0814630674969157
3.617791999999998,19.45960358571737,0.0811240696299409
3.6218879999999984,19.48812042523369,0.0807870870249067
3.625983999999999,19.514167063924845,0.0804510643901953
3.63008,19.54111091949101,0.0801142828205603
3.634176,19.567379007982037,0.0797752190771741
3.638271999999997,19.59487648804787,0.0794282548677163
3.642371999999998,19.628986660938597,0.0790653719669657
3.646467999999999,19.65793498237912,0.0787084317566499
3.6505639999999993,19.684191653194613,0.0783568555885921
3.6546559999999992,19.713472149334944,0.0779946681286384
3.658756,19.73333757712542,0.077656740087843
3.662848,19.74490660324092,0.0773365868206608
3.666947999999998,19.76140461333121,0.0770015567243636
3.671039999999998,19.7749895229966,0.0766753770442639
3.675139999999999,19.789250199737136,0.0763525901655346
3.679236,19.801605717827712,0.0760354550074868
3.683332,19.81463700299343,0.0757217724345845
3.687424,19.8246444628343,0.0754192510219165
3.691519999999997,19.84205110747514,0.0751027097826328
3.6956159999999976,19.85934702721605,0.0747892544856297
3.699715999999999,19.879445322481924,0.0744704675716863
3.703807999999999,19.900108659923006,0.0741577626356222
3.707908,19.92223425641431,0.0738497711127254
3.712004,19.94278686895546,0.0735403586525094
3.716099999999997,19.96412597347169,0.0732326272852892
3.720191999999997,19.98625156996299,0.072926678214454
3.724287999999998,20.00355890737943,0.0726344176285091
3.728387999999999,20.02031262029619,0.0723532668394461
3.732484,20.035615491838268,0.0720841512948894
3.736576,20.051594130455484,0.0718191111786019
3.740672,20.07116163657275,0.0715494516675526
3.7447719999999975,20.098017602590048,0.0712693233409626
3.7488639999999975,20.1189366428576,0.0710074777645765
3.752963999999999,20.143776725325,0.0707353438007948
3.757055999999999,20.170743416242235,0.0704554228456506
3.761156,20.196812890284452,0.0701769333363184
3.765252,20.22478752297664,0.0698950737811011
3.769347999999997,20.255785980993657,0.0696044479912811
3.773439999999997,20.28409278838564,0.0693185682956909
3.777535999999998,20.310494437127662,0.0690373681780744
3.7816319999999983,20.334990927219728,0.0687610546236683
3.785727999999999,20.361614025761614,0.0684775279096888
3.789828,20.38756135722837,0.0681913342610202
3.79392,20.412279297120307,0.0679125770214803
3.7980199999999975,20.434305586387204,0.0676369010758861
3.8021119999999975,20.454426717004143,0.0673656276975278
3.806207999999998,20.473539905846145,0.0670976216595048
3.810303999999999,20.495787644912912,0.0668190742043481
3.814404,20.52139138400433,0.0665255838049466
3.818496,20.546319356020604,0.0662297334040711
3.822592,20.571468777836746,0.0659301721876895
3.826687999999997,20.591234898402817,0.0656363976679792
3.8307839999999977,20.6118982358439,0.0653417630843144
3.834883999999999,20.63166435640997,0.0650489233612938
3.838975999999999,20.64963604322602,0.0647584816451284
3.843072,20.667607730042064,0.0644681793121849
3.847168,20.685690141758048,0.064176832957958
3.8512679999999975,20.698057077524155,0.0638963331194502
3.855363999999998,20.703811320465377,0.0636271453224896
3.859455999999998,20.70777112965657,0.0633591616898923
3.863551999999999,20.71004722999768,0.0630905175897675
3.867647999999999,20.704924145538826,0.0628315882643938
3.871744,20.70282488640481,0.0625648957903367
3.875843999999997,20.705654611245592,0.0622869018220758
3.879935999999997,20.713524044961105,0.0619957778726242
3.8840319999999977,20.721614928476487,0.0617006022741432
3.8881279999999983,20.730037986691677,0.0613992956549209
3.892223999999999,20.7365558862569,0.0611018977089614
3.896324,20.745543986647306,0.0608078199629551
3.900416,20.755540028812643,0.0605119277334429
3.904515999999997,20.766654737652868,0.0602119387771353
3.908607999999997,20.77654005491828,0.059918252913505
3.912703999999998,20.790567864183405,0.0596128772844798
3.916803999999999,20.803477006773655,0.059312639406431
3.9209,20.81627542446397,0.0590148537388539
3.924992,20.83120045060412,0.0587104208888667
3.929088,20.84354455101916,0.0584060752438784
3.9331879999999977,20.86171485228401,0.0580909466464617
3.9372799999999977,20.88750578814869,0.057764252483356
3.941375999999998,20.91789353328837,0.0574336832373981
3.945471999999999,20.95377530457806,0.057099463421222
3.949572,20.994143160242807,0.0567629605279456
3.953668,21.03047924880776,0.0564373557569922
3.957763999999997,21.06379151204788,0.0561201714000334
3.961855999999997,21.095763658813247,0.055812912887089
3.965956,21.129308789528768,0.0555095382599028
3.970048,21.166442787744337,0.0552057612073222
3.974148,21.200663685535,0.0549072014758882
3.978244,21.227485398525697,0.0546158734291592
3.982339999999997,21.24825946086672,0.0543386181314542
3.986431999999997,21.266906914757904,0.054068430777678
3.9905279999999976,21.29048335262389,0.0537890846984392
3.994627999999999,21.305320489215163,0.0535243655417708
3.9987239999999993,21.31937113383136,0.0532581984259647
4.002815999999999,21.331295169997727,0.0529985612924617
4.006916,21.342776306564357,0.0527473665820147
4.011008,21.3553875274814,0.0525077571796048
4.015107999999998,21.366658631923688,0.0522768725120576
4.0192039999999984,21.37277930259131,0.0520592266161686
4.023295999999998,21.378002756383925,0.0518423071025608
4.027396,21.37650279245171,0.0516348830936562
4.031488,21.372089728094597,0.0514317724615197
4.035584,21.365439330387712,0.0512365524932297
4.039683999999998,21.355875832255933,0.0510455703148985
4.043775999999998,21.344185725674315,0.0508609431232737
4.047871999999998,21.330590460442743,0.0506785714123998
4.051967999999999,21.312963428111388,0.0505046834923262
4.056063999999999,21.298925263280072,0.0503300105591044
4.06016,21.28466564864889,0.0501586175822759
4.064256,21.27331913444262,0.0499825438578168
4.068355999999998,21.258948794911504,0.0498123148210599
4.072447999999998,21.240768138080472,0.0496463709526315
4.076543999999998,21.225954898949613,0.0494832965662035
4.080639999999999,21.2068884429191,0.0493319176021624
4.084736,21.188829928663537,0.0491782085323538
4.088835999999997,21.166063880233043,0.0490285935419425
