Time,Force,Position
6.002936,23.65969561152972,0.1422169345809369
6.006959999999999,23.733878108158024,0.1419776279360388
6.010987999999999,23.7977254842104,0.1417607693290499
6.01502,23.857739707611785,0.141536074040752
6.019039999999999,23.91011046106228,0.1413220024368267
6.023064,23.956521453411955,0.1411136052934171
6.027087999999999,23.9954111183862,0.1409274750666406
6.031111999999999,24.03070049818487,0.1407426448342047
6.03514,24.069678052707985,0.1405286176152419
6.039164,24.105288189530924,0.1403252702122736
6.043196,24.137530908653684,0.1401327756234721
6.047231999999999,24.17122446915113,0.1399264872862844
6.051259999999999,24.20132916214853,0.1397343916433911
6.055287999999999,24.2310902627706,0.1395358709072628
6.059327999999999,24.264539538117106,0.1393084957993228
6.063352,24.295629337538383,0.1390855932272702
6.067375999999999,24.32223305258461,0.1388800305751239
6.071403999999999,24.34457213305564,0.1386875626618473
6.075431999999999,24.37094298062646,0.1384736041490868
6.079455999999999,24.391819802047277,0.1382821885481074
6.08348,24.40372445471797,0.1381245565546237
6.087511999999999,24.41797716563836,0.1379500004286903
6.091536,24.43177555928349,0.1377703949355475
6.095568,24.440301376578475,0.1376087170558943
6.099599999999999,24.44826215169825,0.1374439747754912
6.103627999999999,24.455547159742885,0.1372784198924206
6.107659999999999,24.461591358537177,0.1371090015268815
6.111687999999999,24.46382524003154,0.1369570943554531
6.11572,24.463588920700744,0.1368113565673762
6.119748,24.46368477606975,0.1366595092578751
6.123771999999999,24.457389388413745,0.136532783679027
6.127796,24.451991217632745,0.1364028855635443
6.131819999999999,24.447711713526637,0.1362654917011207
6.135847999999999,24.43940044232073,0.1361495870059317
6.139871999999999,24.42716812891498,0.1360530527035541
6.143891999999999,24.41504654040916,0.1359543825073207
6.147927999999999,24.4074110362784,0.1358394343059174
6.151947999999999,24.40134851609779,0.1357220709389571
6.15598,24.39024628704245,0.1356313381500671
6.160008,24.380938491737133,0.1355340082050553
6.164035999999999,24.380037823006727,0.1354012282508884
6.168075999999999,24.37611332895148,0.1352844605476965
6.172099999999999,24.373307501571112,0.1351603009512524
6.176131999999999,24.374311991490664,0.1350189451294613
6.180159999999999,24.37588152358543,0.1348804924051449
6.184184,24.380031981405292,0.1347345923169188
6.188208,24.38654191515039,0.1345853237035655
6.192235999999999,24.398767324845352,0.1344106973299764
6.196259999999999,24.409541893165635,0.1342498684206071
6.200284,24.41628469438613,0.1341100746868224
6.204307999999999,24.43042668040659,0.1339406097184405
6.208331999999999,24.44367144955204,0.1337747543272355
6.212356,24.45702694359742,0.1336070006101178
6.216379999999999,24.476651538092348,0.1334041865138628
6.220407999999999,24.501205116562083,0.1331780159368748
6.224435999999999,24.522956319506843,0.1329632427087953
6.228479999999999,24.54145082965136,0.1327552504012672
6.232507999999999,24.56027751449568,0.1325413189509799
6.236535999999999,24.58156298248964,0.1323088377632045
6.240575999999999,24.606093725608304,0.1320572228890899
6.2446,24.626027659451974,0.1318237840839355
6.248624,24.64528582622051,0.131589217542056
6.252651999999999,24.670259468938912,0.1313312489422648
6.256679999999999,24.698146212082214,0.1310608511309725
6.2607,24.73129411390013,0.1307619005014013
6.264723999999999,24.76186108999294,0.1304704755141246
6.268759999999999,24.794997574135323,0.1301599661474545
6.272784,24.82476664057752,0.1298581283435746
6.276812,24.8525084057943,0.129553045815708
6.280895999999999,24.882708954160712,0.1292296706742315
6.284979999999999,24.90943135992701,0.1289168636466734
6.289064,24.9326756230932,0.1286139708511498
6.293147999999999,24.958046494709208,0.1282998489896508
6.297236,24.978709832150287,0.1280053293404077
6.301323999999999,24.992981926566355,0.1277336837517166
6.305411999999999,25.01016712140732,0.1274492046104827
6.309503999999999,25.029368199798192,0.1271553029945953
6.313587999999999,25.051593103513884,0.1268475926440463
6.317672,25.072810065454647,0.1265450165598613
6.321755999999999,25.092121868745448,0.1262508504023711
6.32584,25.115576164035968,0.1259360951220371
6.329927999999999,25.14317295132621,0.1256006188078095
6.334012,25.16236261204154,0.1252973013107148
6.338099999999999,25.17627969640673,0.125009167095572
6.342196,25.18369481284698,0.1247448860800649
6.346288,25.192450045761976,0.1244700976465839
6.350375999999999,25.19426041115228,0.1242265598270839
6.354472,25.196181501442517,0.1239810575410489
6.358563999999999,25.201580734332865,0.1237265826331771
6.362651999999999,25.209671617848247,0.1234642854189358
6.366743999999999,25.216976009388556,0.1232026659679186
6.370832,25.22820144312871,0.1229243768714541
6.374924,25.233932850718865,0.1226643436669672
6.379019999999999,25.23865631653407,0.1224088786512571
6.383115999999999,25.244387724124223,0.1221484681704045
6.387215999999999,25.25123779838925,0.1218817758966571
6.391311999999999,25.257079930879343,0.1216200661253297
6.395403999999999,25.25799307939464,0.1213797642636852
6.399503999999999,25.26193005323477,0.121125946366493
6.403599999999999,25.265867027074897,0.1208723267335371
6.407691999999999,25.263645625365417,0.1206482205985868
6.411788,25.258068223631287,0.1204437773128977
6.415884,25.25540392232207,0.1202275180907443
6.419979999999999,25.258798689338057,0.119997221902373
6.424076,25.26645809092923,0.1197579829409812
6.428172,25.274682534695614,0.1195223248503786
6.432267999999999,25.291535554836784,0.1192543378670044
6.436368,25.31018300872797,0.1189816628662596
6.440463999999999,25.329838404394103,0.1187052736464638
6.444555999999999,25.34646997473541,0.1184426510931862
6.448656,25.368595571226702,0.11816371250003
6.452748,25.390278268118266,0.1178930740019272
6.456843999999999,25.418130758234977,0.1176072830581367
6.460939999999999,25.448674898976726,0.1173143650302371
6.46504,25.48179996544357,0.1170163133444056
6.469135999999999,25.515600798985563,0.1167205675374868
6.473227999999999,25.549401632527548,0.1164253530492782
6.477328,25.584210407844488,0.1161258160792864
6.481423999999999,25.618687008461613,0.1158331085745061
6.485515999999999,25.65574453480385,0.1155360095455265
6.489616,25.694928669595907,0.1152282388762324
6.493708,25.736017963037927,0.1149141761315064
6.497803999999999,25.775767140005197,0.1146104481891761
6.501899999999999,25.811140957497337,0.1143176381010784
6.505999999999999,25.8457282830144,0.114026122107497
6.510091999999998,25.882220767181423,0.1137290765380797
6.514187999999999,25.91176838382376,0.1134604157060551
6.518284,25.93807072534138,0.1132083132134037
6.52238,25.96213573350924,0.1129688782131777
6.526475999999999,25.99101900075196,0.1127130771869464
6.530576,26.014973284019888,0.1124768168606615
6.534668,26.037133133537782,0.1122453610296275
6.538763999999999,26.05570411555564,0.112023427028581
6.542859999999999,26.07348860559842,0.1118022683789322
6.546956,26.094075471166164,0.1115733276893757
6.551051999999999,26.112867902983886,0.1113492977762089
6.555147999999999,26.131328160101813,0.1111310501075007
6.559244,26.151582850969756,0.1109086760649375
6.563343999999999,26.17015383298761,0.1106893261058548
6.567432,26.182222847080507,0.110489032287138
6.571524,26.197094236698376,0.1102807003362691
6.575624,26.20949542549108,0.1100753283363861
6.57972,26.22189661428379,0.1098699341065994
6.583815999999999,26.23497357015164,0.1096661831789136
6.587916,26.249169192694367,0.1094571287023825
6.592011999999999,26.26157038148707,0.1092529068843627
6.596112,26.27520096185459,0.1090410101357833
6.600204,26.2928633093219,0.1088135623623913
6.604299999999999,26.31063638168915,0.1085844895702637
6.608395999999999,26.32560707853142,0.1083642819821758
6.612492,26.342815108723457,0.1081328973586576
6.616591999999999,26.361031080690445,0.1078977725308545
6.620683999999999,26.380930761507518,0.1076605758831692
6.62478,26.400608992524717,0.1074272810828601
6.628871999999999,26.41479319739191,0.107208547642454
6.632971999999999,26.427072243609143,0.1069957345140235
6.637072,26.439683464526187,0.10677769999392
6.641167999999999,26.45341335211811,0.1065545471643022
6.645263999999999,26.465127356160146,0.1063390681751966
6.649355999999999,26.482667561051983,0.1061043959220865
6.653455999999999,26.499421273968743,0.1058705244350048
6.657551999999999,26.519763854385555,0.1056290183621686
6.661643999999999,26.54435965170203,0.1053694218067557
6.665744,26.570184840593317,0.1051029663954379
6.669836,26.59320765395963,0.1048446765181253
6.673931999999999,26.612641599825896,0.1045943121365411
6.678027999999999,26.63409142924205,0.1043368499030157
6.682127999999999,26.654754766683137,0.1040802106279505
6.686223999999999,26.67485306194901,0.1038203722522755
6.690315999999999,26.690243823039957,0.1035735997229555
6.694412,26.70664252590585,0.1033237950168146
6.698507999999999,26.72438134524649,0.1030654745989557
6.702603999999999,26.74155512241193,0.1028041171623674
6.7067,26.760855508027195,0.1025342444627762
6.710795999999998,26.78217177719236,0.1022572732119408
6.714896,26.80550392990741,0.1019731790349725
6.718992,26.82984402439741,0.1016860089273823
6.723084,26.852057510437582,0.1014083374526068
6.727183999999999,26.876397604927583,0.1011218897913263
6.73128,26.898721815867688,0.100843167598893
6.735375999999999,26.92194324368281,0.1005633932350052
6.739471999999999,26.944378179522847,0.1002843776318162
6.743568,26.96569444868801,0.1000115989398912
6.74766,26.98510555920321,0.0997444289114268
6.751755999999999,27.005303161693483,0.0994774521372311
6.755851999999999,27.028081689908863,0.0992069996005357
6.759951999999998,27.04884433457435,0.0989438285237697
6.764043999999998,27.0694962543399,0.0986829469855356
6.768144,27.092729099830557,0.0984191277969188
6.77224,27.122685363046024,0.0981367729514452
6.776332,27.14961780093666,0.0978652190904568
6.780431999999999,27.17790177297757,0.0975980590028891
6.784528,27.207869453868582,0.0973299288049763
6.78862,27.23783713475959,0.0970626991287686
6.792715999999999,27.270496466275628,0.0967913552657795
6.796811999999999,27.306068898216576,0.0965125706550924
6.800908,27.340744113282508,0.0962360426938826
6.805007999999999,27.377656661698207,0.095950213629477
6.809104,27.414347760314037,0.0956682506374645
6.8132,27.453276192279628,0.0953771399397421
6.817292,27.489402248720253,0.0950930762756506
6.821387999999999,27.525528305160872,0.0948097752071856
6.825488,27.5570575523265,0.0945362913021214
6.82958,27.59519949231702,0.0942480848961121
6.833675999999999,27.636586707432244,0.0939478845151998
6.837776,27.678981864322417,0.0936451022397616
6.841868,27.72451157143736,0.0933318659319351
6.845967999999999,27.770373453252112,0.0930145660879467
6.850059999999999,27.81376513424169,0.092699151734647
6.854159999999999,27.85547310638119,0.09238623863852
6.858255999999999,27.89941841187045,0.0920643935147462
6.862352,27.94111496633441,0.0917412752479954
6.866444,27.98145998664809,0.0914153541152577
6.87054,28.020232023011616,0.0910898917650764
6.874635999999999,28.05462869990001,0.0907705522945601
6.878731999999999,28.088349609713276,0.0904505832468376
6.882828,28.121284027551454,0.0901307917617217
6.886923999999999,28.14984308591451,0.089816709910328
6.891019999999999,28.18097165232714,0.0894892938469723
6.895116,28.20851135123972,0.0891678834776822
6.899215999999999,28.235596732877028,0.0888414807899688
6.903307999999999,28.26222779723906,0.0885106046099979
6.907407999999998,28.292779903800948,0.0881698362548052
6.911499999999998,28.31357334963764,0.0878425900625008
6.915595999999999,28.33066720307435,0.0875228715287559
6.919687999999999,28.34831468101073,0.0871957456405156
6.923784,28.362484016347004,0.0868725629003339
6.927883999999999,28.37396170105824,0.0865534562209393
6.931979999999999,28.388684660894185,0.0862231527634541
6.936079999999999,28.399486578530272,0.0859027324547517
6.940171999999999,28.405802411791317,0.0855884988309604
6.944267999999999,28.410434536202256,0.0852752276912378
6.948359999999999,28.41416944373819,0.0849633866442408
6.952459999999999,28.416220642424037,0.0846524396258436
6.956555999999999,28.41939050778476,0.0843370877270373
6.960652,28.42076593939545,0.0840245916040388
6.964744,28.425165196331,0.0837042261641082
6.968843999999999,28.431469611916494,0.083379873064577
6.97294,28.43486092707709,0.0830625909138928
6.977032,28.442062559537604,0.082737957492362
6.981131999999999,28.45105862574814,0.0824112479019283
6.985232,28.458038808408787,0.0820900784955386
6.989324,28.46333528221934,0.0817698651570642
6.993419999999999,28.471888448830136,0.0814497012766353
6.997511999999999,28.479655123465857,0.0811290900861737
7.001612,28.48652458122657,0.0808100490819487
7.005707999999999,28.49608568961231,0.0804880989465511
7.009803999999999,28.506654739773,0.0801635947700188
7.0139,28.514986456583927,0.0798480588523008
7.017996,28.525776956544487,0.0795210247016006
7.022091999999999,28.540156324005096,0.0791898764468125
7.026187999999999,28.554314241665832,0.0788618315375353
7.030287999999999,28.567353492651684,0.0785379940477943
7.034379999999999,28.57916335206273,0.078219677043121
7.038471999999999,28.594451354073875,0.077899606473953
7.042572,28.6030159383602,0.0775922237909182
7.046667999999999,28.606762263571667,0.0772945777671007
7.050763999999999,28.61028713898326,0.0770001274875994
7.054855999999999,28.61280407261991,0.0767081758078411
7.058955999999999,28.608597588531737,0.0764289633331385
7.063051999999999,28.60316171286875,0.0761554113173146
7.067148,28.6004174878308,0.0758791823131883
7.07124,28.59756253789291,0.0756045248978781
7.075336,28.59425327067975,0.0753244942985015
7.079431999999999,28.59072255366672,0.0750473942473915
7.083532,28.58147636070381,0.0747798954558377
7.087627999999999,28.57043573399088,0.0745142529518935
7.091723999999999,28.56107881612804,0.0742485289395487
7.095815999999999,28.54600642231532,0.0739921596707292
7.099915999999999,28.53049112890286,0.0737418514532324
7.104016,28.51037902621541,0.0734969143812021
7.108108,28.492282807077853,0.0732470717863739
7.112203999999998,28.477210413265137,0.0729900874855846
7.116304,28.465161844777263,0.0727258683250722
7.1204,28.44201449908944,0.0724754682415488
7.124495999999999,28.42570129602637,0.0722112345821586
7.128587999999999,28.4114039765132,0.0719420577893765
7.132683999999999,28.39811459877497,0.0716705347230588
7.136775999999999,28.38550098811189,0.0714011356111461
7.140872,28.37950007027369,0.071121616264138
7.144971999999999,28.374728544010303,0.0708367924361225
7.149068,28.36424154179705,0.0705608406663288
7.153167999999999,28.35184938093383,0.0702876585422477
7.157259999999999,28.3408087542209,0.0700190752087132
7.161359999999998,28.331562561257996,0.0697489699258584
7.165451999999998,28.3287076113201,0.0694720343652234
7.169547999999999,28.323726052932383,0.069200939135121
7.173644,28.31515562704462,0.0689326121622838
7.17774,28.31330861888168,0.0686530271292207
7.181835999999999,28.315271928018653,0.0683680475295362
7.185931999999999,28.329452681030457,0.0680673481017848
7.190028,28.34262549226731,0.0677691347177917
7.194123999999999,28.35288520307926,0.0674762102081907
7.198219999999999,28.362469146816064,0.0671811893170691
7.202316,28.386507867777464,0.0668632646352811
7.206415999999999,28.41547557271366,0.0665374811650806
7.210512,28.4471349282749,0.0662106319849513
7.214604,28.481142342085825,0.0658760378427013
7.2187,28.516600597271445,0.0655338857720868
7.222795999999999,28.554517635606697,0.0651832021763159
7.226896,28.594782732191643,0.0648250909360498
7.230991999999999,28.643332812776038,0.0644483819094623
7.235087999999999,28.69714405203504,0.0640594937323102
7.239184,28.75273830736852,0.0636593550719978
7.243276,28.80787824542673,0.0632546115480241
7.247371999999999,28.863571807984616,0.0628438278270814
7.251467999999999,28.91981899504218,0.0624257452730129
7.255564,28.980995166074543,0.0620003339954603
7.2596599999999984,29.041717019831637,0.0615708533067751
7.263759999999999,29.09929290568841,0.06113877584546
7.267851999999999,29.1467779561202,0.0607162572427711
7.271948,29.195713847926665,0.060286863030256
7.276047999999999,29.24576840640801,0.0598546171769857
7.280144,29.29560151508949,0.059426012788829
7.284239999999999,29.33680604739619,0.0590096817012488
7.288335999999999,29.36916055352824,0.0586079117633734
7.292427999999999,29.400163525510003,0.0582021296643705
7.296524,29.426126788617037,0.057805959475412
7.300623999999999,29.45108210994912,0.0574121410204932
7.304715999999999,29.4658472886318,0.0570378272116707
7.308812,29.47131954154009,0.0566820958799824
7.312907999999998,29.46951475222389,0.0563417516575113
7.317007999999999,29.464243237983105,0.0560127487531543
7.321099999999999,29.455394273917808,0.0556962071475482
7.325196,29.445426643177623,0.055382699042886
7.329295999999999,29.432103012412806,0.0550786339046768
7.333387999999999,29.423941233098176,0.0547760505408737
7.337484,29.41163696178383,0.0544817284647814
7.341583999999999,29.398557616169946,0.054197493910777
