Time,Force,Position
5.898859999999996,17.38792961299206,0.136601702694029
5.9029440000000015,17.478537099692723,0.1361160174938137
5.907028,17.557679381467036,0.1356533505354843
5.911108000000002,17.631537669215678,0.1351998353492786
5.915195999999998,17.701020597489194,0.1347724974447628
5.919279999999997,17.777459810962938,0.1343198892263213
5.923359999999999,17.854021167012146,0.1338835139292449
5.927448000000002,17.931922639536108,0.1334342433632816
5.931479999999997,18.007243186334964,0.1329987164124258
5.935559999999999,18.0805364319084,0.1325609032219261
5.939643999999998,18.146762667381672,0.1321577574528524
5.943732000000001,18.20917858555503,0.1317791317431181
5.947811999999995,18.271483778828458,0.1314048019668839
5.951843999999998,18.336137030351576,0.1310107496387098
5.955932000000001,18.39630419749964,0.1306386320026092
5.9600199999999965,18.450301571422557,0.1302951419566139
5.964116000000001,18.498239877020257,0.1299764700875308
5.968208000000001,18.53731673876777,0.129698133164928
5.9722959999999965,18.576836500115032,0.129409750766936
5.9763879999999965,18.61086223531229,0.1291495282107589
5.980476,18.641188378109558,0.1289091345617102
5.984563999999995,18.667826346182373,0.1287063218565347
5.988648000000001,18.694697181730604,0.1285164139839983
6.160624000000002,18.620584253264845,0.1283487037975614
6.164719999999999,18.58909032123517,0.1283434311543408
6.168815999999996,18.558260738605107,0.1283219295390547
6.172907999999996,18.5241744631748,0.1283076319311102
6.177004,18.494341404644143,0.1282618786063042
6.181096,18.47088817146297,0.1281684515407939
6.185191999999997,18.448885779656493,0.1280574893275946
6.189288000000001,18.43258744612436,0.1278971851979486
6.193383999999998,18.42289038774157,0.1276834921069292
6.197483999999999,18.41228469480824,0.1274559149221739
6.201579999999996,18.40424850992448,0.1272013628997113
6.205676,18.39440647361516,0.1269364702138087
6.209771999999997,18.38354507785536,0.1266597040820061
6.2138680000000015,18.37525319014513,0.1263558295648801
6.217963999999999,18.365499043384684,0.1260510631480642
6.222055999999999,18.353274695799065,0.1257520613323788
6.226151999999996,18.347208723763064,0.1254111692313279
6.230248,18.339237593077108,0.125080430319675
6.2343439999999966,18.336084721466012,0.1247225207441016
6.238440000000001,18.33461555870501,0.1243595842159934
6.242535999999998,18.327209470194266,0.1240327229697716
6.246632000000002,18.32194140780887,0.1237080487723314
6.250727999999999,18.3207165301988,0.1233757384691068
6.254823999999996,18.32364556226398,0.1230325067151873
6.25892,18.328712620454525,0.1226916194825301
6.263015999999997,18.32728912839565,0.1224002355308004
6.267112000000001,18.331592529962183,0.1220966963067605
6.271212000000002,18.33938549180436,0.1217997330834243
6.275307999999999,18.34607120464719,0.1215298339167935
6.279403999999996,18.355127811090785,0.1212754289679652
6.2835,18.36890336938484,0.12101632629041
6.287595999999997,18.388073646604497,0.1207540283126145
6.291692000000001,18.412860092549632,0.120482982222179
6.295784000000001,18.44157899837015,0.120208697949923
6.299879999999998,18.47423036406605,0.1199303397286588
6.303979999999999,18.51552172381227,0.119626395650711
6.308075999999996,18.55413285060898,0.1193521974471921
6.312172,18.59913522043071,0.119052678920232
6.316267999999997,18.64391614045257,0.118760243768128
6.320364000000001,18.68847561067457,0.1184736572301459
6.324459999999998,18.74054499059645,0.1181528682900065
6.328551999999998,18.792835820318214,0.1178282833513293
6.332647999999995,18.84523737493991,0.1175034108301619
6.3367479999999965,18.89886832113642,0.1171690366766173
6.340844000000001,18.952044950057655,0.1168286482405917
6.344939999999998,19.012387896303466,0.1164456553348137
6.349039999999999,19.071711483098785,0.1160540857260161
6.353131999999999,19.12620539314371,0.1156706384566661
6.357227999999996,19.18460892771295,0.1152513851666722
6.361319999999996,19.23930145220668,0.1148315125076536
6.365416,19.287369866199988,0.114425975605744
6.369511999999997,19.332845936792665,0.1140124546381946
6.373608000000001,19.37472172220976,0.113595627943701
6.377695999999997,19.411767830876457,0.1131863522288436
6.381792000000001,19.44532437926751,0.1127705458592694
6.385887999999998,19.46866794965809,0.1123802572504455
6.389987999999999,19.48941917664805,0.1119798415155797
6.394088,19.50063319271268,0.1116057203603658
6.398175999999996,19.508811965776932,0.1112316638498453
6.402272,19.519105929615485,0.1108279539790423
6.406364,19.519862682528704,0.1104493275306291
6.410459999999997,19.51657625066661,0.1100753278561687
6.414551999999997,19.506887158103964,0.1097073335088145
6.418648000000001,19.49394137274108,0.10934366816335
6.422743999999998,19.478857561252827,0.1089759060063692
6.426843999999999,19.45401508903938,0.1086369562821202
6.430939999999996,19.42468653245088,0.1083119669491992
6.435036,19.394903658587097,0.1079790282514352
6.439128,19.35861881679837,0.1076703323919407
6.443223999999997,19.324128408759663,0.1073553735434564
6.447320000000001,19.290645942495907,0.1070342113429005
6.451415999999998,19.253020984232425,0.1067357643113419
6.455515999999999,19.21528530106901,0.1064388609067393
6.459607999999999,19.17575518415557,0.1061464181998663
6.4637080000000005,19.139592484942312,0.1058471021032904
6.467803999999997,19.105002769679203,0.10554608003945
6.471895999999997,19.073780472116272,0.1052383872438114
6.4759920000000015,19.04973590955344,0.1049082001570096
6.480087999999999,19.025580622090665,0.1045797791487725
6.484179999999999,18.996274900853223,0.1042789556426034
6.488275999999996,18.976162798165777,0.1039457828622036
6.492372,18.95952883807844,0.1036038652253709
6.496464,18.94794600454136,0.1032530192482292
6.500556,18.935355229229348,0.1029066114927422
6.5046519999999965,18.92512392984256,0.1025594606875973
6.50874,18.92307830723081,0.1021859257974696
6.512815999999997,18.920921959719127,0.1018141526160287
6.516899999999996,18.92191158010776,0.1014420280125349
6.520987999999999,18.922458300896647,0.1010787354571489
6.525076000000002,18.922329254610396,0.1007132498461831
6.529163999999998,18.923883917174223,0.1003452062739138
6.533252000000001,18.9284624050629,0.0999616474752683
6.537344000000001,18.937526977326637,0.0995663290149703
6.541423999999996,18.951077633965426,0.0991586622236593
6.545515999999996,18.96362034882927,0.0987568259419298
6.549603999999999,18.97817894724301,0.0983449893041566
6.553692000000002,18.989713720331903,0.097948239175718
6.5577760000000005,18.998446117895835,0.0975619868617461
6.561863999999996,19.01054593315994,0.0971716702754458
6.565951999999999,19.028815541649195,0.0967676522154046
6.570040000000002,19.042721208338858,0.0963912064325801
6.574124000000001,19.056294700328717,0.0960226682240088
6.578211999999997,19.07054395939372,0.095657883864599
6.5823,19.0884928108587,0.0952818684413343
6.586392,19.10812537117377,0.0949048329728058
6.590484,19.127425756789037,0.0945366147110946
6.594579999999997,19.151998718754434,0.094158266081478
6.598711999999996,19.175674463844825,0.0937830398543236
6.602852000000002,19.20887600218501,0.093375379025746
6.606944000000002,19.240626699150507,0.0929821352019133
6.611036000000002,19.27125872944112,0.0925964613494644
6.615171999999998,19.30425023565697,0.0922127184916802
6.619308,19.332312757898016,0.0918500710660153
6.623391999999999,19.35892443876438,0.0915023021792879
6.627483999999999,19.38822777025577,0.0911497851594397
6.631572000000002,19.42089851944735,0.0907951571649306
6.635659999999998,19.45737958593884,0.0904285975444556
6.639748000000001,19.49464714440541,0.0900631663902567
6.643835999999997,19.529223052246945,0.089704797243138
6.647975999999996,19.560099367688498,0.0893578110799246
6.65212,19.59242652450473,0.088997712663996
6.656215999999997,19.6248644062209,0.0886360434479068
6.660307999999997,19.65270547866208,0.088286860526064
6.664447999999997,19.68323820172829,0.0879339067968762
6.668539999999997,19.7111899990694,0.0875852602469119
6.672628,19.73555292891047,0.0872447462036319
6.676728000000001,19.758121425001512,0.0869092624797487
6.680820000000001,19.783603021517457,0.086565011001829
6.684915999999998,19.800788216358427,0.0862427484025202
6.689007999999998,19.818305585899203,0.085913449667089
6.693104000000002,19.837838838989875,0.0855766084100908
6.697199999999999,19.855012616155317,0.0852388981571322
6.701291999999999,19.87173207604548,0.0848934622686289
6.705383999999999,19.890910319085275,0.0845318032417007
6.709484,19.906388969725093,0.0841801562261005
6.713579999999997,19.919286694639805,0.0838323057234469
6.717671999999997,19.93150865247938,0.0834826854183194
6.721768000000001,19.94574649386885,0.0831261833003905
6.725863999999998,19.9640161023581,0.0827552878808292
6.729963999999999,19.984523044197115,0.0823729114363124
6.734059999999996,20.0078323615611,0.0819850280689148
6.738156,20.032371070499902,0.0815899089781813
6.742248,20.059036387888533,0.0811849971742989
6.746343999999997,20.077405303602188,0.0807987557981016
6.750440000000001,20.09812227756554,0.0803992968467324
6.754535999999998,20.119957918203777,0.0799940564116324
6.758632000000002,20.13954480781672,0.0795849411251767
6.762727999999999,20.153748396179587,0.0791852299961315
6.766823999999996,20.17265951871738,0.0787744967965613
6.77092,20.194373016780148,0.0783578906274645
6.775015999999997,20.215521472667707,0.0779371392809205
6.779112000000001,20.23588343658019,0.0775158225130368
6.783207999999998,20.26285809331756,0.0770796798707832
6.787303999999995,20.285346665679874,0.0766509967181489
6.791399999999999,20.3064837038919,0.0762162015700113
6.795495999999996,20.324142599503816,0.0757843558761987
6.7995920000000005,20.341801495115728,0.0753537696805479
6.8036879999999975,20.352171930827613,0.0749353326336901
6.8077760000000005,20.357724107464637,0.074530441289659
6.8118719999999975,20.361371125451697,0.0741306852600078
6.815968000000002,20.357618958638795,0.0737449510176275
6.820060000000002,20.352969574950883,0.0733608997633167
6.824155999999999,20.348430916162904,0.0729746542516594
6.828247999999999,20.350615675099743,0.0725715499520254
6.832343999999996,20.35034165088696,0.0721841244821235
6.83644,20.35197278532413,0.0717927344550401
6.840532,20.3561848454864,0.0714005545692267
6.844627999999997,20.364207222948583,0.0709999835182244
6.848719999999997,20.367522066235843,0.070609305385077
6.852824000000002,20.374979401522825,0.0702054883216933
6.856916000000002,20.38221528700993,0.0698065193728037
6.861011999999999,20.3910241564472,0.0694100001437196
6.865107999999996,20.396809200559623,0.0690242346800854
6.869199999999996,20.40696960414717,0.0686362086693473
6.873299999999997,20.42060815033484,0.0682469071093715
6.877391999999997,20.44355103997242,0.0678433456202539
6.881483999999997,20.464478046060112,0.0674465675956426
6.885580000000001,20.49661455424768,0.0670318391796189
6.889675999999998,20.529980454010072,0.0666104350894242
6.893772000000002,20.56424357064748,0.0661890121042588
6.897864000000002,20.60590587208484,0.0657574664839236
6.901956000000002,20.64656023174726,0.0653298484691354
6.906051999999999,20.689906242034716,0.0649013481798062
6.910143999999999,20.732133585647283,0.064479691228059
6.914235999999999,20.77738475458469,0.0640508738525414
6.918331999999996,20.824430357272128,0.0636227549390637
6.922416000000002,20.87427833548454,0.0631929117423809
6.926503999999998,20.92390486389707,0.0627689923855247
6.930595999999998,20.98025481003443,0.0623338357458386
6.934687999999998,21.031565047297057,0.0619148630867975
6.938771999999997,21.08219951748454,0.061493697565727
6.94286,21.138881638321703,0.0610595022740733
6.946947999999996,21.19668242583375,0.0606228282390591
6.951032000000001,21.25111579564561,0.0601859680278003
6.955124000000001,21.30454122368253,0.0597532700162896
6.959211999999997,21.352472625569444,0.0593285758554443
6.9633,21.402641360806125,0.0588962433924746
6.967387999999996,21.448102561867877,0.0584731707505729
6.971484,21.49614468865472,0.05805218411258
6.975576,21.545526931916324,0.057624510259978
6.979663999999996,21.59132030767788,0.0572002886474191
6.983748000000002,21.641034725639283,0.0567702406260427
6.987832000000001,21.69097059340056,0.0563385190368743
6.991924000000001,21.740341418986624,0.0559029407795955
6.996008,21.787020593947656,0.0554699634134884
7.000103999999997,21.829324409433564,0.0550382936013364
7.004195999999997,21.863331823244497,0.0546144253412191
7.008292000000001,21.895655528205346,0.0541902339467189
7.012387999999998,21.917666947941317,0.0537774304711618
7.016484000000002,21.934073616627348,0.0533697688412249
7.020576000000002,21.95306121103848,0.0529641475749999
7.024671999999999,21.96050712864993,0.0525756670676044
7.028760000000002,21.960443136561477,0.0521946250381396
7.032855999999999,21.96004696977322,0.0518190643855403
7.036951999999996,21.95695915235993,0.0514439786383771
7.041048,21.94782368429696,0.051080843814941
7.04514,21.931743348709293,0.0507298559945958
7.049235999999997,21.904121336321943,0.0503928765276214
