Time,Force,Position
8.916947999999998,9.583838201081292,0.1443591124143762
8.921039999999998,9.649957163510026,0.1438581880873081
8.92512,9.71225439096331,0.1433739255349976
8.929208,9.764227915516194,0.1429836694592687
8.933243999999998,9.811925387818356,0.1425967286988767
8.937335999999998,9.848501247569502,0.142270509755693
8.941427999999998,9.877765812069557,0.1419565744330065
8.945564000000001,9.902521456843482,0.1416210486065235
8.949659999999998,9.918404240091691,0.1413372153690814
8.953744,9.929900246189243,0.1410597195167603
8.957836,9.934207099611172,0.1408209208025765
8.961872,9.929198191907648,0.1406511318666173
8.965964,9.924853633603728,0.140450012089439
8.970047999999998,9.9150150491498,0.1403056792897658
8.974135999999998,9.903382030945853,0.140178241420864
8.978216,9.891183970566695,0.1400432777367256
8.982299999999999,9.87640498446244,0.1399282352620417
8.98638,9.861060956182977,0.1398056789381913
8.990472,9.842128060403464,0.1397169029170447
8.994556,9.824313831298834,0.1396087541065263
8.998636000000001,9.80470516844418,0.1395171579387388
9.002731999999998,9.783523521639376,0.1394313755162675
9.006812,9.763571266409386,0.1393212248621653
9.010896,9.747540053379248,0.1391618359597083
9.014972,9.730057998974422,0.1390367239795753
9.019047999999998,9.715500462670033,0.1389091340197352
9.023136,9.70229446051593,0.1387851775712396
9.02722,9.689653500537034,0.1386681447582713
9.031304,9.680490683158252,0.1385224953926676
9.035391999999998,9.669422707129511,0.138398583693115
9.039483999999998,9.658919773275978,0.1382817046096164
9.043564,9.65817550014764,0.1380775343464834
9.047648,9.655758935844744,0.1379187171071686
9.051735999999998,9.657717731016971,0.1377233028228863
9.055816,9.659233626589463,0.1375485925167313
9.059895999999998,9.663784765162326,0.1373673430057519
9.06398,9.672600538310377,0.1371557266359094
9.06806,9.684673004258672,0.1369278236256423
9.07214,9.702018046557104,0.1366562618584897
9.076224,9.721157522605557,0.1363708024935156
9.080312,9.740972765729154,0.1360874537849079
9.084392,9.762471717702836,0.1357946989554595
9.088472,9.78173333632676,0.1355389649663881
9.092555999999998,9.799765563375864,0.1353074753437219
9.096636,9.825750599724609,0.1349787454174451
9.100715999999998,9.852965027648166,0.1346274158519361
9.104803999999998,9.881752439521884,0.1342719933788502
9.108888,9.912899327320828,0.1339102067934067
9.112984,9.942706098645022,0.1335771529033262
9.117068,9.981374313819398,0.1331744131889174
9.121152,10.022623454718875,0.1327563254066139
9.125236,10.058267844568416,0.1323972964899679
9.129312,10.096936059742792,0.1320024921555552
9.13342,10.136501491792185,0.1316038326521906
9.137504,10.1807744580165,0.131159819957838
9.141592,10.22314226559086,0.1307381951379713
9.14568,10.26416995669047,0.1303469737137063
9.14976,10.30329248914012,0.1299780127039471
9.153848,10.341517804714758,0.1296196957024561
9.15794,10.379521670489526,0.1292753507240564
9.162032,10.422233070439225,0.1288892964775477
9.166128,10.464612295689117,0.1285203141713256
9.17022,10.51091256313886,0.1281104957958421
9.174316,10.561920364763534,0.1276603360094135
9.178416,10.60867494948855,0.1272729630780969
9.182512,10.657334692863524,0.1268711701297807
9.186604,10.70901826156334,0.1264407342222914
9.190704,10.759461021012807,0.1260038061353685
9.194796,10.812251838711973,0.1255322466697147
9.198892,10.858086371210913,0.1251086195706658
9.202988,10.902347919759697,0.1246920917213219
9.207083999999998,10.949633293633322,0.124244017567775
9.21118,10.9933298000069,0.1238235792300688
9.215276,11.03444538065538,0.1234199566850431
9.219364,11.072193543603678,0.1230353424241356
9.223456,11.114416373251505,0.1225946071845469
9.227552,11.155730568348789,0.1221324116657565
9.23164,11.198495604820751,0.1216447603989591
9.235727999999998,11.240695599117515,0.1211527972230087
9.239816,11.280425392589107,0.1206726407278006
9.243896,11.315890551485513,0.1202173618720426
9.247984,11.354146668231357,0.1197157888071403
9.252067999999998,11.39004330905197,0.1192216085362855
9.256152,11.42268325707234,0.1187418841305496
9.26024,11.453750221142556,0.1182662602228059
9.264328,11.483022751462748,0.1178048712609687
9.268411999999998,11.508706414282894,0.1173694101862575
9.272496,11.535176569078113,0.1169350676559262
9.276584,11.56287611544815,0.1164862739381877
9.280663999999998,11.594385979118108,0.1160098714055575
9.284752,11.624998625913047,0.1155402323366081
9.288836,11.657848606057756,0.1150480663400633
9.29292,11.694730353302248,0.1145209828576786
9.297007999999998,11.73205500014648,0.1139787920910889
9.301099999999998,11.769490371890647,0.1134337476162025
9.305191999999998,11.802218209459884,0.1129271561644759
9.30928,11.83763769765416,0.1124091441714849
9.313368,11.873167910748368,0.1118910880045662
9.317456,11.906117198117474,0.1113845967183135
9.321548,11.937604226436363,0.1108760559168078
9.325636,11.970431371230005,0.1103488933076875
9.329728,11.997543040073769,0.109865430726889
9.333824,12.028575751117383,0.1093548984426173
9.337924,12.058035478210847,0.1088474513867023
9.342016,12.087151612928972,0.1083254698213904
9.346111999999998,12.113908271721863,0.1078060834575437
9.350208,12.139313396364477,0.107281243243739
9.354304,12.161572553106778,0.1067598943600901
9.358244,12.183155942773938,0.1062391244147646
9.362376,12.199356031191028,0.1057459110953225
9.366376,12.21510180233284,0.1052418897194777
9.370463999999998,12.227037256174745,0.1047657643810059
9.374548,12.23527311761666,0.1043122121830607
9.378636,12.245192687908665,0.1038556050230881
9.382663999999998,12.259144025300456,0.1033693445087233
9.38674,12.273881854667328,0.102884019920107
9.390824,12.282793483184388,0.1024392662509964
9.394908,12.28968922815156,0.1020116242476893
9.398988,12.303086941043675,0.1015502177230333
9.403064,12.320860013410918,0.1010741882059813
9.407148,12.338976678153497,0.1006154681874628
9.411228,12.360571485496193,0.1001459296527958
9.415316,12.380150409288987,0.0996953947516151
9.4194,12.403096750781966,0.0992393084293428
9.423488,12.430529176650005,0.0987674747733812
9.42758,12.4650286126182,0.0982732330928169
9.43166,12.503006191186511,0.097771073936629
9.435748,12.547264287879903,0.0972476518368609
9.439832,12.590071543198608,0.0967494063216667
9.443908,12.63837282466732,0.0962285247870412
9.447988,12.68925503186113,0.0957038758841638
9.452072,12.741710223005098,0.0951822244635156
9.456152,12.7994379904992,0.0946477925285381
9.460235999999998,12.857952249968378,0.0941181210797735
9.464316,12.917031551612764,0.0936032184068268
9.468408,12.97611085325715,0.0930909613481877
9.472487999999998,13.041802847726425,0.092547695822103
9.476568,13.108392059070711,0.0920035989930467
9.480648,13.175657037490137,0.0914719411179355
9.484732,13.242922015909569,0.0909456028166987
9.488812,13.30951122725385,0.0904186059383974
9.4929,13.38024293059786,0.0898694737215878
9.496987999999998,13.448172258416896,0.0893355127175393
9.501079999999998,13.514307152485909,0.0888114582174186
9.505171999999998,13.579544829679907,0.0882965477977278
9.50926,13.638834163448632,0.0877957491421877
9.513348,13.695542571492254,0.0873034669605628
9.517436,13.74844066223596,0.0868331792163466
9.52152,13.804805477904244,0.0863360919301242
9.525612,13.86228896024741,0.0858353220017535
9.529688,13.922464093215613,0.085332185110438
9.533776,13.982517083608348,0.0848123458973504
9.537859999999998,14.038859063925566,0.0842867527366113
9.541951999999998,14.094181684792304,0.0837476177009211
9.546039999999998,14.144785353808585,0.0832075388508434
9.550131999999998,14.19627482202434,0.0826452975346086
9.554227999999998,14.247974322364431,0.0820598378977673
9.558319999999998,14.299662405028991,0.0814543151248273
9.562416,14.344050610117993,0.0808499988998754
9.566508,14.383830588256464,0.0802386984388967
9.570604,14.42460709049435,0.0796027706893149
9.5747,14.45472771513203,0.0789902384637318
9.578796,14.48752857271921,0.0783510438263933
9.582884,14.51953152065578,0.0776901500567205
9.586976,14.547602008716968,0.0770259360795296
9.591072,14.575328904402816,0.0763491689931496
9.595164,14.603609424588344,0.0756591854227551
9.59926,14.630194818248246,0.0749486377022387
9.603352,14.65172908535788,0.0742426693955623
9.607444,14.669441617492064,0.0735303579093058
9.611532,14.681083663625506,0.0728036599527768
9.615616,14.690476958733653,0.0720710551855959
9.619699999999998,14.700313153441536,0.0713284332165296
9.623784,14.707789872224186,0.0705826749353833
9.627872,14.715488040806708,0.0698317591487246
9.631956,14.720826733464,0.0690775201575562
9.636048,14.722576558621244,0.0683314239576947
9.640135999999998,14.72376134160328,0.0675789209700162
9.64422,14.723373140635164,0.0668208177557373
