Time,Force,Position
12.334248,14.12952062960592,0.1465376308039763
12.338328,14.215378363284914,0.1460509608149937
12.342404,14.293802659137349,0.1455592545872484
12.346488,14.365014966963084,0.1450489545060022
12.350523999999998,14.425880736537357,0.1445566046410042
12.354608,14.475945650584888,0.144074981250973
12.358692,14.517569185030908,0.1435961929485911
12.362767999999996,14.553343683276053,0.1431254138324744
12.366844,14.584498536895136,0.142645129111493
12.370927999999996,14.606215486813298,0.142198287772404
12.374956,14.628474643555604,0.1417121907595649
12.379032,14.643544647622278,0.1412516832360386
12.383116,14.654117149638363,0.1407998863637779
12.387195999999998,14.659184207828908,0.1403647565686957
12.391284,14.663342631468906,0.1399135412619451
12.395372,14.666260245858558,0.1394562008552057
12.399399999999998,14.672423135372917,0.1389647842523702
12.403487999999998,14.67633727386198,0.138477432738398
12.407579999999998,14.67217646047594,0.1380394498632695
12.41166,14.666774837839547,0.1375954587982882
12.415748,14.66236973930257,0.137120897090316
12.41984,14.653589281290468,0.1366698210055047
12.423875999999998,14.645030273078236,0.1362125012494684
12.427963999999998,14.640170857265987,0.1357297363267334
12.432052,14.638900308953785,0.1352251543299272
12.436136,14.638084077916856,0.1347286991817129
12.440212,14.63625990510498,0.1342413531503761
12.444296,14.635554398967985,0.1337419444650019
12.448388,14.63395167595598,0.133247500788423
12.452419999999998,14.632016778244168,0.1327633822140528
12.456507999999998,14.629417531132749,0.1323004211930078
12.460596,14.631869410571596,0.1318164406215162
12.464688,14.636004998860528,0.1313263752861504
12.46878,14.641602846199682,0.1308358543466446
12.472868,14.649560169464063,0.1303415882121176
12.47696,14.660884910428626,0.1298349573324286
12.480992,14.670537360218631,0.1293584287511781
12.485084,14.682327836134,0.1288852759472992
12.489176,14.703311930599355,0.1283554222600972
12.493268,14.724861067239916,0.1278319088744583
12.49736,14.744283595430648,0.1273299404298434
12.501395999999998,14.771326758221216,0.1267771452845918
12.505432,14.792765169961845,0.1262599534753309
12.509524,14.81330636482746,0.1257493125222114
12.513612,14.833847559693076,0.1252406011176459
12.517704,14.85539669633364,0.1247245660306253
12.521792,14.87762160004934,0.1242113682253554
12.525819999999998,14.90063299574012,0.1236985608484333
12.5299,14.926114592256068,0.1231794489934274
12.533927999999998,14.95428783939705,0.1226483451028902
12.538012,14.98458769498786,0.1221003933941282
12.542091999999998,15.01140940797856,0.1215685453579647
12.546179999999998,15.03678027959457,0.1210592816853571
12.550216,15.063834860060672,0.1205456416676588
12.5543,15.087976340101868,0.1200534808524003
12.558383999999998,15.110888428568249,0.1195776896608673
12.562467999999996,15.134021966834498,0.1190962315119592
12.566552,15.157155505100746,0.1186171960750742
12.570631999999998,15.181075535342073,0.1181408549748841
12.574708,15.206679274433483,0.1176611704027296
12.578784,15.2345317645502,0.1171832688519048
12.582864,15.25701237109237,0.1167535584983223
12.586947999999998,15.29014885523475,0.1162798702637896
12.591024,15.325755540202298,0.1158029630073032
12.5951,15.361362225169843,0.1153282969298663
12.599184,15.400557777637433,0.1148408290638046
12.603267999999998,15.437958896355005,0.1143618177532261
12.607352,15.475249290172638,0.1138881075265259
12.611436,15.516239276390252,0.1133995520845642
12.615524,15.555213379057976,0.1129269620898402
12.619607999999998,15.593855307025894,0.1124665343225101
12.623692,15.63866702821896,0.1119856313672073
12.627776,15.684597416086907,0.1114964860214577
12.631863999999998,15.73232223770488,0.1110030553050573
12.635947999999996,15.782517260148015,0.1105064911687213
12.640036,15.831704340816204,0.1100181674760684
12.644128,15.883583072109433,0.1095218237997889
12.648216,15.933667369652635,0.1090349676146308
12.652308,15.97713897437095,0.1085835901360107
12.656396,16.01859469553937,0.1081470430581958
12.660488,16.059263924732715,0.1077129334156281
12.664576,16.104972862800793,0.1072486722161786
12.668667999999998,16.141488182318884,0.1068268995778073
12.672759999999998,16.174193184537053,0.1064261119392123
12.676856,16.206566012055426,0.1060357597867051
12.680952,16.233223363623914,0.1056756094806798
12.685048,16.26324813289259,0.1053089526966467
12.689136,16.295964552786295,0.1049348320239303
12.693232,16.32016312120515,0.1046025501583387
12.697324,16.34425096472408,0.1042737905820938
12.701416,16.365536432718034,0.1039583221473811
12.705443999999998,16.382900858512137,0.1036659732528989
12.709528,16.399146617631356,0.1033832462301865
12.71362,16.413376493200683,0.103113697468104
12.717708,16.427717093669944,0.1028423552523002
12.721796,16.443962852789163,0.1025628044423836
12.725879999999998,16.45830345325843,0.1022933682693186
12.729912,16.472311879027885,0.1020328845680897
12.734004,16.491703606047416,0.1017548753355205
12.738096,16.510873883267077,0.1014828795203345
12.742188,16.527917552036907,0.1012256935390222
12.746283999999998,16.539024295056993,0.1010010532380168
12.750375999999996,16.553387730877322,0.1007731137468087
12.754464,16.56562455824782,0.1005591831261127
12.758496,16.576742718943436,0.1003542068223347
12.762588,16.589433863589214,0.1001490258551412
12.766671999999998,16.6010063415601,0.0999530259564557
12.770759999999996,16.60372879335634,0.0998029106035984
12.774844,16.611502371702848,0.0996438505992912
12.778923999999998,16.618833050449616,0.0994962351375464
12.783015999999998,16.62751526334667,0.099354301770837
12.787107999999998,16.636086751343782,0.0992155040828023
12.791195999999998,16.645112556616173,0.0990853497668301
12.795284,16.653806187188756,0.0989639523731984
12.799368,16.65925454263663,0.098865311129746
12.803456,16.664370723384703,0.0987754551971252
12.807539999999998,16.66814678765802,0.0986997484800564
12.811628,16.67259861900648,0.0986269607947163
12.815716,16.675821058780123,0.0985655928200832
12.8198,16.679940715428778,0.0985015572341389
12.823887999999998,16.685744080927524,0.0984348649218007
12.827971999999995,16.693452605076228,0.0983598918408607
12.832063999999995,16.703177012774823,0.0982742033514852
12.836152,16.718506171523362,0.0981667737327933
12.840236,16.734732547146912,0.0980568532572357
12.844324,16.754547790270507,0.097936667501794
12.848407999999996,16.775260250269117,0.0978142591392799
12.852484,16.804490561742572,0.0976567517444345
12.856567999999998,16.83214788926587,0.0974994258939098
12.860648,16.860923883464054,0.0973341680350983
12.864736,16.888913385687157,0.0971689974882188
12.868819999999998,16.91880804656022,0.0969966202573183
12.8729,16.950940040783046,0.0968088429464313
12.876983999999998,16.981166876355918,0.0966290961428483
12.881064,17.01430681235369,0.0964363143329478
12.885148,17.048343965226472,0.0962419657725421
12.889227999999996,17.08518349362423,0.0960378289337552
12.893308,17.12191229712205,0.0958368066490693
12.897396,17.15886255041974,0.0956312887186523
12.901479999999998,17.197717962367392,0.0954190053303114
12.905568,17.241391633389902,0.0951876501550817
12.909656,17.286859738162438,0.0949521675884629
12.913744,17.330644134084885,0.0947203033067037
12.917768,17.37734163043224,0.0944780871825586
12.921848,17.42616573522942,0.0942244398233359
12.925931999999998,17.470503755651542,0.0939837729793717
12.930008,17.513158067223575,0.0937460287328302
12.934087999999996,17.550207627745664,0.0935285148877953
12.938164,17.58949452161752,0.0932966303577731
12.942244,17.627208431539223,0.093064638730449
12.946324,17.66637318283561,0.0928178483706395
12.950404,17.70026535778186,0.0925829398596314
12.954488,17.732363098978087,0.0923538257191067
12.958576,17.765911681549003,0.0921094940283079
12.962663999999998,17.79900594684464,0.091858045558964
12.966755999999998,17.82704908559002,0.0916128865233148
12.970847999999998,17.84813593913517,0.091380693039587
12.974935999999998,17.869211375004788,0.0911304650107752
12.97902,17.884227742549193,0.0908906922476554
12.983104,17.894979475518408,0.0906573355851857
12.98718,17.89496460598748,0.0904508837583227
12.991268,17.895503360956226,0.0902320667056987
12.995352,17.89536634884983,0.0900105243228136
12.999435999999998,17.887154384868335,0.0898088759695832
13.003524,17.875353553386788,0.0896159737092032
13.007616,17.866797997029945,0.0894039259980784
13.011711999999998,17.85857461537291,0.0891842079911298
13.015803999999996,17.854715175515473,0.0889382153150791
13.019895999999996,17.84995851878302,0.0886947712055901
13.023984,17.8502415709253,0.0884288234502747
13.028072,17.851532564842525,0.0881589325076092
13.032168,17.855847384084594,0.0878751802931828
13.036256,17.858699944276438,0.087588106438064
13.040352,17.860766012493208,0.0873005878013326
13.044444,17.8620455887349,0.0870129305040238
13.048536,17.86500887382668,0.0867234619743247
13.052628,17.87749795216825,0.0864021840312594
13.056723999999996,17.890773522484906,0.0860822244349338
13.060812,17.912456219376466,0.0857378353348095
13.0649,17.937273466492798,0.0853782399090182
13.068984,17.96971134820897,0.0849933388207236
13.073071999999998,18.002038505025208,0.0846128681093291
13.077156,18.03548432851633,0.0842267346030263
13.081196,18.070946035557338,0.0838318721073841
13.085284,18.107526409273238,0.0834308431981189
13.089324,18.13861275683912,0.0830436455485114
13.093416,18.1691340622298,0.0826515350050079
13.097447999999998,18.196852992095508,0.0822684140244934
13.101483999999996,18.22041801228596,0.081886850520951
13.105572,18.23456796412656,0.0815328827612485
13.109664,18.245239773367047,0.0811838898627188
13.113759999999996,18.259046132832303,0.0808211740783626
13.117855999999998,18.274868375847458,0.0804508643224622
13.121891999999995,18.292030735337363,0.0800695788611121
13.125924,18.306612169102166,0.079690797556235
13.129955999999998,18.321857952266583,0.0792974669103162
13.134036,18.33071249240598,0.0789190434112807
13.13812,18.33608888994526,0.0785445705279565
13.142199999999995,18.336081986234472,0.0781801983788392
13.146276,18.334169923873723,0.0778216720718946
13.150315999999998,18.33057415266289,0.0774643788633571
13.154403999999998,18.319579196652096,0.0771233163746279
13.158492,18.307687023766285,0.0767839692470663
13.16258,18.2950083589054,0.0764432466709947
13.166664,18.282661868744317,0.0760953395283805
13.170751999999998,18.27535508745796,0.075727920680877
13.174843999999998,18.2668189145968,0.0753688037165135
13.178927999999996,18.258725641335367,0.0749998870330944
13.183012,18.2547862777492,0.0746310701243278
13.187084,18.25846754876286,0.0742413627522918
13.191168,18.26304603665153,0.0738501983502933
13.195204,18.26045820721564,0.0734877212947002
13.199284,18.250925510255065,0.0731481785431927
13.203368,18.24296579724464,0.0728113526597538
13.207447999999998,18.236468343284432,0.0724786986897412
13.211528,18.229527989724488,0.0721555249195838
13.215611999999998,18.22337412813961,0.0718332142630393
13.219699999999998,18.22260356780481,0.0715038011197059
13.22378,18.22150083277021,0.0711811860815402
13.227872,18.221073864810755,0.0708622726767785
13.23196,18.219417505276475,0.0705518334430801
13.236056,18.222357955017195,0.0702322963104704
13.240139999999998,18.221155912758192,0.0699289992886026
13.244227999999998,18.222534796224284,0.0696247934815246
13.248312,18.22055767966573,0.0693381700281062
13.252396,18.21791621370757,0.069066403339463
13.256479999999998,18.21796639837445,0.0687914016436519
13.26056,18.219933159366825,0.0685302602022606
13.264648,18.224813020784094,0.0682621422109879
13.268736,18.229471432401496,0.0679996440550529
13.272828,18.235592103069123,0.0677424941524133
13.27692,18.24675248261148,0.0674684365656088
13.28102,18.267549380303564,0.0671704697539769
13.285112,18.285322452670805,0.0668832075842919
13.289208,18.307127292137835,0.0665836130589094
13.293307999999998,18.33375039067973,0.0662735030854302
13.297403999999998,18.362954414946724,0.0659638286510819
13.301495999999998,18.38913461388888,0.0656650398271212
13.305583999999998,18.41912513013095,0.0653586810762913
13.309675999999998,18.451020805022974,0.0650493213248886
13.313767999999998,18.487734738989875,0.0647301571140744
13.317855999999995,18.53038559870652,0.0643963035725958
13.321947999999995,18.579194833972767,0.0640420413827379
13.326043999999998,18.62789334433909,0.0636915115465434
13.330135999999998,18.68051289690526,0.0633314567008236
13.334227999999998,18.73447256594618,0.0629632598648053
13.338316,18.78876440968691,0.0625899227779743
13.342404,18.84113967710214,0.0622043603009526
13.346488,18.888242368167244,0.0618226679874635
13.350571999999998,18.932985583307115,0.061437799870202
13.354659999999996,18.97458283054668,0.0610472567598234
13.358744,19.014385644036217,0.0606591943394443
13.362828,19.049813098050628,0.060273981232025
13.366911999999996,19.089715218764567,0.0598699192692239
13.370996,19.12535270490332,0.059465958419702
13.375084,19.154709672916987,0.0590673675838155
13.379176,19.18192861480529,0.0586604790843721
13.383255999999998,19.20812819724312,0.0582396436184611
13.38734,19.23218975355558,0.057810510750283
13.391432,19.255010500617697,0.0573727298319386
13.39552,19.26874835402976,0.0569423318971615
13.399603999999998,19.2751977475418,0.056518973214168
13.403695999999998,19.27514517312888,0.056102977879604
13.407783999999998,19.269254980190617,0.0556804790106108
13.411872,19.259210877577097,0.055253067467857
13.415964,19.24019460621346,0.0548284557521746
13.420059999999998,19.214676366924877,0.0544098174985021
13.424148,19.1877072862616,0.0540018489261039
13.42824,19.15591994652347,0.0536003261146152
13.432332,19.11830640593552,0.0532078141979014
13.436427999999998,19.076882548047653,0.0528187767589406
13.440523999999998,19.03075115598486,0.052433976740101
13.444615999999998,18.975991187547283,0.0520603012597259
13.448716,18.907562933860195,0.0517104144201203
13.452812,18.830960421073595,0.0513799127646235
