Time,Force,Position
9.701435999999998,13.190932493872976,0.144849014897483
9.705519999999996,13.322418179781966,0.1441586910492767
9.709603999999995,13.42565520878599,0.1434841423444121
9.7137,13.506714066885792,0.1428156772344637
9.717787999999995,13.563048081382872,0.1422293617964581
9.721875999999998,13.600395563578171,0.1417194928248255
9.725903999999996,13.633566300747148,0.141186846640954
9.729995999999996,13.663923244715624,0.1406598470313844
9.734087999999996,13.69393659630876,0.1401241625915507
9.738179999999996,13.720803980001593,0.1396015968872631
9.742271999999996,13.745189745193723,0.1390690873411268
9.746304,13.761611283410682,0.1385898524489157
9.750396,13.776792012377292,0.1381059230614089
9.754484,13.78995685779401,0.1376434490082844
9.758571999999996,13.804362512461076,0.1371893233322728
9.762612,13.826965261578716,0.1367048455055826
9.766699999999997,13.849468703471954,0.1362495487450171
9.770788,13.874110171490551,0.1357972123615551
9.774871999999998,13.90368062348395,0.1353048477831533
9.778955999999996,13.935266959027244,0.1347952102015146
9.783039999999996,13.973355262495488,0.1342420764942417
9.787128,14.014921708563843,0.1336730444071752
9.791155999999996,14.061539281182467,0.133084963622849
9.795239999999996,14.104800853776446,0.1325394593245818
9.799323999999997,14.155683060970258,0.1319382951792995
9.803403999999995,14.210597035263858,0.13130364498824
9.807487999999996,14.264613792682445,0.1306795150262993
9.811576,14.316160349275863,0.1300699061296397
9.815656,14.364793805444378,0.1294858481233791
9.819743999999996,14.416229637137866,0.1288874702733997
9.823832,14.46991421985665,0.128292220165502
9.827915999999998,14.52707694517554,0.1276815103567345
9.832004,14.584128945594502,0.1270770342503989
9.836091999999995,14.64308610466342,0.1264631130687278
9.840175999999996,14.700924597057458,0.1258637882132082
9.844264,14.75484204725164,0.1252994427446291
9.848352000000002,14.810221756496045,0.1247385296785768
9.852439999999998,14.865269291040644,0.1241909931353963
9.85652,14.920438968160711,0.1236685355825871
9.860604,14.97886533808102,0.1231418532007171
9.864684,15.035054374651567,0.1226428447824619
9.868768,15.09191917829726,0.1221504171751348
9.872851999999998,15.145649431718171,0.1216877694484264
9.876932,15.20207133576412,0.121215157753553
9.881016,15.258050340210332,0.120760532967513
9.885096,15.314262212131942,0.120324503484863
9.88918,15.369244692478738,0.1199049516788291
9.893255999999996,15.421989839475769,0.1195086533467029
9.897339999999996,15.475742928247747,0.1191062657684104
9.901419999999998,15.524677757944865,0.118736833844137
9.905503999999995,15.56744279441683,0.1183947275607926
9.909595999999995,15.607848354963568,0.1180569069901818
9.913687999999995,15.64858609021011,0.1177113939098863
9.917784,15.684727016181656,0.1173907835739659
9.921879999999998,15.71839774132804,0.1170764303942978
9.925968,15.748357456398908,0.1167609503167402
9.93006,15.778305753794244,0.1164265684394671
9.934147999999997,15.80510808328927,0.1160963818852418
9.938236,15.824278360508927,0.1157904551892753
9.942328,15.836603077428297,0.1155078211838256
9.946415999999996,15.84309017582232,0.1152404985112916
9.950507999999996,15.84172377214111,0.1150023966317952
9.954587999999998,15.83933800900942,0.1147505027880913
9.958671999999996,15.82786935222768,0.114540557254956
9.962755999999995,15.811349568895668,0.1143446774167933
9.96684,15.788992167038316,0.114163224401925
9.970927999999995,15.764386014155669,0.1139805682146592
9.975019999999995,15.74134142754764,0.1137752488170022
9.979108,15.717842523664345,0.1135610893857038
9.983203999999995,15.69535156155599,0.1133397851459156
9.987292,15.676781641647487,0.1130937107302204
9.991387999999995,15.660792647464088,0.1128393690921451
9.995476,15.64189055285578,0.1126020659953339
9.999563999999996,15.625004341797368,0.1123508205635049
10.003655999999996,15.613157839613688,0.1120657723611828
10.007755999999995,15.602552146680358,0.1117881221142793
10.011855999999998,15.584780136422465,0.1115602645335461
10.015947999999998,15.569699776789609,0.1113211510679367
10.020039999999998,15.558994776631875,0.1110664651750435
10.024128,15.550084210224169,0.1108039970063252
10.028212,15.542746627766611,0.1105396365475189
10.032287999999998,15.539108637709042,0.1102568715842504
10.036371999999997,15.533011864501834,0.1099994063762971
10.04046,15.535432942769477,0.1096965870145396
10.044543999999998,15.537632571237246,0.1093994924219951
10.048632,15.544096834280207,0.1090902148022917
10.052716,15.547426547098397,0.1088032230152738
10.056803999999996,15.54650304301692,0.1085492318379499
10.060887999999997,15.542223538910806,0.108324413683105
10.064979999999997,15.536371050854534,0.1081004077622855
10.069067999999998,15.526376070798545,0.1079060606128856
10.073151999999997,15.510665614792677,0.1077422656156288
10.07724,15.494512259187069,0.1075905593691127
10.081332,15.475113628456754,0.1074648557372293
10.085376,15.449335172376951,0.1073882387910552
10.089407999999995,15.425351150047176,0.1073042450496627
10.093492,15.407979820542284,0.1071858703833153
10.097579999999995,15.387928258087893,0.1070993519509198
10.101668,15.365417912483863,0.1070384138192578
10.105755999999996,15.344934868105268,0.1069852805078026
10.109791999999995,15.329502950276932,0.1069202235197897
10.113876,15.315201116799011,0.1068665997741598
10.117963999999995,15.309084960096136,0.1067785815459542
10.122052,15.297486194918788,0.1067355567878744
10.126132000000002,15.289930614516758,0.1066875694166197
10.130115999999996,15.28282935139,0.1066484297392818
10.134148,15.285486748988436,0.1065748561894508
10.138228000000002,15.292519506061998,0.1064873178949528
10.142312,15.304603389685823,0.106388590059044
10.146396,15.322414166935062,0.1062819807601209
10.150483999999995,15.346394737409446,0.1061550829127966
10.154571999999998,15.378228809959063,0.1060042779386439
10.158652,15.417351342408717,0.1058245353568318
10.162744,15.46645398538343,0.1056064404697324
10.166831999999996,15.522845088258173,0.1053593732741048
10.17092,15.58181711685802,0.1051073891136331
10.175008000000002,15.641354187633072,0.1048631479691277
10.179095999999998,15.705930967282857,0.1045885723730692
10.183171999999995,15.77823910643241,0.1042753990012579
10.187256,15.851555187356912,0.103957809073961
10.19134,15.925314167881153,0.1036319082890793
10.195415999999998,16.00220769863017,0.1032870358000519
10.199443999999996,16.071923494379092,0.102969457076438
10.203523999999998,16.149702824327584,0.1026054738858047
10.207599999999996,16.225344128150716,0.1022379764148851
10.211688,16.30164978137346,0.1018553317826131
10.215776000000002,16.371564191571185,0.1014990721846262
10.219863999999998,16.440913559593703,0.10113885060924
10.223960000000002,16.510251509940687,0.1007610266372922
10.227988,16.574316883937538,0.1003998827252564
10.232075999999996,16.6370307237841,0.1000358359094692
10.236167999999996,16.69793871220511,0.0996609093265465
10.240252000000002,16.755700732725817,0.0992895831998101
10.244344000000002,16.806617192946227,0.0989355961918072
10.248436000000002,16.852593251516303,0.0985889037240154
10.252532,16.89542334218607,0.098243943149
10.256627999999996,16.93802056538044,0.0978870448905345
10.260719999999996,16.97657460379949,0.0975343224197855
10.264816,17.008172357018317,0.0971998410535055
10.268848000000002,17.036059100161623,0.0968602489130722
10.272884,17.057554600279914,0.0965427012563928
10.276912,17.075793407597963,0.0962287811092537
10.280956,17.100977082440703,0.0958815957225382
10.284992,17.118983022283352,0.0955564483676938
10.289027999999998,17.138107628800878,0.0952241403732486
10.293055999999996,17.156777918043137,0.0948849496199165
10.297091999999996,17.180255048684725,0.0945073066110097
10.301127999999997,17.201594153200944,0.0941241257608037
10.305159999999995,17.221470998666952,0.0937391824634622
10.30924,17.243573759807184,0.0933203525338765
10.31332,17.266673045046836,0.0928796732718992
10.317351999999996,17.28730212946132,0.0924420742380659
10.321435999999997,17.303888029100488,0.092006093566434
10.325515999999997,17.320462511064118,0.0915519047270072
10.329599999999996,17.337812067327295,0.0910795940419308
10.333684000000002,17.35392081434012,0.0905989696160037
10.337768,17.365875651677694,0.090122174647109
10.341852,17.381407938839782,0.0896191142208337
10.345932,17.395588691851582,0.0891096304516302
10.350016,17.414809153738123,0.0885777717390746
10.354103999999996,17.43670984857416,0.0880204898147248
10.358183999999998,17.458942718110006,0.087456514840466
10.362264,17.472989910870805,0.0869152456917852
10.366344000000002,17.489385161881305,0.0863571949663736
10.37042,17.503642386766444,0.0857930144926095
10.374507999999995,17.51319207747665,0.0852441346375012
10.378595999999998,17.520725884636967,0.0847065909480522
10.382679999999995,17.53229145889707,0.0841520137211117
10.386763999999996,17.54385703315717,0.0835984770451725
10.39086,17.550272173642607,0.0830694243660906
10.394944,17.549631721703413,0.0825713762381249
10.399036,17.547983327989275,0.0820775398022275
10.403124000000002,17.548240092925095,0.0815771294496163
10.407211999999998,17.548053958261175,0.0810871704512156
10.411295999999997,17.547646373797384,0.0806025068674518
10.415387999999997,17.547914556408738,0.0801210940233775
10.419476,17.55098511454506,0.0796319334665187
10.423559999999998,17.549581005981857,0.0791706151104243
10.427651999999998,17.548287622318583,0.0787059046117043
10.431743999999998,17.539041429355674,0.078272061462382
10.435832,17.529573786592902,0.0778431841174524
10.439927999999998,17.519208926955113,0.0774159316796314
10.444019999999998,17.512875834417112,0.0769717434675782
10.448108,17.50485903302902,0.0765280508365311
10.452203999999998,17.496177882241323,0.0760989652206412
10.456299999999995,17.494109424278513,0.0756520358018137
10.460387999999998,17.485317548590878,0.0752247133401047
10.464476,17.477877207053528,0.0748061882611758
10.468571999999998,17.468420981966283,0.0743953502224511
10.47266,17.467039708754143,0.073972098249758
10.476752,17.472049678567025,0.0735365142291939
10.480783999999996,17.478743357229998,0.0731008805472277
10.484819999999996,17.487796511818196,0.072669713329502
10.488856000000002,17.49763615838147,0.072240195474726
10.492948000000002,17.50815157201989,0.0718148924324713
10.497035999999998,17.51844553585844,0.0713947800020452
10.501068,17.524486282797337,0.070994311338964
10.505107999999996,17.530416304836294,0.0705959351530371
10.509204,17.54229467030053,0.070197452695723
10.513299999999996,17.560896453489587,0.0697808053791362
10.517391999999996,17.578047395303958,0.0693778363994401
10.521492,17.593747495743646,0.0689885055449563
10.525587999999996,17.608561796983853,0.0686197130364593
10.529619999999998,17.62338751589959,0.0682697069841621
10.533695999999996,17.642134277015185,0.0679085772763029
10.537783999999998,17.654611937681224,0.0675742738184654
10.541875999999998,17.675386000022243,0.0672255413471968
10.545964,17.687310036188606,0.0669037954585916
10.550048,17.69968838963025,0.0665907968453673
10.554132,17.708034975972105,0.0662927516871675
10.558215999999998,17.710444636564212,0.0660129575836141
10.562304,17.710616963806554,0.0657448907098626
10.56638,17.70653607414924,0.0654955479019869
10.570455999999997,17.700893618217307,0.0652618083571102
10.574535999999998,17.69458681288577,0.0650427919177053
10.578619999999995,17.689520816804578,0.0648341586529452
10.5827,17.693537714373434,0.0646142178231098
10.586775999999997,17.699016870992512,0.0643997133836257
10.590816,17.697440435186962,0.0642087653941422
10.594852,17.694191708206866,0.0640360570597663
10.598939999999995,17.698120716226857,0.0638568991068429
10.603019999999995,17.704741374871883,0.0636752770419972
10.607103999999996,17.71225925039192,0.0634930768782066
10.611183999999998,17.72146083476205,0.0633117813537551
10.615216,17.72899012795762,0.0631486364751916
10.619243999999998,17.739321796678162,0.0629805659556308
10.623332,17.746408190273993,0.0628273603881306
10.627416,17.758202118044753,0.062665153192209
10.6315,17.768877379140633,0.062508420760826
10.635583999999998,17.778766148261436,0.0623501907757224
10.639672,17.794370393332112,0.0621802536400967
10.643764,17.814682172577715,0.0620022051349383
10.64784,17.838128502048097,0.0618125782582373
10.651928000000002,17.86392288976818,0.0616099306135845
10.656015999999996,17.89105739396301,0.0613975042154893
10.660096,17.915943147132545,0.0611779293244927
10.664183999999995,17.932532498627104,0.0609701656547982
10.668212,17.951248458571495,0.060754454964118
10.672296,17.975004127390612,0.0605236693470117
10.676388,17.996178870484634,0.0602926973941924
10.680475999999995,18.008492169728473,0.0600665500390978
10.684563999999998,18.01811381834727,0.0598424942866014
10.688652,18.02425732436596,0.059618583665721
10.692744,18.03185167175933,0.0593828536839107
10.696836,18.03439489260244,0.0591433547149891
10.70092,18.037159563245417,0.0588993207130983
10.705004,18.04137507526308,0.0586432685300591
10.709092000000002,18.047041428655422,0.0583753162108
10.713184000000002,18.05707172384737,0.0580890110192019
10.71728,18.067102019039314,0.0578027211480435
10.721372,18.071638288081253,0.0575219765673158
10.725460000000002,18.071577747848192,0.0572465238432066
10.729544,18.071627932515067,0.0569692295045132
10.733631999999997,18.07279678385683,0.0566874943803497
10.737723999999996,18.074187084998456,0.0564016616612792
10.741812,18.080395645214946,0.0561071204939409
10.745904,18.090635972531228,0.0558016365347884
10.749991999999995,18.09930331589736,0.0554931070045993
10.754088,18.106397675313325,0.0551814849433652
10.758183999999996,18.11942896047904,0.0548567968493884
10.762275999999996,18.13784354689483,0.0545300255623415
10.766367999999996,18.158163291960573,0.0542003971094231
10.770459999999996,18.181396137451223,0.0538652051750626
10.774551999999996,18.203510316266996,0.0535361084353363
10.778643999999996,18.23403162165767,0.0531978134194174
10.78274,18.267355302573325,0.0528576231283419
10.786827999999996,18.297655158164133,0.0525257365919394
10.790916,18.321796638205328,0.0522113661664818
10.795011999999996,18.343135742721557,0.0519010021188684
10.799103999999996,18.363688355262703,0.0515886377970984
10.803203999999996,18.38682189352895,0.0512774823359673
10.8073,18.407153056270232,0.0509686032300871
10.811392,18.41885564263673,0.0506723490507623
10.815487999999998,18.419581594378748,0.0504004227871477
10.819588,18.41067102797104,0.050143255615165
10.823683999999997,18.388202901213752,0.0499083315797649
10.82778,18.356098256306737,0.0496878657800126
10.831872,18.314246368350062,0.0494838723282191
11.139071999999995,3.8760186661527016,0.0493521552808249
11.143168,3.695998831299597,0.049297707093761
11.147263999999996,3.5196785888464746,0.0492089257574174
