Time,Force,Position
11.413832000000005,12.156382396367556,0.1438886424984145
11.417916000000002,12.226235204222869,0.1435414690828084
11.422003999999998,12.285153596300445,0.1431555976160046
11.426036,12.32822000630101,0.142811549852354
11.43012,12.3580267776252,0.1425169274068665
11.434208000000002,12.385905554948373,0.1421913506955978
11.438300000000002,12.412764972821064,0.141853580815825
11.442387999999998,12.43671129026885,0.1415459935813384
11.446484000000002,12.461776274391514,0.141224102206039
11.450576000000002,12.487394883013856,0.1408825970188339
11.454559999999995,12.518950417385945,0.1404808547163078
11.458648,12.54926514250768,0.1400730045126715
11.46274,12.577552566403993,0.1396630809277436
11.466828000000003,12.603369789475138,0.1392670550440344
11.470912000000002,12.627946203295933,0.1388666714665847
11.475004000000002,12.647482908241996,0.138520472874814
11.479043999999998,12.66467155493836,0.1382105861821582
11.483088,12.68332246068494,0.1379006295378949
11.48718,12.702759858406605,0.137590304447114
11.49126,12.72791273207814,0.1372308527303214
11.495352,12.752733431049874,0.1368829414535651
11.499440000000003,12.7873127907468,0.1364714967761892
11.503528,12.823698001869282,0.1360764368458666
11.50762,12.867825990167065,0.135641012459543
11.511708000000002,12.913305512615135,0.1352097093331483
11.515800000000002,12.954421093263612,0.1348331299539424
11.519892000000002,12.992512848587248,0.1344885418442122
11.523984000000002,13.034304196310869,0.1341178003665815
11.528071999999998,13.074644702659802,0.133773093145646
11.53216,13.114542309408993,0.1334453276845223
11.536252,13.152424032608296,0.1331400946423012
11.540288,13.195799781957598,0.1327991852249542
11.544376000000003,13.240748515257058,0.1324569263042391
11.548468000000003,13.288831798781294,0.1320853285266554
11.552556,13.336693632505662,0.1317241228069219
11.556644000000002,13.385330540529573,0.1313360131536984
11.560731999999998,13.429592089078357,0.1309735054770649
11.56482,13.473731495051677,0.1305923250628871
11.568912,13.516297917074835,0.1302175147864021
11.573007999999998,13.556615588072706,0.1298476857759304
11.577096,13.602083692845245,0.1294301486537603
11.581183999999997,13.639698295542544,0.1290574039192277
11.585272,13.672372496589512,0.1287036592804111
11.589360000000005,13.69730392046118,0.1283896544760999
11.593448,13.720994535082491,0.1280684299858602
11.597536000000002,13.747365382653312,0.1277084684600869
11.601612,13.774289854723808,0.1273309248421635
11.605695999999998,13.794479491393949,0.1269815000239669
11.609776,13.812187509563389,0.1266158370415565
11.61386,13.828765443382412,0.1262392135532407
11.61794,13.842418859101,0.1258622114893894
11.622016,13.847210830969402,0.1255346673721301
11.626099999999996,13.84515724253752,0.1252374580928863
11.630184000000003,13.83402076045558,0.1249953527634026
11.634263999999998,13.818951818498256,0.1247605898384729
11.638347999999995,13.801301950815832,0.1245369116033467
11.642436,13.785213649408028,0.1242856712787761
11.646524000000005,13.766544422275125,0.1240457252649265
11.650612,13.743499835667098,0.1238271285290152
11.654692,13.717763598434033,0.1236231866147575
11.658779999999997,13.687541276825913,0.1234438702388517
11.662871999999997,13.660342780542628,0.1232379467921523
11.666956000000004,13.637176051359134,0.1229970211503021
11.67104,13.613898597275702,0.1227590442598725
11.675127999999996,13.592415576942296,0.1225107604752612
11.679151999999998,13.566900789509102,0.122296206501402
11.683179999999997,13.543856202901075,0.122073893351057
11.687259999999998,13.531013176617982,0.1217875406215057
11.691336000000003,13.528604578135226,0.121455254898031
11.695424,13.53046061422766,0.1211073361325588
11.699512000000002,13.535351893320469,0.1207586728076371
11.703604000000002,13.546302240738486,0.1203844517847636
11.7077,13.56589258220682,0.1199746587710924
11.711792,13.595241584400346,0.1195174829161508
11.715880000000002,13.630317480219285,0.1190469716585749
11.719976,13.6765035709137,0.1185374179461235
11.724064000000002,13.72830583033359,0.1180210604858173
11.728156000000002,13.787407967329042,0.1174923193381285
11.732243999999998,13.853023489924976,0.1169493201679624
11.736332,13.9251523981214,0.1163949456222651
11.740412000000005,14.000992316393337,0.1158454996911029
11.744496000000002,14.07863808609083,0.1153147585413233
11.748588000000002,14.157978982313947,0.1148074691419601
11.752675999999996,14.24326822196234,0.1142831090609643
11.756767999999996,14.33058476283616,0.1137702535821949
11.760859999999996,14.42496831381014,0.1132303855015543
11.764948,14.518798240284449,0.1127118787248336
11.769043999999996,14.607145558284278,0.1122513525903745
11.773135999999996,14.687761516784343,0.1118455276693122
11.777227999999996,14.766472316634449,0.111455384102376
11.781324,14.847088275134514,0.1110577250928891
11.785419999999998,14.927593508734644,0.1106671364219782
11.789516000000004,15.005517816609672,0.1102891603675233
11.793608000000004,15.08254490760969,0.1099200743035696
11.797704,15.157888289759615,0.1095588434525174
11.801800000000004,15.226496836509185,0.1092199164245155
11.805896,15.288824865133671,0.108909442385993
11.809991999999998,15.343299391682928,0.1086276815953031
11.814088000000002,15.395857341906687,0.1083369423725731
11.818184,15.442466948705173,0.1080639224796689
11.822284,15.487159979178164,0.10778168785335
11.826379999999997,15.528707041750849,0.1075025123423138
11.830476,15.564416485798189,0.1072366487135402
11.834568,15.59697996194522,0.1069743716209975
11.838604,15.62762686176676,0.1067024923659406
11.842636000000002,15.65411985191305,0.1064406799474225
11.846676,15.678585540833913,0.1061716706661984
11.850768,15.701921145404356,0.1058918396205201
11.854812,15.727715533124435,0.1055878466855074
11.858844,15.755636529294344,0.1052701368057434
11.862892,15.781087324639088,0.1049580882320896
11.866936,15.805075860933608,0.1046449785905194
11.871024000000002,15.83119100567796,0.1043184229702224
11.875116000000002,15.855057399397015,0.1039914441106099
11.879147999999995,15.879931734891017,0.103659972521398
11.883232000000003,15.905703287260032,0.1033267641553248
11.887316000000002,15.935506606728833,0.102970391765149
11.8914,15.969452418197356,0.1025876654215516
11.895484,16.005303388315834,0.1021981579794174
11.899559999999996,16.04641551710892,0.10177515561019
11.903648,16.08663042902699,0.1013567008854829
11.907723999999998,16.127509690344674,0.10092202146129
11.911812,16.171744951687,0.1004619608059358
11.915892000000005,16.215304445954185,0.1000007050983805
11.919971999999998,16.25718023137128,0.0995438029480408
11.924052,16.294791382213184,0.0990959018477686
11.928132000000002,16.334861316204723,0.0986271666030216
11.932219999999996,16.370666615621072,0.0981665404367205
11.936308,16.40512038088714,0.0977022073439167
11.940340000000004,16.430601977403086,0.0972664041918243
11.944416,16.45002450559382,0.0968438925024064
11.948440000000002,16.466190340984312,0.0964241525336206
11.952532,16.475399891174582,0.0960214816086849
11.956608,16.481131298764733,0.0956270382466269
11.960688,16.4829302464795,0.0952325106215463
11.964768000000005,16.481693951193897,0.0948348596687852
11.968847999999998,16.475185079558155,0.0944505856746019
11.972936,16.466206007097252,0.0940689223736235
11.97702,16.450835691611324,0.0937082203982513
11.981108000000004,16.42773401662563,0.093382210945125
11.985195999999998,16.40182996611497,0.0930660863233992
11.989287999999998,16.375593740904502,0.0927580918887781
11.99332,16.34723090724421,0.0924632107484986
11.997364,16.316741465134083,0.0921812251432383
12.001459999999998,16.285919848324156,0.0919071147188397
12.005551999999998,16.26295173358946,0.0916161999620728
12.009643999999998,16.234501010380296,0.0913623923881032
12.013679999999995,16.21390378924637,0.0910919316266464
12.017768,16.19432592756292,0.090836292127835
12.02186,16.18260156795471,0.0905642827838547
12.025955999999995,16.18231957792178,0.0902672339434197
12.030052,16.187875206414194,0.0899653302864077
12.034147999999998,16.19725256988206,0.0896682675868153
12.038239999999998,16.214261985625292,0.0893625032281999
12.042328,16.23139354394399,0.0890738819295507
12.04642,16.25302260431328,0.0887947482971863
12.050507999999995,16.280489283207917,0.088511629199184
12.054596,16.311777697078,0.0882352699783676
12.058688,16.349800946348445,0.0879527599028791
12.062684,16.390970163519192,0.0876720980180888
12.066779999999998,16.437411957040077,0.0873817506863968
12.07088,16.48262435898614,0.0871025241126072
12.074976000000005,16.529077570182558,0.0868333687379345
12.079072,16.57811170710407,0.0865609096018386
12.083104000000002,16.628940277775612,0.0862849283926748
12.087191999999998,16.67416409739721,0.0860289384068406
12.09128,16.722190292543782,0.0857636651907291
12.095372,16.766184720590566,0.085519203956215
12.099459999999995,16.806479556237367,0.0852863485583935
12.1035,16.841058915934294,0.0850746820625162
12.107539999999997,16.868239090831256,0.0848865152284276
12.111572,16.887909356028324,0.0847232590877436
12.115655999999998,16.904777245700412,0.0845689046510005
12.119736,16.91245151682252,0.0844408193324111
12.123824000000004,16.920125787944624,0.084312661376785
12.127860000000002,16.920622324066635,0.0842008451055936
12.131944,16.91203596653859,0.0841119409851653
12.13598,16.89705836598553,0.0840398662328088
12.140068000000005,16.878713347732294,0.0839703548645474
12.144156,16.859803287303848,0.0838945964184148
12.148248,16.835177750925524,0.0838387205780995
12.152275999999995,16.81133870652228,0.0837833820630861
12.156360000000005,16.78413224441886,0.0837304134934627
12.160439999999998,16.754344856590336,0.0836803739589478
12.16452,16.720857876361833,0.0836405874862563
12.1686,16.687370896133327,0.0836005276934613
12.172692,16.651302990179722,0.0835633142548088
12.176772000000003,16.613207783000693,0.0835153234045246
12.180803999999998,16.575334025621533,0.0834616344142267
12.184887999999996,16.53880038471712,0.0833948639775341
12.188979999999995,16.500915209662427,0.0833205677156472
12.193076,16.466275309732445,0.0832264609270206
12.197104,16.432410484102004,0.0831127666472605
12.201204,16.397759166496485,0.0829978306782459
12.205251999999998,16.363661473390643,0.0828687033834375
12.209300000000002,16.32978523008467,0.082733540675876
12.213331999999998,16.300837970753495,0.0825770264430392
12.217423999999998,16.27053917727204,0.0824125988248999
12.221464,16.235975749215388,0.0822516266504661
12.225460000000002,16.202641712733556,0.0820798444653928
12.229491999999995,16.17187718430129,0.0818841864750566
12.23358,16.141887730168573,0.0816687084990054
12.237632,16.113349117410536,0.0814366491358948
12.24168,16.0842454624773,0.0811972904912828
12.245732,16.058387082668766,0.08093777098605
12.249776,16.027477576309966,0.0806799270437546
12.253780000000004,15.997686736626052,0.0804137333193742
12.257828,15.967674447142269,0.0801520438939986
12.261916000000005,15.936875665683406,0.0798885250220348
12.265972,15.90820349267437,0.0796122486158538
12.270003999999997,15.88110430361549,0.0793370788367304
12.2741,15.854005114556612,0.0790613171953183
12.278128,15.82747096767294,0.0787914327803701
12.282176000000003,15.805865804764064,0.0785005307141107
12.286224,15.787960234255172,0.078199845663847
12.290204,15.776778081471102,0.077875580828268
12.294287999999998,15.767390362437055,0.077547926711201
12.298384000000002,15.764283161528091,0.0772079342461626
12.302384,15.766780711669066,0.076851754211345
12.306436,15.769056812010174,0.0765014999257096
12.310531999999998,15.772008679426424,0.0761553683121915
12.314576,15.772833938392845,0.0758208651970716
12.318672000000005,15.77803455683439,0.0754817253882903
12.322703999999998,15.786602592976111,0.0751418164692185
12.326795999999998,15.792933295768073,0.0748161812949248
12.330824000000003,15.809244109085096,0.0744706294425862
12.334908000000002,15.831159673452062,0.0741115707437117
12.338984,15.858790713768904,0.0737360376006715
12.343068,15.8932558967105,0.0733377371330394
12.347151999999998,15.930412730277132,0.0729372397977098
12.35124,15.971379881143688,0.0725271709367808
12.355327999999997,16.012568481810106,0.0721124784715049
12.359416,16.056780907801368,0.0716869946280821
12.363499999999998,16.10390643421753,0.0712544913373138
12.367583999999995,16.144529992708744,0.0708380089326242
12.371668000000003,16.18246190057492,0.0704277750661332
12.375747999999998,16.221623200015916,0.0700103313688056
12.379824000000005,16.262124615931658,0.0695837247628469
12.383912,16.302515306947473,0.0691617467812774
12.387992,16.341333014013127,0.0687374516340687
12.392076,16.382277329528613,0.0683047291887999
12.396151999999995,16.42311092014416,0.0678746556114199
12.400232,16.461252860134675,0.0674501298842535
12.404312,16.503648017024844,0.0670083395550806
12.408392000000005,16.552988041439708,0.0665453526349651
12.41248,16.595936822829554,0.0660941535898093
12.416563999999996,16.635075286919484,0.0656547868651392
12.420644,16.67141137548444,0.0652232000619388
12.424732000000002,16.7028184800746,0.0648090162794276
12.428816,16.73209897621493,0.0644064396652428
12.4329,16.758577096830294,0.0640108699735369
12.436984,16.78853336004577,0.0636156654379004
12.441064,16.817481681486296,0.0632256572544674
12.445144000000004,16.84531133625194,0.0628438109388296
12.44922,16.88255605936744,0.062444960581488
12.453295999999998,16.91868211580806,0.0620529056661459
12.457384,16.953800230473735,0.0616661871717027
12.461468,16.983878636264677,0.061297267778139
12.465556000000005,17.016870142480524,0.0609232416822888
12.469640000000002,17.053671965996287,0.0605424898406596
12.473716,17.08744996418721,0.0601727061587649
12.477796,17.12716488812788,0.0597879307128636
12.48188,17.167998478743428,0.0593990751392319
12.485964,17.202895143609236,0.0590286464290731
12.490052000000002,17.23409221607506,0.0586657070452461
12.494136,17.271901981365765,0.058292553517357
12.498228,17.309035979581335,0.0579159579278542
12.502323999999998,17.347177919571845,0.0575377299682704
12.506420000000002,17.38643852623724,0.0571549853967018
12.510516,17.42625275740231,0.0567617173768123
12.514612000000003,17.47099597254218,0.0563587013359687
12.518708,17.51024516153204,0.05596206063075
12.522796000000003,17.54758919187195,0.055569764642975
12.526888000000003,17.581344354711806,0.05518027677026
12.530972000000002,17.60165268210202,0.0548162938998545
12.535064000000002,17.62397689304213,0.0544474316439557
12.539148,17.642490786682316,0.0540852555987102
12.543235999999997,17.665036447422295,0.0537127329030607
12.547320000000004,17.677048373137527,0.0533584738580015
12.551404000000002,17.68222615622801,0.0530184494790556
12.555496000000002,17.685498780668528,0.0526810690019348
12.559588000000002,17.68182653758436,0.0523606469106842
12.563675999999996,17.671320151875435,0.0520535406007116
