Time,Force,Position
13.117439999999998,17.08492807907892,0.1316218833006403
13.121535999999995,17.13757391885155,0.1312456155391169
13.125632,17.186054431273394,0.1308665166493853
13.129732,17.227345791019612,0.1305061374974029
13.133827999999998,17.263131706940293,0.1301575224134258
13.137924000000002,17.291396295485534,0.1298358266807767
13.142016000000002,17.31561769925546,0.1295245401171902
13.146115999999996,17.332882817825162,0.129243523556887
13.150207999999996,17.343191651194637,0.1289920078329109
13.154307999999997,17.349457299788796,0.1287502907169163
13.158399999999997,17.34966388005774,0.1285326939394035
13.162499999999998,17.35009191012655,0.128309433960445
13.166591999999998,17.351527881970313,0.1280788069297652
13.170687999999997,17.35206663693906,0.1278521915323475
13.174784,17.345538381807646,0.1276568077492366
13.178879999999996,17.34326334357589,0.1274269817349657
13.182979999999995,17.33683439566888,0.1272096683554742
13.187076,17.330516172661802,0.1269895049167702
13.191168,17.31937969057987,0.1267988533062489
13.195267999999995,17.308132483597987,0.1266108846005944
13.199359999999997,17.295545160141366,0.1264385304687758
13.203459999999996,17.28317928648461,0.1262600933117666
13.207556,17.26599515375299,0.1261105480788411
13.211651999999996,17.247913804146357,0.1259648022254499
13.215684,17.23184833808962,0.125804916489859
13.219771999999995,17.217466580882974,0.1256396246066209
13.223808000000002,17.203306273476194,0.1254682520577382
13.227887999999997,17.187572982119264,0.1252989284730446
13.231979999999997,17.16825082326228,0.1251454451837658
13.236063999999995,17.15061237325539,0.1249863326189921
13.240115999999997,17.136562790748545,0.1248104831868226
13.244204,17.12128381666689,0.1246472553811749
13.248231999999998,17.109482985185345,0.1244706540856923
13.252312,17.10037380432883,0.1242817766161792
13.256384,17.09283760742247,0.1240902609239821
13.260468,17.08328552696622,0.1239125984907655
13.264504,17.07687941441027,0.1237303962185656
13.268587999999998,17.069808952454718,0.1235655349019921
13.272668,17.0650979664244,0.1233972798955432
13.27676,17.06195996434423,0.1232268489000121
13.280847999999995,17.056806078714164,0.1230700231943347
13.284935999999998,17.05793271120919,0.1228857691703491
13.289024,17.066015628904434,0.1226758242988309
13.293111999999995,17.076347297624977,0.1224656113992041
13.2972,17.08422018319588,0.1222806726603514
13.301287999999996,17.089966460316962,0.1221123040632582
13.305376,17.100763863988313,0.1219295063867908
13.309463999999997,17.117398886185,0.1217312839024455
13.313543999999997,17.146262769932054,0.121487983400922
13.317624,17.18017778022937,0.1212312429286046
13.321707999999996,17.217914525502138,0.1209737710834063
13.325783999999995,17.258797238675214,0.1207129957388843
13.329868,17.29654540162351,0.1204759072021248
13.333947999999996,17.33575582362203,0.120240945082898
13.338027999999998,17.379120155295805,0.1199965303698826
13.342108,17.424511788195,0.1197581494478724
13.346192,17.470357738369476,0.1195285295615899
13.350275999999996,17.518895339168985,0.1192886105096979
13.354351999999995,17.567322215068554,0.1190522109418179
13.358443999999997,17.617654249618084,0.1188070291001203
13.362531999999998,17.675053294267776,0.1185366048992581
13.36662,17.729317788692693,0.1182905133472879
13.370712,17.78358228311761,0.1180466889303386
13.374807999999998,17.842554311717457,0.117781645666259
13.378903999999997,17.905447382517153,0.1174950577379945
13.383,17.9722614955167,0.1171872744477101
13.387095999999996,18.039407783216056,0.1168744557551022
13.391192,18.104083870090243,0.116568526323462
13.395287999999995,18.16370883041416,0.1162783786099806
13.399384,18.221085039712783,0.115990107971007
13.403476,18.274639514035968,0.1157043079773977
13.407571999999998,18.328071845783672,0.1154049190514828
13.41166,18.383630785981207,0.1150916873887741
13.415747999999995,18.43963262577848,0.1147699992340098
13.419836,18.494504381225344,0.1144412054260804
13.423923999999996,18.549475443896604,0.1140933014245479
13.428015999999996,18.603537872017323,0.1137325816810677
13.432104,18.6543436073378,0.1133779377444391
13.436176,18.705592242258017,0.1130139366936299
13.440268,18.75257624260304,0.1126616973595025
13.444355999999996,18.791928190672703,0.1123288839703231
13.448447999999996,18.82723695396704,0.112001729100593
13.452535999999998,18.85782676541092,0.1116790122817529
13.456631999999995,18.880784524579425,0.1113752621945026
13.460728,18.90138280782271,0.1110740706181592
13.464823999999997,18.914914080965836,0.1107950609784135
13.468923999999998,18.92317277775881,0.1105325678186333
13.473015999999998,18.927609739576347,0.1102698474481082
13.477112000000002,18.927892791718627,0.1100147455269662
13.481204000000002,18.92211677553569,0.1097755637320331
13.4853,18.91476777540261,0.1095371584951937
13.489395999999996,18.903043415794397,0.1093111724296948
13.493484,18.886600104335724,0.1090875691727288
13.497579999999996,18.86420844945177,0.1088769385858521
13.501679999999997,18.836654943117612,0.1086785956352537
13.505776,18.804726077308334,0.1084919125059993
13.509871999999998,18.769429793798885,0.1083112582942716
13.513967999999997,18.736481568539126,0.1081115177868368
13.518059999999997,18.701284592254076,0.1079097710146936
13.522159999999996,18.66630906576889,0.1077023186846207
13.526216000000002,18.63446808950848,0.1074753759496998
13.530315999999996,18.605872388372784,0.1072264342682232
13.534415999999997,18.577055237437214,0.1069819544643454
13.538512,18.549135303376666,0.1067339015324034
13.542607999999998,18.519642385365955,0.1064859419081701
13.546703999999997,18.496872885080062,0.106207368325025
13.550795999999997,18.47320616791917,0.1059309471091857
13.554892,18.45257469375864,0.1056554380365271
13.558924,18.434745595123086,0.1053684613757358
13.563016,18.42588866523765,0.1050534926990219
13.5671,18.41871544420229,0.1047353316483241
13.571192,18.413225932017035,0.1044137321991762
13.575279999999996,18.411890329507035,0.1040857431903419
13.579371999999996,18.41381141979727,0.1037540253896642
13.58346,18.419997144662695,0.1034135485644974
13.587552,18.43224193785333,0.1030593474116613
13.591640000000002,18.44763269894428,0.1027046689894931
13.595724,18.46190479336035,0.1023586383320701
13.599816,18.4775284219267,0.1020176308886587
13.6039,18.49663019309316,0.1016690946400177
13.607987999999995,18.517304948209777,0.10132151150586
13.612075999999998,18.53641813705177,0.1009922051919331
13.616167999999998,18.558112251618866,0.1006579522209024
13.620263999999995,18.582276567011128,0.100321401823392
13.62436,18.611824183653457,0.0999707397577866
13.628455999999996,18.639134466946025,0.0996364593493755
13.632552,18.670033617738643,0.0992923719521395
13.636647999999996,18.70216216010608,0.0989391459617216
13.640739999999996,18.732053369123747,0.0986012749574132
13.644836000000002,18.755664060016333,0.0982821179760193
13.648928000000002,18.77848825893384,0.0979633881628781
13.65302,18.80601999202629,0.0976287876115404
13.657115999999998,18.835678333568552,0.0972835786437443
13.661211999999995,18.863763691160663,0.0969384981825207
13.665308,18.891062556777705,0.0965942563035191
13.669403999999997,18.915891221569574,0.0962534877831197
13.673492,18.93824968553628,0.0959152162215862
13.677587999999997,18.96060814950298,0.0955776290503085
13.681679999999997,18.98329878816949,0.0952333172002383
13.685776,19.002622009135823,0.0948938963293324
13.689871999999998,19.01947502927699,0.0945572408853782
13.693968000000002,19.04047054141788,0.0942003777361935
13.698064,19.06011451940848,0.0938388759900637
13.702159999999996,19.079414905023743,0.0934683143386337
13.706256,19.092213322714063,0.093118630886058
13.710351999999997,19.104446698229168,0.0927641413282435
13.714448,19.116004306669133,0.09240764433715
13.718535999999997,19.124083772508985,0.0920573846823384
13.722624,19.13663790504836,0.0916799492633371
13.726724,19.148294820712728,0.0913041790194336
13.730816,19.16297556170193,0.0909157948453887
13.734911999999998,19.172383726341,0.0905383731669646
13.739012,19.17618713993013,0.0901784165695741
13.743104,19.18110922019414,0.0898115585643167
13.747204,19.185466258282943,0.0894398142879765
13.751235999999995,19.187242370646647,0.0890715284087758
13.755323999999998,19.192939525210203,0.088688679163164
13.759415999999998,19.194150595398703,0.0883150414727662
13.763504,19.193677956737112,0.0879429174116331
13.767591999999995,19.195331926525345,0.0875598880470274
13.771624,19.194970012763683,0.0871850727774795
13.775659999999998,19.187319639102004,0.0868276663286365
13.779751999999998,19.179669265440317,0.0864701408615748
13.783779999999997,19.168208574478708,0.0861242983524859
13.787863999999995,19.1590959417668,0.0857624134900733
13.791895999999998,19.149307541979752,0.0853972825027155
13.795931999999995,19.141080708467328,0.0850165270077009
13.80002,19.13486975850479,0.0846270291393597
13.804107999999996,19.121824665917504,0.084261362078873
13.808196,19.109222472929957,0.0838853552551743
13.812223999999995,19.092134195567336,0.0835178822510373
13.816307999999996,19.07425942622965,0.083148959411372
13.820392000000002,19.05761404846677,0.0827704506146285
13.824471999999997,19.04208733737879,0.0823854184633318
13.828551999999998,19.02185309211587,0.0820122610691995
13.832579999999997,19.00341328060297,0.0816351314726322
13.836659999999998,18.97757428429011,0.0812750350546333
13.840743999999995,18.957672213727,0.0808926855175487
13.844827999999996,18.936762201388937,0.0805134284469538
13.848919999999996,18.91372558060105,0.080144002718597
13.853016,18.889902467838084,0.0797725710116532
13.857111999999995,18.869889672375034,0.0793891101179345
13.861195999999996,18.848193168061897,0.0790056322755173
13.865292,18.831093473023756,0.0786116244272581
13.869387999999995,18.810748502860896,0.078233130481856
13.873476,18.793095183323075,0.0778499628448347
13.877503999999998,18.77006998021072,0.0774925021453684
13.881595999999998,18.7497364277234,0.07713073209752
13.885687999999998,18.73590484316103,0.0767537701359442
13.889783999999995,18.725108501599035,0.0763827028656665
13.893875999999995,18.71577441908726,0.0760153830170049
13.897972,18.70689465385076,0.0756554220217008
13.902067999999996,18.701382306314432,0.0752949214729795
13.906111999999997,18.69621355115345,0.0749452175175176
13.910208,18.697103864317672,0.0745903198660204
13.914303999999998,18.69766200278209,0.0742424453753877
13.918399999999997,18.705176426446734,0.0738885090758729
13.922496,18.712137225611706,0.0735471824364638
13.926583999999997,18.723584109151737,0.0731998682522615
13.930671999999998,18.73369087621701,0.0728627006299012
13.93476,18.74918094453236,0.0725183268619813
13.938847999999997,18.765014605223044,0.072184818400605
13.942939999999997,18.783883508914105,0.0718584135474459
13.947028,18.801523021030352,0.0715409721710058
13.95112,18.82196490867156,0.0712174011945116
13.955207999999995,18.840845230038152,0.070909709239128
13.959299999999995,18.863203694004856,0.0705995806387653
13.963387999999998,18.881308941071904,0.0703085364899149
13.967471999999995,18.89739830458906,0.0700252640710122
13.97156,18.91359839300615,0.0697404431429239
13.975652,18.92756114807348,0.069466814228407
13.979744,18.94511277064085,0.0691893068724182
13.983831999999996,18.959862017683253,0.0689179594496089
13.98792,18.96990373055073,0.0686563516679768
13.992012,18.9819613269681,0.0683890160413953
13.996099999999997,18.9987264575604,0.0681129126541371
14.000191999999997,19.01291066242759,0.0678380995197324
14.004279999999998,19.024968258844964,0.0675724361544054
14.008371999999998,19.034112754837423,0.0673147429921557
14.01246,19.0490834516797,0.067042611081561
14.016552,19.062935481847088,0.0667768089960295
14.020647999999998,19.079922062239252,0.0665000918499915
14.024743999999997,19.098248759106177,0.0662143982243155
14.028843999999996,19.117694122647976,0.0659240116304932
14.032935999999996,19.14173629546477,0.06562812846338
14.037032,19.16711858475632,0.0653231514577776
14.041124,19.19373026562268,0.0650114177274094
14.045219999999995,19.22347649671381,0.0646887486074192
14.049316,19.254230669579893,0.0643640095807203
14.053408,19.28520629224585,0.0640360233964256
14.057495999999997,19.321553798486335,0.0636870721724369
14.061587999999997,19.3555418288016,0.0633348410050236
14.065684,19.38852191734191,0.062985796497911
14.069779999999998,19.42766038143184,0.0626174538896644
14.073871999999998,19.466123078446632,0.0622475148106439
14.077967999999997,19.49740804046132,0.0618840958942312
14.082064,19.5327247695758,0.0615106220692303
14.086156,19.568816572989817,0.0611223865422855
14.090248,19.60613776797865,0.060727708199682
14.094343999999996,19.639194328392307,0.06033310775556
14.09844,19.672018021330555,0.0599273232750319
14.102535999999995,19.69945841301873,0.0595260820258024
14.106627999999995,19.7243178789818,0.0591255511905052
14.110719999999995,19.745699202344767,0.0587254960002864
14.114816,19.76023496540744,0.0583240198371728
14.118911999999998,19.772411252544885,0.0579181394658989
14.123012,19.785030439282068,0.0575047789690949
14.127107999999996,19.796973858944103,0.0570884576324189
14.131204,19.80543913600603,0.0566720140324362
14.135296,19.81031554556791,0.0562574839590686
14.139391999999996,19.81149236272981,0.0558473062930739
14.143488,19.81188268791663,0.055435289812058
14.147583999999998,19.81092147895317,0.0550147520774837
14.151684,19.803569026964688,0.0545987161400222
14.155779999999996,19.78780944840129,0.0541914170407261
14.159871999999996,19.773057811612848,0.0537804801872947
14.163971999999998,19.74978832334956,0.0533803686067837
14.168068000000002,19.72338428486149,0.0529886914215613
14.172164,19.691596945123347,0.0525974544893985
14.176256,19.65790444673525,0.0522075619571253
14.180351999999996,19.616148414147588,0.0518350224800885
14.184448,19.57036061446013,0.0514699345799371
14.188543999999997,19.51773867214792,0.0511151363580364
