Time,Force,Position
19.559576,8.724962503424084,0.1485938072223862
19.56366,8.78778255420584,0.1482678165062133
19.5678,8.838438797635037,0.1479264365406919
19.571884,8.880298651411854,0.147535192821625
19.575964,8.909563215911906,0.1471860139298958
19.580052,8.938350627785622,0.1467575944934464
19.584136,8.965011431209508,0.1463742897950884
19.58822,8.994031710558627,0.1459787475959029
19.592308,9.02473569875783,0.1455737540605319
19.596396,9.058807104657214,0.1451410425270382
19.600492,9.097929637106866,0.1446672884271105
19.604584,9.14174828605591,0.144101737292586
19.60868,9.181413025329702,0.1435741482273725
19.612768,9.226461065853565,0.1429937893552106
19.616864,9.272627773052308,0.1423918703537423
19.62096,9.313854078600722,0.1418241203618971
19.625048,9.349254183299326,0.1413339666570133
19.62914,9.382516261872563,0.1408463712809192
19.633236,9.41140298097068,0.1404031427889879
19.637332,9.44162981654355,0.1399292710540739
19.641424,9.469275726391317,0.1394771286159824
19.64552,9.49668876876368,0.139002426231398
19.649616,9.518829234785908,0.1385786822932781
19.653712,9.538610224882904,0.1381690933397251
19.657748,9.556253188854544,0.1377608530171497
19.661828,9.5652675764514,0.137459725570756
19.665912,9.570128054373,0.1371872821545591
19.669996,9.573304823444513,0.1369263948836305
19.674088,9.572106233040904,0.1367035725094672
19.67818,9.57281280128725,0.1364588806168531
19.682256,9.570262676733355,0.1362321429389055
19.68634,9.563005018004532,0.13605879230644
19.690372,9.552944983750733,0.1359157711827266
19.694424,9.536715156271791,0.1358257069681354
19.698504,9.520817503492651,0.1357192489881852
19.702532,9.507500776438617,0.1355928561615373
19.706616,9.499899525334454,0.1354001329320101
19.710692,9.495100649755264,0.1351775100193381
19.714772,9.488839515125854,0.134955083306285
19.718852,9.482246205796637,0.1347485528416706
19.722936,9.475763621367358,0.1345360687255233
19.727028,9.468838137338338,0.1343448363270771
19.731112,9.465612245709298,0.1341154687283802
19.735196,9.460259745630433,0.1339183805766329
19.739292,9.45457507085176,0.1337371856708259
19.74332,9.456511030672925,0.133469991384787
19.747356,9.455988207344454,0.1332500915599775
19.751436,9.456141151091126,0.1330321918885163
19.755516,9.45708058681288,0.1328109790039214
19.759548,9.45398825543484,0.1326438411859691
19.763628,9.455160558631992,0.1324469820315239
19.76772,9.459135237354117,0.132220962386097
19.771744,9.466477333776416,0.131973470795364
19.775828,9.479202731448789,0.1316782851059275
19.779912,9.491706679321286,0.131394340803279
19.784,9.507013002718756,0.1310830040172405
19.788096,9.519406225691323,0.130806730284042
19.792188,9.52877562333905,0.1305711652018528
19.796276,9.539718004936931,0.1303303956110711
19.800372,9.55346276205978,0.1300626152629123
19.804464,9.570574936882805,0.1297749025533376
19.80856,9.589481545455858,0.1294729251975518
19.812652,9.60626154557908,0.1292032773681792
19.81674,9.62494670435226,0.1289136287308998
19.820832,9.646544963550346,0.1285928405133657
19.82492,9.663214238773634,0.1283319301294079
19.829008,9.685598989946795,0.1280109717830465
19.833096,9.712802000194827,0.1276398414950941
19.83718,9.746506978367805,0.1272112306474307
19.841268,9.784132998740636,0.1267388337106561
19.845352,9.82119397693826,0.126263232638083
19.84944,9.85735773826087,0.1257983185571367
19.853532,9.893067182308211,0.1253233947773086
19.857624,9.926871467705594,0.1248713226372835
19.86172,9.965272562377969,0.1243840475566259
19.865804,10.00277644017533,0.1239085226012011
19.869892,10.048011677472465,0.1233604894960819
19.873976,10.09246042279452,0.1228143341829889
19.878064,10.142513919166516,0.1222249801146832
19.882152,10.191670198663504,0.1216481656916703
19.88624,10.24496897016021,0.1210302762812221
19.890328,10.29792414928158,0.1203997148203458
19.894412,10.357824195927645,0.1197055462599391
19.898504,10.41805641727351,0.1190015665885529
19.902592,10.477612871544231,0.1183018740193013
19.906684,10.54243048448956,0.1175444433013792
19.910772,10.606007288184538,0.1167831426911383
19.91486,10.668686875004504,0.1160375210424118
19.918948,10.7259831605744,0.1153350939270545
19.92304,10.783500895944163,0.1146296853457967
19.927132,10.839224197563905,0.1139398406042478
19.93122,10.893153065433626,0.1132630353583026
19.935316,10.946406166228202,0.1125865781707375
19.939408,11.000999383497527,0.1118915460064264
19.943504,11.0514386910916,0.1112170998069358
19.9476,11.100415739635457,0.1105441386637187
19.951696,11.141993603379344,0.1099292684668598
19.955792,11.18760323422302,0.1092793517252368
19.959888,11.228948230491506,0.1086538357312026
19.963984,11.267933750834764,0.1080331967492064
19.96808,11.29772565262803,0.107474442238255
19.972176,11.324604453996391,0.106940220259861
19.976276,11.33915508658999,0.1064970849937598
19.980368,11.352697777408643,0.1060643747739819
19.984464,11.364446034477272,0.1056429888054871
19.98856,11.368573656946069,0.105277392526272
19.99266,11.368669512315078,0.1049475307031664
19.996756,11.365287225083971,0.1046329297997332
20.000848,11.35809462055295,0.1043446475588805
20.004948,11.347988915597028,0.1040789255936355
20.00904,11.335080835116129,0.1038307211563046
20.01314,11.323291421310111,0.1035691161742885
20.017236,11.311169832804293,0.1033200085174379
20.021328,11.295237926998558,0.1030972414843146
20.025424,11.277179412742994,0.1028955693118439
20.02952,11.261701824212528,0.1026844899379775
20.03362,11.243421860157094,0.1024901920556658
20.037716,11.224244679226649,0.1023000992479565
20.041808,11.200814281396545,0.1021520955262478
20.045904,11.176940983966702,0.1020201864809694
20.050004,11.15755377091192,0.1018659146092177
20.0541,11.139850266707224,0.1017066731776075
20.058196,11.126854296677458,0.1015165729588449
20.062288,11.110048009347777,0.1013518030363067
20.066384,11.090217896693252,0.1012122737215192
20.07048,11.074873868413787,0.1010504600843716
20.074576,11.064237374309252,0.1008580854799845
20.078676,11.052371488629902,0.1006822587229237
20.082768,11.046331803800358,0.1004631755571823
20.086864,11.040513568770686,0.1002352999872426
20.090896,11.037497709265988,0.0999898169061046
20.094988,11.035157616836427,0.0997488336280986
20.099076,11.031023090656843,0.0995160621345244
20.103112,11.026445664877524,0.099299615531287
20.107192,11.024670614623174,0.0990660776653736
20.111168,11.015164204869055,0.0988873606730456
20.115192,11.008127995940097,0.0987037972441257
20.119276,10.995154861261398,0.0985666855273253
20.123356,10.985427001707407,0.0983951165556413
20.12744,10.973793983503455,0.0982358692890728
20.131524,10.961042298624626,0.0980893113968628
20.135608,10.950085047495818,0.0979343126194117
20.139692,10.939803563442156,0.0977834736079119
20.143728,10.935802597513575,0.0976032625426227
20.147816,10.934493282210024,0.0974101373541971
20.151896,10.932176025131533,0.0972256529529242
20.155972,10.927399984903406,0.0970752589123958
20.160048,10.927110029050342,0.0969044684952045
20.164076,10.924472014947575,0.0967633500999668
20.168156,10.921280376345138,0.0966432262954808
20.172236,10.92044821366793,0.0965239868643173
20.17632,10.917600167440828,0.0964212124042684
20.180408,10.916325105163882,0.0963187437483249
20.184496,10.918971085086785,0.0961876980074602
20.188584,10.91837178988498,0.0960896464988089
20.192612,10.922369303958169,0.0959669353999008
20.1967,10.930177135331272,0.0958201880650461
20.200792,10.9423603261795,0.0956572945755612
20.204876,10.95320340055298,0.095515539579435
20.208968,10.97054844285141,0.0953379832172304
20.213064,10.987782760249909,0.0951649106762566
20.217156,11.004009135873456,0.0950009879541644
20.221192,11.022362119946834,0.0948174743067038
20.22528,11.0398178871452,0.0946392075419549
20.229372,11.058170871218575,0.0944576671823016
20.23346,11.077421072166969,0.0942728930312927
20.237552,11.097900664690172,0.0940721583793941
20.241644,11.114902114613264,0.0938832217340994
20.245732,11.131903564536358,0.0936944492505613
20.249768,11.15383399843425,0.0934715375927879
20.253856,11.172286289732028,0.0932600693847089
20.257948,11.192643739679763,0.0930373910128438
20.262036,11.213222639427372,0.0928068636413634
20.266128,11.232904322299968,0.0925813011218327
20.27022,11.258633655822246,0.092310444343268
20.274312,11.288394756444308,0.0920109549073652
20.278396,11.31748008999123,0.0917096006756323
20.282488,11.347905540012905,0.0913901338742193
20.286532,11.379338931809524,0.0910632301192284
20.290628,11.403373138806176,0.0907726024880917
20.294724,11.42572363695274,0.0904845754992443
20.29882,11.447398368024164,0.0901928507843237
20.302852,11.46716794044563,0.0899132409123717
20.306944,11.484467312041929,0.0896365532681727
20.311024,11.501988133438095,0.089352930018278
20.315112,11.519841129534072,0.0890585156375347
20.319204,11.536342591479762,0.0887554447134841
20.3233,11.552057561450374,0.0884514025272351
20.327392,11.565413055495757,0.0881447308288356
20.331492,11.571480089641106,0.0878684089403841
20.335584,11.575076922961294,0.0875929071519267
20.339684,11.578219439006208,0.0873052011047335
20.343768,11.57967824620103,0.0870196783065016
20.3478,11.57776963569568,0.0867386471013751
20.351888,11.57036699904032,0.0864809435666093
20.355972,11.55858900290984,0.0862351699001261
20.360068,11.542214197504364,0.0860082507041843
20.364156,11.520566815748753,0.0857949280719108
20.36824,11.497789349642726,0.0855631284693903
20.372324,11.479265100436354,0.0852946879877973
20.376412,11.463088909479682,0.0849998557140959
20.380456,11.44522900967292,0.084706328175548
20.384528,11.424898909040996,0.0844128455668134
20.38856,11.401090665808956,0.0841256365951279
20.392644,11.373804279976806,0.0838452393628107
20.396724,11.340913143094712,0.0835890230960357
20.400808,11.30802200621262,0.0833314798744378
20.404852,11.27344716048044,0.0830741092255284
20.40888,11.244698515598069,0.0827827276375819
20.41296,11.222673288440518,0.0824550217678735
20.417044,11.204569103482822,0.0821029579577428
20.421072,11.18276532612514,0.0817646044906066
20.425152,11.16118299856733,0.0814169456447373
20.4292,11.140497887884532,0.081065010468867
20.433228,11.119137010126591,0.0807061886801501
20.437264,11.09306859819372,0.0803668404247998
20.441352,11.068229577835668,0.080010955630263
20.44544,11.044398499252562,0.0796461245578818
20.449528,11.019116579294767,0.0793025140217462
20.453568,10.993834659336976,0.0789580811235686
20.45766,10.967655522504172,0.0786151674537607
20.461748,10.942373602546382,0.0782684420318217
20.46584,10.921799216763516,0.0779002209149855
20.469928,10.905710915355709,0.0775179206278134
20.47398,10.889622613947909,0.07713374432886
20.478072,10.879360513389912,0.0767172234178616
20.482164,10.86697180438209,0.0763165691915835
20.486252,10.860974338399284,0.0758946444668494
20.49034,10.85004788844168,0.0755013285557209
20.494436,10.832508745659192,0.0751361058043338
20.498528,10.813850936201822,0.0747806579074421
20.502624,10.800687152894458,0.0744067998168629
20.506712,10.79111223708714,0.0740239801116953
20.510744,10.78433969680479,0.0736303496598052
20.514844,10.782053240897504,0.0732259014181342
20.518828,10.78694451999031,0.0728033859499005
20.522908,10.794084550108412,0.0723909426248857
20.526992,10.803584056151749,0.0719839150938367
20.53104,10.81868831324502,0.0715571350226185
20.535124,10.831444512088597,0.0711546732841734
20.539208,10.8436470864325,0.0707724191955038
20.543288,10.85674687765141,0.0703886984876809
20.547372,10.866822843545483,0.0700240821626881
20.551452,10.879590460064597,0.069655506409582
20.555544,10.89942508668386,0.0692775178165261
20.559628,10.918927538603326,0.0689133017318627
20.563708,10.94403474157273,0.068531343373761
20.567792,10.966228844117229,0.0681648111130753
20.571872,10.991114597286762,0.0677937281169433
20.575952,11.01925704325654,0.0674268996881857
20.580032,11.04975896515155,0.06706812485311
20.584116,11.078023553696797,0.0667301791165912
20.588204,11.105058750667224,0.0664077106838699
20.592292,11.129745889387957,0.0661088075455925
20.59638,11.15219569475892,0.0658300404965208
20.600464,11.17666138367978,0.0655431208665131
20.604556,11.201127072600643,0.0652574006865462
20.60864,11.225592761521504,0.0649723531334044
20.612724,11.246923900217588,0.0647083777942706
20.616816,11.274081239763486,0.0644219489748091
20.620904,11.305159621509237,0.0641199247834059
20.624988,11.337810987205138,0.0638244012336361
20.629064,11.372256786651064,0.0635273187003622
20.633148,11.40479742744703,0.0632389817988228
20.637228,11.42926311636789,0.0629633844374449
20.641312,11.451037154663718,0.0626921240709267
20.645388,11.468103658784614,0.0624354365833809
20.64948,11.48617810468046,0.0621747761049641
20.653564,11.50055295817632,0.0619226521171474
20.657648,11.514473494396908,0.061656948448721
20.661732,11.52524806271719,0.0613813828357564
20.665804,11.537252022612286,0.0610942125329757
20.669888,11.549477432307254,0.0608006269363668
20.67398,11.564161625151854,0.0604832609756202
20.678064,11.578059326021378,0.0601633554355693
20.682152,11.586352275840962,0.0598581148674174
