Time,Force,Position
16.676827999999997,8.330430050208632,0.1488992969068417
16.680924,8.402875201464582,0.1483504882170597
16.685024000000002,8.458670460992913,0.1478545459791879
16.689116000000002,8.50892602366911,0.1472798714937765
16.693212,8.543008847244025,0.1468341506126496
16.697312,8.572815618568221,0.1463940840960998
16.701407999999997,8.599022104716834,0.1459601235914033
16.705443999999996,8.618161580765289,0.1456074684043996
16.709532,8.634155088913436,0.1452713070486295
16.713624,8.647002629161276,0.1449524738904915
16.717712000000002,8.652661016733486,0.1446797819573077
16.721804000000002,8.65819726173023,0.1443752342676785
16.725883999999997,8.657563713501824,0.1441369368321866
16.729968000000003,8.6578159644729,0.1438512080375971
16.734052000000002,8.652009147118761,0.1436250840954804
16.738131999999997,8.644961520514274,0.1433889628805465
16.742216000000003,8.636451634859565,0.1431551293923847
16.7463,8.629957632754754,0.1428887047237682
16.750384,8.621669196899918,0.14264114557461
16.754468,8.612483544170068,0.14240247759048
16.758504,8.597914590190147,0.1422243027912056
16.762584,8.578073059860092,0.1421003737426159
16.766659999999998,8.554077619854782,0.1420076591284003
16.77074,8.52492032839927,0.1419621240683574
16.774815999999998,8.4987868622686,0.1418672796293787
16.778844000000003,8.470637512588036,0.1418041985309469
16.782892,8.44159094603246,0.1417504283518078
16.786980000000003,8.414560263026774,0.1416636535814177
16.791072000000003,8.393920823046109,0.1414993957034206
16.79516,8.37126549951555,0.1413677707872106
16.799204,8.350293884835079,0.1412215450787751
16.803284,8.32719566170478,0.1411135974929614
16.807315999999997,8.308472798049605,0.1409607777648951
16.811392,8.28863126771955,0.1408291460493851
16.815476,8.276188922189458,0.1406047443326629
16.81956,8.260058401934918,0.1404650437203241
16.823635999999997,8.243595706980573,0.1403432712273305
16.827720000000003,8.230500429726407,0.1401933565917509
16.831756000000002,8.22536937944741,0.1399613713097547
16.835787999999997,8.226408122393561,0.1396671981572067
16.839884,8.228909124389931,0.1393707174532369
16.843976,8.238366411586528,0.1390079692653627
16.848068,8.249961724908484,0.1386465881258439
16.852168000000002,8.262011355505713,0.1382978512570803
16.856264,8.274183128678409,0.1379834182520841
16.860359999999996,8.289611594651348,0.1376476745873423
16.864456,8.30829675342453,0.1372920972620573
16.868551999999998,8.326539012597971,0.1369617563764244
16.872648,8.33996301269655,0.1367003550522013
16.876744,8.359888980720083,0.1363592248264279
16.880840000000003,8.379372049143873,0.1360417250180955
16.884936,8.399641609542742,0.1357191278524293
16.889039999999998,8.421705603691633,0.1353804201477019
16.893128,8.44041359781588,0.1351065558277792
16.897228000000002,8.454081883065395,0.1349136676855917
16.901284,8.476600194489562,0.1345939755816976
16.905372000000003,8.500912939663749,0.1342570806664714
16.909468,8.52141536753802,0.1339726689963817
16.913556000000003,8.534075711012589,0.1337990227691927
16.917644,8.548309038437312,0.1336218322585368
16.921736,8.567814942212168,0.1333980899354171
16.925824000000002,8.586091454412207,0.133203089825269
16.929911999999998,8.605043733687392,0.1330117670701336
16.934003999999998,8.634308298187443,0.1327050101692802
16.938092,8.665367296437521,0.1323829032472396
16.942184,8.70102310396259,0.1320170993518264
16.946276,8.738141170537881,0.131655396888731
16.950371999999998,8.78165048013819,0.1312350709171528
16.954468000000002,8.827519265663726,0.1308071300224466
16.958552,8.87305587648946,0.130401333839877
16.962644,8.922967846790316,0.1299615942104974
16.966728,8.980279001891137,0.1294519991612296
16.970812,9.036139315617271,0.1289825536073914
16.974908000000003,9.097936555093154,0.1284390681470083
16.979000000000003,9.159401619869229,0.1279107619030138
16.983088,9.216502742845714,0.1274590841848961
16.98718,9.274279632897342,0.1270150198225231
16.991268,9.33251084022424,0.1265849153879066
16.995355999999997,9.398362682150974,0.126071480193652
16.999444,9.460625656577658,0.1255953359853054
17.003528,9.51829182172935,0.1251673323230305
17.00762,9.577973870430938,0.1247187929679681
17.011708000000002,9.637090876957314,0.1242642551191271
17.015804,9.686571365333966,0.1239230998461713
17.019892000000002,9.735376086635476,0.1235823638910666
17.023979999999998,9.775773681362072,0.1233244544278631
17.028071999999998,9.815827683713332,0.1230520513549421
17.032168000000002,9.84679879241454,0.1228582420997282
17.036255999999998,9.87720485894054,0.1226572378548222
17.040352000000002,9.906037941516384,0.1224617257466899
17.044444000000002,9.93273299796687,0.1222639034682884
17.04854,9.950234435867364,0.1221466471631035
17.05264,9.9655978476425,0.1220250389154373
17.056735999999997,9.97726166701766,0.1219367385866002
17.060827999999997,9.990487052667431,0.1218119204795054
17.064924,10.004376787716817,0.121657675008913
17.06902,10.016914988615916,0.1214981378158716
17.073116000000002,10.031125480689576,0.1212981738608081
17.077212,10.04017412131303,0.1211293999166563
17.081312,10.04764977798633,0.1209641003600187
17.085407999999997,10.055679059159306,0.1207744580190652
17.089504,10.055633388457176,0.1206437866913932
17.0936,10.052109575154931,0.1205342941931453
17.097696000000003,10.050036603227376,0.1203935711340528
17.101792,10.047509314024545,0.1202401563127854
17.105884,10.0464328661964,0.120054988939373
17.109984,10.040759609093264,0.1199075955119141
17.114076,10.0382209022149,0.1197205758171836
17.118176000000002,10.032425502536292,0.1195446801726849
17.122263999999998,10.025954335782544,0.119365547886833
17.126364,10.016902243303695,0.1192007457813462
17.130460000000003,10.011992642824568,0.1189851404731161
17.134556,10.008090984120388,0.1187579914388906
17.138588000000002,10.003513558341064,0.1185273115386174
17.142680000000002,9.997252423711652,0.1183045845336812
17.146764,9.986394479807243,0.1181184053629919
17.150851999999997,9.973742102152816,0.1179448231102878
17.15494,9.957390132098404,0.117801289855244
17.159028000000003,9.942832595794018,0.1176447084378591
17.163116,9.929283001264578,0.1174765936100101
17.167151999999998,9.917417115585224,0.1173006401754193
17.171235999999997,9.91586351513074,0.1170366784194123
17.175324,9.919128173751124,0.1167270656542429
17.179412000000003,9.924297991021463,0.1164012669908956
17.183504000000003,9.92633325806703,0.1161132612706179
17.1876,9.934759768137612,0.1157791464102541
17.191695999999997,9.943186278208191,0.1154439428197838
17.195792,9.95520165577882,0.1150867562672029
17.199879999999997,9.97148166792464,0.1147094673677271
17.203968,9.989999013420222,0.1143032236301293
17.208052,10.012891718390929,0.1138737744413198
17.212084,10.03735740731179,0.1134455103568404
17.216164000000003,10.06372825488261,0.1130031679168827
17.220144,10.090209827353362,0.1125562035054307
17.224231999999997,10.118375108674204,0.1121037692783507
17.228316000000003,10.15494751656996,0.1115879721861864
17.232400000000002,10.191519924465716,0.1110722141976433
17.236479999999997,10.23369708341141,0.110516462597161
17.240564000000003,10.278898067681949,0.1099359170041882
17.244643999999997,10.327012152377389,0.109334013300577
17.248724,10.372545311347729,0.1087464876423428
17.252807999999998,10.409671343743156,0.1082251555753438
17.256891999999997,10.44366282591381,0.1077401724737564
17.260920000000002,10.471938832134589,0.1073006525651875
17.264996,10.506151764105107,0.1068088944579844
17.269071999999998,10.534870669925628,0.1063565901611509
17.27316,10.567399893046062,0.1058755771338971
17.277244,10.59611879886658,0.1054274534998805
17.281332000000003,10.62124883718705,0.1050002901519661
17.285416,10.644030817257825,0.1046080989976666
17.289512,10.662105263153666,0.1042508183201299
17.2936,10.677266608624604,0.1039189427232118
17.297687999999997,10.690522795445585,0.1036027054588658
17.301768,10.709162283516632,0.1032595876541704
17.305848,10.728698988462694,0.1029134971031094
17.309935999999997,10.742520217458882,0.1026112015018645
17.314024,10.75813588020509,0.1023000763124936
17.318112000000003,10.768822558976506,0.1020312128322128
17.322204000000003,10.773683036898106,0.101808415495009
17.326292,10.771930821994822,0.1016306991323527
17.330388000000003,10.770854374166678,0.1014571110437887
17.334480000000003,10.773477518738517,0.1012608126441785
17.338576,10.778227271760182,0.1010425398395954
17.342671999999997,10.789700442506671,0.1007753687161581
17.346763999999997,10.795458137303283,0.1005491259411288
17.35086,10.800318615224883,0.1003269672062959
17.354955999999998,10.802376717621517,0.1001228712259654
17.359052000000002,10.804656269818016,0.0999102664971848
17.363148,10.812762022864328,0.0996549655088699
17.36724,10.819970559035628,0.0994039810999231
17.371336000000003,10.833226745856608,0.0991023351851933
17.375432,10.846139340302251,0.0987836781986906
17.379527999999997,10.858265442772815,0.098465226527908
17.383624,10.866016185768258,0.0981656078454809
17.387719999999998,10.869391569288574,0.0978825930993211
17.391816000000002,10.873099127508691,0.0975865407679868
17.395912,10.87713886042862,0.0972786108514321
17.400012,10.880724276073275,0.096957153500592
17.404107999999997,10.883412474842917,0.0966385850755498
17.408204,10.892824091337385,0.0962744330514755
17.4123,10.904362316281672,0.0958905852287456
17.416392,10.912533123525789,0.0955142201073069
17.420488000000002,10.921822597444784,0.0951271137369141
17.424584,10.92853114563868,0.0947493414990767
17.428679999999996,10.93535041873251,0.0943664430409681
17.432776,10.947209400701077,0.093944235704576
17.436871999999997,10.961194991119465,0.0935025368663868
17.440968,10.975623481137596,0.0930451805458571
17.445055999999997,10.983550003230778,0.0926237153236185
17.449091999999997,10.98900632449879,0.0922035889193641
17.45318,10.985944794291958,0.0918337776383375
17.457268000000003,10.982772539185191,0.0914678654140618
17.461356,10.980829675653244,0.0910857221560544
17.465444,10.980005478796173,0.0906923196796527
17.469536,10.981983657464072,0.0902834289336358
17.47362,10.983961836131972,0.0898743443386349
17.477704,10.98022453885,0.0894980276196754
17.481792000000002,10.977384458443035,0.0891175592886892
17.485884000000002,10.973868610960931,0.0887301978782518
17.48998,10.963850795553876,0.0883755739700136
17.494076000000003,10.948449678896749,0.0880411045982933
17.498172,10.934842995989644,0.0876985949852303
17.502211999999997,10.917647445582492,0.0873694223503868
17.5063,10.897538794750435,0.0870577798212912
17.510395999999997,10.877430143918378,0.0867449783788775
17.51438,10.851384567336575,0.0864726088349459
17.518468000000002,10.826236207629783,0.0861965497153536
17.522516,10.798739789673297,0.0859468088292513
17.5266,10.772251313491754,0.0856882960176149
17.530683999999997,10.75047037148514,0.0854042452098027
17.534719999999997,10.733286238753523,0.0850987652075781
17.538804000000003,10.71688859799698,0.0847938053490075
17.542888,10.698253623890675,0.0845112138793947
17.546975999999997,10.673681724034624,0.0842673146988078
17.551060000000003,10.64821260730356,0.0840256559419013
17.555139999999998,10.624537924322524,0.0837771481991607
17.559216000000003,10.608373151041386,0.0834909353523046
17.563295999999998,10.595121478185153,0.0831872060227646
17.567376,10.587474556378858,0.0828567668444876
17.57146,10.586329602497518,0.0824973175153243
17.57554,10.588662791216288,0.0821295348425607
17.579624,10.595703514109989,0.0817406698036133
17.583704,10.60252278720382,0.0813594571202566
17.58778,10.613938869572646,0.0809603079831628
17.591868,10.628268052366376,0.0805449929619093
17.595952,10.64640755246002,0.0801103358079968
17.600044,10.65883157660379,0.0797047857250976
17.604119999999998,10.67405797627253,0.0792872086582189
17.608216000000002,10.690070867916347,0.0788708714520773
17.612295999999997,10.70597303466023,0.0784606203325082
17.616324000000002,10.727701402253922,0.0780219778105855
17.620408,10.751445653397507,0.0775721702056776
17.624488000000003,10.778103004966,0.0771072984915787
17.628567999999998,10.808570673834405,0.0766223367981423
17.632659999999998,10.840832776452835,0.0761340809333965
17.63674,10.873094879071273,0.075648506944506
17.64082,10.901546664389786,0.0751833086201837
17.644900000000003,10.92887978303342,0.0747317438669384
17.648984000000002,10.959126002101955,0.0742704029506468
17.653063999999997,10.985672628770514,0.0738245053970561
17.657152,11.013559371913823,0.0733625735455744
17.661236,11.036627855982266,0.0729260300362769
17.665332000000003,11.062387990675743,0.0724838430394009
17.669428,11.087472358294082,0.072038635299889
17.673523999999997,11.114351159662442,0.0715926721200743
17.67762,11.14134068593074,0.0711451281160602
17.681712,11.173259196173834,0.0706724863097708
17.685807999999998,11.205509881116734,0.0701907401511075
17.689896,11.24459470868439,0.0696810779490802
17.693991999999998,11.279979943852068,0.0691832334358025
17.69808,11.30695805244483,0.0687162470136663
17.702172,11.327544918012578,0.0682653870913825
17.706259999999997,11.34824250848026,0.0678127211947736
17.710348,11.371066707397771,0.0673465447273469
17.714436000000003,11.39321513924014,0.0668761936904814
17.71852,11.414687804007364,0.0664016241970589
17.722612,11.437279135449472,0.0659186978410452
17.726704,11.458297482941424,0.0654326247557294
17.730791999999997,11.47292458740836,0.0649633219100038
17.734848000000003,11.486654475000284,0.0644952002099001
17.738944,11.499265695917329,0.0640376157013515
17.743039999999997,11.51231981643411,0.0635652727689626
17.747131999999997,11.525030344575551,0.0630770105583715
17.751228,11.532136121667058,0.0626032379077522
17.755323999999998,11.534977264183372,0.0621293556796712
17.759420000000002,11.535237480974589,0.0616555760289381
17.763507999999998,11.532695322240828,0.0611891279738335
17.767599999999998,11.52645357110709,0.0607304984989171
17.771691999999998,11.509788809848546,0.0603025304063942
17.775788000000002,11.49737726548966,0.0598475210133532
17.779819999999997,11.485076446030709,0.0593867607003356
17.783908,11.478491102521634,0.0589078226204205
17.787992,11.47022205016247,0.058427320497122
17.792084,11.46015856405328,0.0579488265942446
17.796172000000002,11.448300644194068,0.05747144120199
17.800256,11.435545507459844,0.056994585617272
17.804295999999997,11.42020944500052,0.0565152577097639
