Time,Force,Position
21.8829,16.450048208320837,0.1365245202495931
21.88698,16.450674852838453,0.1362484506764447
21.89106,16.45805916810749,0.1359857114521892
21.89514,16.478481672253036,0.1357043123501805
21.899224,16.509804339149717,0.1354022749023323
21.903304,16.5589606186467,0.1350093976624187
21.907396,16.60933487204297,0.1345850748085349
21.911476,16.65419226393817,0.1341536980247243
21.915556,16.69959186265751,0.1336897910665191
21.919636,16.744426419201645,0.1332237974326285
21.92372,16.791841901470875,0.1327481500518161
21.9278,16.843079118715558,0.1322676489367849
21.931888,16.89388485403603,0.1318195051704659
21.935972,16.93987233028165,0.1314035884472062
21.940064,16.979567870726644,0.1310009890819847
21.944152,17.010390549645923,0.1306222183833893
21.94824,17.036150684339404,0.1302426348992155
21.95232,17.054168041857583,0.1298945846160152
21.956404,17.07509849980067,0.1295287392400018
21.960488,17.095253883444208,0.1291840226292288
21.964572,17.116871526137967,0.1288401852756454
21.968656,17.134900301331676,0.1285139102443711
21.972748,17.14910734154994,0.1281923195003636
21.976836,17.150409753142696,0.1279216757275075
21.980928,17.147214662684867,0.1276537835503196
21.985024,17.13191285325214,0.1274539580412966
21.989116,17.116389594019545,0.1272600777997477
21.993152,17.102771493436904,0.1270544936279902
21.99724,17.086240292429363,0.1268672957715153
22.001328,17.066795990996916,0.1266982411225899
22.005412,17.04477076383937,0.1265384314611382
22.009492,17.02554791220679,0.1263631092261633
22.01358,17.009681060598858,0.1261578706316578
22.017668,16.999075367665522,0.1259116345366939
22.021756,16.99497164265715,0.1256312261516333
22.02584,16.99837782734867,0.1253099989822441
22.029932,17.00537287954024,0.1249727574829716
22.03402,17.01797268278175,0.1246052606283543
22.038108,17.025754226948393,0.1242671705991056
22.042196,17.036891771139683,0.1239005390282438
22.046284,17.051274590455684,0.1235095481644871
22.050372,17.06879195999646,0.1230952477969193
22.054456,17.092024805487114,0.1226505808822756
22.058544,17.128372311727603,0.1221388931262421
22.06264,17.168419410368077,0.1216106303363309
22.066732,17.214624884558166,0.1210393594040166
22.070828,17.255557782398117,0.1204887597705137
22.074916,17.29581491316293,0.1199375268500233
22.079012,17.33752288530242,0.1193697043921515
22.083108,17.38146819079168,0.1187837530176006
22.0872,17.428548046505718,0.1181768960550061
22.091292,17.469790283694405,0.1175860308364562
22.09538,17.507554378282983,0.1170087798282238
22.099476,17.540943113396438,0.1164483640990374
22.103568,17.567829880584938,0.1159203926239168
22.107664,17.58843612964836,0.1154190928906031
22.11176,17.60993959558679,0.1149161996212891
22.115856,17.63166451132509,0.1144094093651184
22.119948,17.655516035513216,0.1138875883223739
22.124048,17.678248893026463,0.1133768146555282
22.128144,17.693250391039946,0.1129082012418172
22.13224,17.711054264578394,0.1124284067550576
22.136332,17.723818429242108,0.1119807273136019
22.140432,17.726048858881082,0.11158729722987
22.144524,17.727049896945243,0.1112063221656497
22.14862,17.72581360165964,0.110843093039197
22.15272,17.728952665849157,0.1104661319423004
22.156812,17.73534842283892,0.1100852825384632
22.160848,17.739961163754195,0.1097295011484467
22.164928,17.744131005069725,0.1093849171473552
22.16902,17.747525772085716,0.109059934703493
22.173112,17.75597166565197,0.1087244136168606
22.177192,17.76756352711853,0.1083877136594361
22.181228,17.783198573360416,0.1080467837486518
22.18532,17.802643936902214,0.1076884908188443
22.189404,17.824448776369245,0.1073292213340391
22.193496,17.842554023436296,0.1069855394321113
22.197584,17.86245370425337,0.1066375683576747
22.201672,17.882464109970375,0.1062878093649034
22.20576,17.89798843131232,0.1059528678387511
22.209848,17.917765969553926,0.105590192926278
22.213932,17.932049481645524,0.1052484860982521
22.21802,17.946100126261722,0.1048938719877999
22.222104,17.96149088735267,0.1045249437034174
22.226128,17.973846405443243,0.1041545930422536
22.230208,17.98776348980844,0.1037660486676391
22.234284,18.000550489823222,0.1033680950000389
22.238376,18.007610596212594,0.1029770410801999
22.242452,18.01286485117641,0.1025726771316749
22.246484,18.01889418043977,0.1021504279294829
22.250512,18.02491209202759,0.1017106705594136
22.254592,18.02857052769019,0.1012720125068724
22.258668,18.029304445252347,0.1008289113527013
22.262752,18.0268923949142,0.1003864580903548
22.26678,18.02111292687587,0.0999493314802272
22.27086,18.014989866462205,0.0995019077226946
22.274944,18.01009619762336,0.0990437540971877
22.279028,17.999929952434375,0.0985988218847607
22.283116,17.986285564645282,0.0981609103439719
22.287204,17.97498923510588,0.0977038706625592
22.291288,17.963692905566482,0.0972470913640681
22.29538,17.958222776876894,0.0967653362565174
22.299456,17.954436357037395,0.0962812462732889
22.303548,17.952555095847853,0.0957892187419005
22.307632,17.954262702158356,0.095287667464885
22.31172,17.95653535064407,0.0947923937216679
22.315808,17.960380983079936,0.0942982865986254
22.319848,17.967704758115914,0.0937971749177381
22.32394,17.982316993051928,0.0932760701089682
22.328032,17.996597053288134,0.0927637117888474
22.33212,18.007964013099436,0.092263494881606
22.336212,18.0192202480108,0.0917661811382971
22.340248,18.030365758022228,0.0912713383452211
22.34428,18.03870889250869,0.0907846683427712
22.348368,18.051648836270143,0.0902852651344853
22.352456,18.063470113356715,0.0897932655504658
22.356548,18.074394173568272,0.0893035465067199
22.360636,18.08890710127988,0.0888058344667041
22.364728,18.1068981715916,0.0883022447331708
22.36882,18.127137992928613,0.0878034511275862
22.372916,18.144021814240983,0.087326065926149
22.377008,18.15306355115365,0.0868803937337853
22.381104,18.157962796066595,0.086455023740271
22.385196,18.159727490754765,0.0860451660335006
22.389292,18.156341751668265,0.0856601420461238
22.39338,18.148137753506905,0.08529219023802
22.397476,18.136909930020703,0.0849376160632058
22.401568,18.12624714870971,0.0845889435883158
22.405664,18.10763155809908,0.0842730200637424
22.409756,18.08700008393855,0.083965462025917
22.413852,18.06861736080332,0.0836618252501018
22.41794,18.04900524609327,0.0833670381666967
22.422036,18.031641882408515,0.0830765387180977
22.426124,18.022021295899066,0.0827771366924773
22.43022,18.009155434264905,0.0824957379253891
22.43432,17.999656990330923,0.082212298741423
22.438412,17.990723588572145,0.0819342608262001
22.442512,17.977647694813648,0.0816753242294632
22.446604,17.966255509905242,0.0814156777978191
22.4507,17.95195022457193,0.0811658868078024
22.454796,17.941787431238343,0.0808968236422476
22.458892,17.937340113854628,0.0806100166291737
22.462992,17.939726939095667,0.0802995055537378
22.467088,17.951861007386373,0.079956493430863
22.471184,17.967240350801788,0.079596053472372
22.47528,17.985754244441978,0.0792207462866127
22.479376,18.00740268830694,0.0788315895017001
22.483468,18.026691656246676,0.07844036220537
22.487564,18.051020333061143,0.078029364805674
22.491664,18.07590263437529,0.0776062937124873
22.49576,18.10234650196405,0.0771683466551323
22.499856,18.130573385627294,0.0767098933851718
22.503952,18.15721586766486,0.0762325102801897
22.508048,18.17936084765184,0.0757458757853055
22.51214,18.20339956861324,0.0752369917111335
22.516236,18.225521713249144,0.0747167913926517
22.520336,18.250102641034683,0.0741806703071394
22.524432,18.276798759594524,0.073616628423291
22.528524,18.300459635153988,0.0730471061525566
22.53262,18.32623570148775,0.0724504795896048
22.536716,18.35077095857116,0.0718460485607348
22.540808,18.375184073079097,0.0712280976122416
22.544904,18.395886177511528,0.0706014213016025
22.549004,18.4095212718438,0.0699842979996675
22.5531,18.425615149325697,0.0693522626431227
22.557196,18.445175751732176,0.0687025059842854
22.561288,18.45946377778852,0.0680567083707061
22.565388,18.47811574564445,0.0673920720563388
22.569484,18.49855072957488,0.0667105838318316
22.573576,18.522120263730084,0.0660185300466058
22.577676,18.545346205509947,0.0653181761424369
22.581772,18.5705880308397,0.0646136034185203
22.585868,18.597402840119614,0.0639134774762673
22.589968,18.626344257849357,0.0632064936109616
22.59406,18.65438845870408,0.0625022375069737
22.598156,18.68355132623369,0.0617946199177632
22.602256,18.70912532626325,0.061091095666828
22.606348,18.73526436846802,0.0603947961669985
22.610444,18.76341929422268,0.0596940445560857
22.61454,18.79281502922769,0.0590055748904526
22.618632,18.82019488068281,0.0583235416232553
22.622724,18.844440181913157,0.0576531948706229
22.626816,18.867345366668744,0.056992785332307
22.630908,18.887337450999432,0.0563378069877944
22.63494,18.901392609580373,0.0556972204897137
22.639032,18.90828145083675,0.0550780601415239
22.643124,18.915956784068207,0.0544590891490497
22.647212,18.913552699550195,0.0538656752304083
22.6513,18.89927476353269,0.0532974855500047
22.655392,18.87570390174081,0.052755420199594
22.659484,18.839927013749623,0.0522433088866913
