Time,Force,Position
20.918832,12.665137289889168,0.1491811446631342
20.922936,12.66790541238754,0.149078564854044
20.926916,12.670341360186104,0.1489880321336128
20.931008,12.681062291984112,0.1487990755433629
20.9351,12.693566239856615,0.1485699205286033
20.939192,12.70382143670382,0.1483466429682498
20.943288,12.716313966900788,0.1480933292212236
20.947376,12.730711655747715,0.1478227600394095
20.951472,12.74522006949458,0.1475472222800273
20.955564,12.756593933016664,0.1473088403947393
20.959656,12.764157479238834,0.1471068349978418
20.963752000000003,12.774301951186104,0.1468885326263371
20.967848,12.78007106365825,0.1467012610106874
20.971892,12.784267192180245,0.146520328127381
20.975924000000003,12.787787553627092,0.1463385007089726
20.979964,12.793213073723903,0.1461391093337233
20.984016,12.802448911120626,0.1459045556579167
20.988116,12.815384340917335,0.1456387238887069
20.992116,12.828098320914172,0.1453818668616872
20.996164,12.84271745956097,0.1451074682583254
21.00026,12.859573931557527,0.1448048958653834
21.004296,12.874857419603934,0.1445087188941046
21.008336,12.89708577517503,0.1441428768178451
21.012384,12.918416913871118,0.1437871994519288
21.016468,12.94322619516732,0.143411538037609
21.020452,12.969719185313606,0.1430283049569574
21.02454,12.998449508809657,0.1426200264603796
21.028632,13.022472298130776,0.1422519459763977
21.03272,13.054226446951668,0.141815957137394
21.036804,13.09572783882222,0.1412924654300414
21.040892000000003,13.144960590192545,0.140701668985231
21.044976,13.194636241162604,0.1401007787815872
21.04906,13.249351601007398,0.1394503830372514
21.053140000000003,13.305185627527075,0.1387885195145403
21.057224,13.361351828746557,0.1381170860255152
21.061308,13.41785020466584,0.1374389621670018
21.065392,13.473451363710115,0.1367725323107433
21.069476,13.528155305879377,0.1361158176046114
21.073556,13.583191422748444,0.1354505862973409
21.077636,13.640464872967272,0.1347629644648723
21.08172,13.693030789011171,0.1341144393860404
21.085804,13.745928879754878,0.1334564705229838
21.089884,13.792214277673695,0.132853718782198
21.093968,13.834013591217454,0.1322818647160275
21.098056,13.87042960351114,0.1317463937653464
21.10214,13.905272631854675,0.1312169268044384
21.106228,13.934178734448466,0.1307415554971683
21.110316,13.970926921441958,0.1302018575514314
21.114404,14.002181082285444,0.1297033787439606
21.118488000000003,14.022225741029052,0.129286492068672
21.122516,14.03487121497269,0.1289213154061988
21.126548000000003,14.042022662766326,0.1285924233865573
21.130632,14.048387618584885,0.1282665071158164
21.134712,14.05385535752843,0.1279464865363412
21.138792,14.060220313346989,0.1276219626706679
21.142876,14.06109124301554,0.1273321155733894
21.146912,14.055460204759145,0.1270853238510346
21.151,14.048256182552588,0.1268417414612878
21.155088000000003,14.038360509721,0.1266134337145195
21.159176,14.021962868964458,0.1264278575058713
21.16326,14.00758111175781,0.1262246026248384
21.167348,13.993088629651227,0.1260246839040509
21.171436,13.97982553911946,0.125808582699073
21.175524,13.967348940562772,0.1255905630024195
21.179616,13.955880283781028,0.1253634959393196
21.183704,13.943514410124273,0.125141249164925
21.187796,13.934172361792356,0.1248930263857877
21.191892,13.91709895396067,0.1247026556910106
21.19598,13.8959937790292,0.1245460104804562
21.200076,13.878698921397646,0.1243617130107786
21.204168,13.864206439291063,0.124158400614565
21.208264,13.852405607809514,0.1239396622449879
21.21236,13.83747022610319,0.1237499127778381
21.216392000000003,13.818835251996886,0.1235831474673507
21.220484000000003,13.800089552990643,0.1234196528644216
21.224532,13.783924779709505,0.1232444093808311
21.228620000000003,13.773364757478308,0.1230318992016231
21.232656,13.766393602747154,0.1227998795189401
21.23674,13.76301131551605,0.1225483853854744
21.240796,13.763439345584864,0.1222697804500896
21.244832,13.764875317428624,0.1219832185879129
21.248832,13.76429540572249,0.1217132640153923
21.252868000000003,13.764391261091498,0.1214456550421264
21.256848,13.76840815866036,0.12114893504629
21.260884,13.773432998004168,0.1208440976996471
21.264976,13.777339170673091,0.1205507490000172
21.269064,13.778553692716985,0.1202716778841059
21.273116,13.784697198735673,0.1199550279409105
21.277208,13.7938645300792,0.1196127501059119
21.281236,13.804826295172752,0.119261616558676
21.28532,13.81679600204125,0.1189031786198043
21.289348,13.83067086755971,0.1185331921991268
21.293384,13.84768028330294,0.1181357068563397
21.29738,13.86928650832117,0.1177115071459637
21.301416,13.8888768497895,0.1173041917991849
21.305468,13.912388233457689,0.1168698019484997
21.309556,13.9380262255757,0.1164186271288142
21.313584,13.955146366218868,0.1160212923485426
21.317672,13.969464131337066,0.1156417179461408
21.32176,13.983560446655392,0.1152697692778552
21.325844,13.99575160332376,0.1149107579338133
21.329932000000003,14.013879685741871,0.1145095763831984
21.334024000000003,14.031110551284977,0.1141130171287663
21.33812,14.040610057328308,0.1137683014870954
21.342212,14.050674605546847,0.1134303839325625
21.346304,14.061857820440272,0.1130809420188536
21.350396,14.076740627733676,0.1127116621422835
21.354492,14.085465059477464,0.1123919101238663
21.358584,14.095873200071342,0.1120675971089332
21.36268,14.104486906915197,0.1117521776251166
21.366768,14.11007678843421,0.1114597898672143
21.370864,14.11163490285344,0.1111980522716858
21.37496,14.110844959022968,0.1109619543979154
21.379052,14.109833565392629,0.1107331333982291
21.383148,14.10893289666222,0.1105007103411601
21.387244,14.10489767770704,0.1102946776526017
21.391336,14.097617183627149,0.1101180830461523
21.395432000000003,14.10154619164714,0.1098800432679853
21.399528,14.108277575192105,0.1096271476470576
21.403616000000003,14.115684725812208,0.1093774677163372
21.407712,14.125562077257475,0.1091232609240284
21.411808,14.128383836278118,0.1089204357988541
21.415904,14.134794462798808,0.1087026197975576
21.42,14.149612215894413,0.1084401511978385
21.424092,14.162746260139922,0.108182383302493
21.428192,14.181152880735567,0.1079064363111261
21.432288,14.196314226206509,0.1076591509339602
21.43638,14.22021487295216,0.1073586186481054
21.44048,14.244115519697816,0.1070592150964548
21.444572,14.267573266843728,0.1067730735065317
21.448672,14.293611939714747,0.1064792476779858
21.452768000000003,14.322452988110731,0.1061711321485314
21.45686,14.353199195156671,0.1058527498428265
21.460956,14.38315891022754,0.1055356790795502
21.465052,14.414802334148495,0.1052152486466165
21.469152,14.445437816294506,0.1049019919656668
21.473248,14.473270922915544,0.1046026722930476
21.477344,14.492475453161804,0.1043538658861329
21.481440000000003,14.505853782558251,0.1041399451429458
21.485532000000003,14.517659128004546,0.1039269067789577
21.489568,14.528788706375698,0.1037116898506161
21.493656,14.5438393269467,0.1034722180245025
21.497744,14.554514588042576,0.1032478257462272
21.501836,14.560482314963528,0.103048349261339
21.505928,14.569252417409446,0.1028355541968379
21.51002,14.570734059955337,0.1026542370355443
21.514052000000003,14.570531993651135,0.1024761750063728
21.518144000000003,14.56192280077203,0.1023390954667178
21.522232,14.551519174142898,0.1022087908335823
21.52632,14.543352880863528,0.1020585756400418
21.530412,14.532716386758992,0.1019119405692253
21.5345,14.519498966929358,0.1017720637014705
21.538588,14.506502996899592,0.1016256620570367
21.542676,14.492609809994818,0.1014824045140373
21.546768,14.476024972465003,0.1013489835804651
21.550856,14.460558801610071,0.1012055497295903
21.554952,14.4469977894051,0.1010518712415292
21.559044,14.436682052324835,0.1008716329372926
21.563132,14.430287357444424,0.1006678851022584
21.56722,14.426473588289111,0.1004575599851517
21.571304,14.418738776933951,0.1002700295931866
21.575392,14.40909880692883,0.1000923094832117
21.579476,14.400023879098914,0.0999207319281022
21.583564,14.39285410991896,0.0997393110656414
21.587648,14.382660515414162,0.0995774540933845
21.591732,14.37336413778438,0.0994118862964174
21.595816000000003,14.367091585479438,0.0992264874816644
21.599908000000003,14.365194392649617,0.0990277585652284
21.603984,14.364980908669889,0.0988258784619693
21.608068,14.36353803311534,0.0986371956836275
21.612152,14.36377886641088,0.0984451854758793
21.616228000000003,14.366600625431523,0.0982468048167854
21.620304,14.365279892452444,0.0980773177321416
21.624388,14.366429360298527,0.0979049419323028
21.62848,14.36746810324468,0.0977354563121213
21.632564,14.367277454616016,0.0975788717776931
21.636652,14.367873297962428,0.0974223288358649
21.64074,14.367915516809164,0.0972821183296812
21.644824,14.368522777831108,0.0971486394752618
21.648904,14.366438388228016,0.0970246798297846
21.652988,14.367832141225035,0.0968913390871841
21.657076,14.371806819947158,0.0967520639052576
21.661156,14.376457265744424,0.0966160997716898
21.66524,14.379989044866806,0.0964899098342412
21.669320000000003,14.384307315964266,0.096363832346282
21.6734,14.395803322061818,0.0962137499549826
21.677484,14.408650862309656,0.0960709025152182
21.681568,14.42138767765756,0.0959316119229498
21.685652,14.434800260080603,0.0957962080920766
21.689736,14.450339450953477,0.0956457665553783
21.693812,14.467451625776508,0.0954961940233272
21.697896,14.48344513392465,0.0953562595267392
21.70198,14.502462467397637,0.0951976712015926
21.706056,14.5196853671206,0.095045454601704
21.710144,14.544418176543465,0.0948612772133917
21.714228,14.573072028166177,0.0946566839006578
21.718324,14.604638980213798,0.0944381650440019
21.722408,14.638111090911371,0.0942114152258354
21.7265,14.6729233180837,0.093970409130139
21.730588,14.710648645680934,0.0937156241028349
21.734672,14.74870614797797,0.0934524065035292
21.738764,14.784969216524988,0.0931956301065136
21.742848,14.820667242896796,0.0929323384409699
21.746936,14.857262486143616,0.0926668790738696
21.751028,14.895197845865184,0.0923870198808964
21.75512,14.926852687461675,0.0921280569016594
21.759208,14.957266719807812,0.0918600728018883
21.763296,14.991036752178598,0.0915673383353655
21.767388,15.022668758424023,0.0912680876333622
21.771476,15.050379722469597,0.0909892218926153
21.775572,15.077747094139824,0.0906988629069131
21.779668,15.10746252405976,0.0903890263294435
21.783764,15.14020177930453,0.0900637973672587
21.787856,15.172375992374093,0.089732385742512
21.791952,15.198048237518703,0.0894267003385563
21.796044,15.220242340063203,0.0891291204607084
21.800140000000003,15.23683169155776,0.0888529117055457
21.804236,15.25106156712709,0.0885756505474029
21.808212,15.263607733846332,0.0883011819588965
21.812248,15.2733515250406,0.0880375648895911
21.816288,15.280514390509769,0.0877783539643384
21.82032,15.286325721828652,0.0875118983584977
21.824356,15.294374386497298,0.0872290331902539
21.828448,15.302079458790608,0.0869341128263878
21.832536,15.311689689733877,0.0866327053461015
21.83662,15.31972693672699,0.0863295496613257
21.840708000000003,15.329558617470129,0.0860226351056229
21.84474,15.332777605388378,0.0857411419347789
21.848772,15.335775143506758,0.0854654942088979
21.852856,15.337986189650062,0.085188436320578
21.856932,15.341315902468248,0.0849040798795764
21.861012,15.339716631311637,0.0846426431763914
21.865096,15.333299101080158,0.0844013011038263
21.869176,15.327668062823756,0.0841606416547662
21.873256,15.32427435791712,0.083903964672603
21.877332,15.320659203210612,0.0836529769573623
21.881416,15.320178598728878,0.0833834519688298
21.885504,15.318579327572266,0.0831216304546634
21.889592,15.315750664840836,0.0828707532812169
21.893672,15.313708494084482,0.082620656552071
21.897764,15.314136524153296,0.0823701237094041
21.901852,15.317931971922288,0.0821173425221422
21.905944,15.325205562291387,0.0818605670570436
21.910028,15.331028311285808,0.0816205452831548
21.914116,15.330127642555402,0.0814063636117132
21.918204,15.331697174650165,0.0811917449454588
21.922292,15.329234939645136,0.0809968988519624
21.926372,15.331369513915106,0.0807892336525983
21.930456000000003,15.33429058016015,0.0805825253948838
21.934536,15.346626714755052,0.0803455184415519
21.93862,15.354488182650428,0.080139722785314
21.942696,15.367167909620669,0.0799157399382183
21.946784,15.38142062054106,0.079693600101312
21.950868,15.396681273236402,0.0794672032006287
21.954944,15.410601809456992,0.0792548310100728
21.959028,15.428443387877431,0.0790270534649856
21.963112,15.44875516712304,0.0788004835404313
21.967156,15.472090771693484,0.0785601841468935
21.971244,15.496434318038876,0.0783154653506841
21.975336,15.520102097309127,0.0780671350336732
21.979432,15.54309410950424,0.0778155184579803
21.983528,15.5624972541993,0.0775714353520722
21.987624,15.574279764294529,0.0773534553806492
21.99172,15.589196824614527,0.0771193424344124
21.995816,15.60994008578434,0.0768635820863291
21.999912,15.633707172278996,0.0765952255486186
22.004008,15.659379417423608,0.0763205935666864
22.008104,15.681241345268305,0.0760588804492918
22.012188,15.703213998012933,0.0757947406801803
22.016276,15.714874365532692,0.0755610653258251
22.020368,15.729780008177162,0.0753084081899693
22.02446,15.741772550396725,0.075066762581675
22.028552,15.755437383790849,0.0748043154916143
22.032588,15.768094275410022,0.0745468112691305
22.036684,15.77895673327917,0.0742923856728986
22.04078,15.78421444009838,0.0740532979224772
22.044876,15.785994004317478,0.0738180865882806
22.048972000000003,15.788560060511651,0.0735847720504889
22.053064000000003,15.7939284922308,0.0733447843267477
22.05716,15.800194140824956,0.0731034376081644
22.061256,15.805451847644164,0.0728664424696014
22.065296,15.81239326331346,0.0726292099376729
22.069388,15.82426366295756,0.0723737272351805
22.073428,15.832102295501867,0.0721353809947392
22.077464000000003,15.837814319596353,0.0719087195330634
22.081504,15.838708084615968,0.0716976941875291
22.085600000000003,15.838926082560445,0.0714825464886863
22.089692000000003,15.837128196955026,0.0712750385120213
22.093792,15.83622752822462,0.0710663642578297
22.097888,15.838915726994262,0.0708518179307946
22.101984,15.837793608463986,0.0706481543698254
22.10608,15.836892939733582,0.0704388246865909
22.11012,15.832636270978533,0.0702501008272559
22.1142,15.829387543998427,0.0700574553053537
22.118284,15.828043975668283,0.0698592729823449
22.122372,15.830067825038316,0.0696612522673807
22.126456,15.831759499708546,0.0694714123656019
22.130544,15.832332507703894,0.0692888143619269
22.13464,15.828087256624377,0.0691209789955246
22.138720000000003,15.823509830845053,0.0689614159621267
22.142812000000003,15.820616113915818,0.0688021415237821
22.1469,15.819627555636544,0.0686378965109832
22.150932,15.817409605782451,0.0684834122378947
22.155024,15.81900197322828,0.0683187260970849
22.159112,15.818578457124216,0.0681617543872533
22.163196000000003,15.818830708095284,0.0680088339795975
22.16728,15.821553159891526,0.0678580163962757
22.171368,15.832006971187532,0.0676843493362476
22.175444,15.843357999358554,0.0675100882998205
22.179528,15.857511403054549,0.067330250041999
22.183608000000003,15.879961208425517,0.0671355572375983
22.187696,15.907794315046557,0.0669352772051402
22.19178,15.942350839392416,0.0667175352223646
22.19586,15.978480347688432,0.0665041685876729
22.199944,16.01730150660948,0.0662886664738835
22.204024,16.054438956680443,0.066072979170834
22.2081,16.09639466582627,0.0658451139751807
22.21218,16.138350374972095,0.0656180592640446
22.216264,16.184227126317772,0.0653795923630521
22.220348,16.232119761213344,0.0651346948214267
22.224432,16.284154888108635,0.0648747239009773
22.22852,16.338316623453757,0.0646071200124062
22.232608000000003,16.39370775037369,0.0643321989295935
22.236696,16.447525893343474,0.0640553283758662
22.240784,16.508399628737887,0.0637553629977267
22.244876,16.570834930406917,0.0634396192206219
22.24896,16.632815914800673,0.0631161854065129
22.253048,16.69199452366946,0.0628002513380676
22.257128,16.75161603213799,0.0624761792540694
22.261212,16.80876733978135,0.0621511855109825
22.265292,16.860646071074573,0.0618308421062472
22.269372,16.90725222601766,0.0615145096027103
22.273456,16.948475079710683,0.061204572502457
22.277544,16.985765473528314,0.0608867910660498
22.281628,17.022712274970615,0.0605590667802502
22.285716,17.065817451962527,0.060211355458803
22.2898,17.104768719279182,0.0598612662446292
22.293876,17.143376394220503,0.0595004553834931
22.29796,17.18321346073664,0.0591336119965246
22.30204,17.223604151752447,0.0587562907407098
22.306124,17.258390091718322,0.0583894941592402
22.310208,17.287903455334053,0.0580252167844032
22.314296,17.313938676349675,0.0576615799881162
22.318388,17.340195347165167,0.0572938959365372
22.322472,17.359385007880498,0.0569293427626194
22.326568,17.38249571079568,0.0565571657157665
22.330656,17.403922704860776,0.0561843548044252
22.33474,17.42321167280051,0.0558014225173602
22.338812,17.440816931890154,0.0554182168683592
22.342904,17.45864364077967,0.0550308798726034
22.346988,17.475794582594038,0.0546396184026071
22.351076000000003,17.493056249308346,0.0542461750067355
22.355168000000003,17.510650090722454,0.0538458512562469
22.35922,17.527014540561748,0.0534526793398523
22.363256,17.535647630901277,0.0530739783758647
22.367344,17.533857711116,0.0527110487869779
22.371432,17.528146749130872,0.0523556554342277
22.375524,17.518625469845826,0.0520056581209644
