Time,Force,Position
19.288236,15.066595836074743,0.1469170604954354
19.292316,15.125724260276654,0.1465671618456788
19.296399999999995,15.166851258600666,0.1462348903233844
19.300488,15.19795247569748,0.145885619149961
19.304572,15.218264254943088,0.1455662853105073
19.308664,15.22926027306324,0.1452938587971353
19.312744,15.248674835433834,0.1449811144251162
19.316832,15.274602783404914,0.1446412948171355
19.320924,15.299977106876318,0.1443199983123519
19.325008,15.327035139197813,0.143991623203637
19.3291,15.349607087144248,0.1436918772396008
19.333184,15.372278342315084,0.1433677787590124
19.337271999999995,15.38530166166066,0.1431009216696622
19.34136,15.40034086455613,0.1428154395997737
19.345448,15.411459025251748,0.1425636102395492
19.349544,15.425490286372272,0.142288457762639
19.353639999999995,15.44109453144295,0.1420093762483285
19.357731999999995,15.45120475036362,0.1417674364547658
19.361828,15.456374567633963,0.1415455481011486
19.36592,15.456493258354037,0.14134718365398
19.370012,15.454363198048815,0.1411521501125374
19.374104,15.449762936918429,0.1409670824043419
19.3782,15.44303606733821,0.1408031588982315
19.382288,15.441803223908002,0.1406034719027781
19.386384,15.44034893067792,0.1404103069823508
19.390472,15.44808825599783,0.1401565655897861
19.394568,15.45201726401782,0.1399318507931026
19.398664,15.45695421381276,0.1396988102029834
19.402756,15.460096729857671,0.1394765773201219
19.406852,15.461776986852366,0.1392554885455938
19.410948,15.471077878446891,0.1389795660136537
19.41504,15.483856912641537,0.1386872351921024
19.419139999999995,15.501908523186314,0.1383672891138198
19.423236,15.525675609680963,0.1380082733184876
19.427332,15.54753753752566,0.1376622359093658
19.431424,15.56839152359541,0.1373256239409348
19.43552,15.591372118114988,0.13697089501337
19.439616,15.621186855259324,0.1365656617996174
19.443712,15.655930576378454,0.1361230501581495
19.447808,15.692235863772208,0.1356561533361245
19.451908,15.730778484515724,0.1351676180259455
19.456,15.769985454658848,0.1346605190236824
19.460096,15.808959557326569,0.1341400402579179
19.464196,15.84467696719405,0.1336330132761735
19.468291999999995,15.883074610011034,0.1330921274229944
19.472383999999995,15.91574535920261,0.1325721621853825
19.476484,15.947175299143836,0.1320462491215026
19.48058,15.981396196934496,0.1314855372879864
19.484672,16.02020248632462,0.1308799298448273
19.488768,16.058775908239344,0.1302615402528867
19.492868,16.089495828078828,0.1296809411938073
19.49696,16.115386071167915,0.1291147037495471
19.501055999999995,16.135770870431465,0.128559474549136
19.505156,16.151104543144747,0.1280249004353173
19.509248,16.170912882557555,0.1274476186399051
19.513344,16.190377629595027,0.1268600821378372
19.517444,16.204680525182297,0.1262943322175094
19.52154,16.213600119519494,0.1257568219272716
19.525632,16.221843946781554,0.1252194551731443
19.529727999999995,16.23199293269357,0.1246713716634239
19.533824,16.2404582097555,0.1241297662288045
19.537924,16.249488528992636,0.1235936452382636
19.54202,16.257400181554885,0.1230677715867043
19.546116,16.261280067017353,0.1225705129564759
19.550208,16.262025402255045,0.1220985115940848
19.554307999999995,16.264232996542955,0.1216273496556721
19.558404,16.268345749480822,0.1211449266533926
19.5625,16.26529218509413,0.1207161016884194
19.566592,16.255183028282808,0.1203373009431429
19.570688,16.244520246971813,0.1199734025528038
19.574784,16.23554117451091,0.1196034423233559
19.578884,16.22690569442534,0.1192441938522017
19.58298,16.21928957379025,0.1188971861141543
19.587072,16.212127770430435,0.1185582847368588
19.591168,16.202507183920982,0.1182457014681221
19.595264,16.194127406661885,0.1179403718868859
19.59936,16.186201946678057,0.1176425295771016
19.603456,16.18074668751939,0.117338872650302
19.607556,16.172832645211106,0.1170612860784972
19.611648,16.16324631172825,0.1168088447425621
19.615748,16.156916671045646,0.116550282151702
19.619844,16.149246913888287,0.1163074712597189
19.623936,16.146960457980995,0.1160421971368205
19.628032,16.147144202898875,0.1157709369988771
19.632068,16.15047391571706,0.1154967303852603
19.636156,16.152463512060496,0.1152383337417303
19.640248,16.154796700779265,0.1149915419233985
19.644336,16.16229174094824,0.114728248943595
19.648428,16.17494863256741,0.1144485344114186
19.65252,16.188281291261728,0.1141713180941671
19.656607999999995,16.205878584531234,0.1138823579855249
19.660699999999995,16.225270311550762,0.113586592772187
19.664788,16.25239339807006,0.1132484469663506
19.668883999999995,16.28108946853951,0.1129102131599112
19.672975999999995,16.314493073183893,0.1125498865897107
19.67706,16.34980183647823,0.1121815568138773
19.681152,16.388588742372683,0.1118028686716027
19.68524,16.424573272742165,0.1114383628696776
19.689324,16.463581628436483,0.1110559072681776
19.693407999999994,16.504716592580635,0.1106592307002698
19.697488,16.540246805674844,0.1102899844632384
19.701571999999995,16.58384055296862,0.1098733228649503
19.705663999999995,16.620821607437517,0.1094903471325135
19.709755999999995,16.665190429030847,0.1090582307895233
19.713844,16.707531949398746,0.1086203930564142
19.717932,16.75535607824112,0.1081430143007477
19.722016,16.801717948033275,0.1076648143262665
19.726104,16.847957675249962,0.1071724018000893
19.730187999999995,16.891162159466276,0.1066797913983542
19.734276,16.938730585482183,0.1061577374958808
19.738351999999995,16.9820343769229,0.1056474301568022
19.742432,17.02477312618841,0.1051335136276186
19.746516,17.06044486535375,0.104644452190541
19.750599999999995,17.094875795268752,0.1041493239060663
19.75468,17.124034148833616,0.1036713730213306
19.758752,17.148141375848216,0.103204102293714
19.762836,17.171007793612464,0.1027303604717312
19.766916,17.19689803670155,0.1022401470243136
19.770996,17.218412920315515,0.1017624897227739
19.77508,17.236449661329363,0.101294450308906
19.779172,17.25784240236786,0.1008012879645048
19.783256,17.26870140838162,0.1003576583984286
19.787344,17.28460012327011,0.099886618780385
19.791432,17.289411478634182,0.0994773676904643
19.79552,17.294898601073402,0.0990711391682674
19.799612,17.293108681288125,0.0987092696002216
19.803704,17.293223920152805,0.0983395768625716
19.807792,17.291212550567657,0.0979837823267403
19.81188,17.2908848898326,0.0976253055161345
19.815964,17.283723086472783,0.0972993212580878
19.820036,17.280150150613014,0.0969630371423074
19.824116,17.276466489853313,0.0966296836751957
19.8282,17.27334787126881,0.0963015641555056
19.83228,17.26989707798451,0.0959817438786689
19.836364,17.269137935325247,0.0956544292028745
19.840444,17.271746210366157,0.0953224280435782
19.84452,17.273346543632123,0.0949958382421972
19.848604,17.273152443148064,0.0946745368711115
19.852684,17.27453132661416,0.0943533039364649
19.856768,17.277926093630146,0.0940219051190748
19.860852,17.281099410846267,0.0936963062818724
19.86494,17.28628861161228,0.093359848517876
19.869028,17.287888944878247,0.0930333959411187
19.873111999999995,17.297552812343785,0.0926667494505478
19.877203999999995,17.30620873803438,0.0923053944973741
19.8813,17.316426229999585,0.0919251789566392
19.885384,17.321038970914856,0.0915639302560308
19.889464,17.326659653605073,0.0911979827674066
19.893556,17.335304161620137,0.0908184216726605
19.897644,17.3468617700601,0.090426702801595
19.901727999999995,17.356957119449845,0.0900326701008208
19.905816,17.369400527089287,0.0896223017248375
19.909908,17.381168167653595,0.0892087962726986
19.913996,17.390354882492794,0.0887990406184294
19.918088,17.39774716358197,0.0883942029583318
19.922176,17.402337069146174,0.0879986138198459
19.926268,17.407713466685458,0.0876038140361744
19.93036,17.41600296464965,0.0871983799699387
19.934456,17.42630834616373,0.0867841608233737
19.938552,17.43728949475295,0.0863740047241189
19.942647999999995,17.448946410417317,0.0859678460953984
19.946736,17.463516426506587,0.0855510194686468
19.950831999999995,17.482461802070983,0.0851280252445778
19.954923999999995,17.498604802110407,0.0847151255192297
19.95902,17.516985135499596,0.0842889419799286
19.963116,17.537049177738872,0.0838619955349356
19.967212,17.56473385457798,0.0834102924775953
19.971312,17.592307806517155,0.0829621779595705
19.975408,17.616071441156414,0.0825281617463632
19.9795,17.63972435089574,0.0820976125268602
19.983595999999995,17.6611399272853,0.0816812743165668
19.987692,17.679875270725358,0.0812900807361123
19.991788,17.703993915415488,0.0808898060000902
19.995884,17.730017718755576,0.0804835721391999
19.999984,17.75940893979584,0.0800769650025374
20.00408,17.791713261261012,0.0796610157535897
20.008175999999995,17.82412830762612,0.0792436272524162
20.012272,17.854306020641463,0.0788411370976082
20.016364,17.885602400331685,0.078433957585056
20.02046,17.917230954721717,0.0780209462342346
20.024556,17.949302408711485,0.077599589697704
20.028652,17.981263137801317,0.077182374229293
20.032752,18.007729840741142,0.0767776620889625
20.036848,18.03419654368097,0.0763740501078092
20.040944,18.057528696396027,0.0759853874367949
20.045036,18.084671166410995,0.0755879749217573
20.049132,18.109687027976136,0.0752025763395207
20.053228,18.131114022041228,0.0748226740242929
20.057324,18.150746582356295,0.0744455229913712
20.061419999999995,18.17060059247124,0.0740642956640476
20.065516,18.194597094585905,0.073666467945857
20.069616,18.21735278745022,0.0732594303973694
20.073712,18.23304147021437,0.0728612265286586
20.077804,18.254334904028468,0.0724522700739217
20.0819,18.27259309484219,0.07203757359504
20.085988,18.290286243480704,0.0716180458062273
20.090076,18.30809011701915,0.0711969511862662
20.094164,18.32532894838239,0.0707703742486587
20.09826,18.339654679320727,0.0703531018496679
20.10236,18.34826493430919,0.0699496644854042
20.106459999999995,18.35306487199773,0.0695556667180525
20.110556,18.35629182573612,0.0691596362493181
20.114643999999995,18.36254260479935,0.068753162485087
20.118732,18.367785442087637,0.0683504625736835
20.122827999999995,18.37548706252555,0.0679316544075205
20.126912,18.37870259858841,0.0675191946406948
20.130996,18.380677325400917,0.0670974820059359
20.13508,18.388478253063237,0.0666606921215789
20.139168,18.403899815325385,0.0662081950762063
20.14326,18.4186456105124,0.0657526432168818
20.147348,18.429691813299424,0.0653039449941077
20.151436,18.442864624536277,0.0648469404509599
20.155528,18.45984775307305,0.064381862572061
20.159612,18.468977379534586,0.0639208309435562
20.163704,18.476312572246098,0.0634613382928546
20.167791999999995,18.48196405610752,0.0630014617383713
20.171883999999995,18.48693977289381,0.0625381773950884
20.175972,18.49023178083,0.0620737754382923
20.180064,18.493855963465997,0.0616026066651239
20.184104,18.502409130076792,0.0611181999677083
20.1882,18.51308890513742,0.0606253311017827
20.192292,18.524665897073056,0.0601324278854346
20.196384,18.536353613908627,0.0596381497185846
20.200472,18.54657907169398,0.0591380552092067
20.204564,18.558598963229358,0.058638320354435
20.20866,18.56860297121484,0.0581440973460455
20.212755999999995,18.580179963150474,0.0576542922646831
20.216784,18.58805736268613,0.0571697093108895
20.220876,18.586519693871924,0.0566998191563154
20.224964,18.583752633482906,0.0562370121542361
20.229047999999995,18.58008835621887,0.055774016559224
20.233136,18.575194687380023,0.0553184933788278
20.23722,18.56738791811627,0.0548684520411086
20.241247999999995,18.558130307477832,0.0544285012340555
20.245339999999995,18.54932701411467,0.0539964684964677
20.249428,18.53885142957694,0.0535798688973604
20.253508,18.52624923658939,0.0531701435178182
20.2576,18.511520435152008,0.052766416328687
20.261628,18.489957491089875,0.0523744375511189
