Time,Force,Position
21.70114,11.862406079101182,0.1461281641152587
21.705216,11.920282276377211,0.1456464297741308
21.709299999999995,11.967025443426698,0.1451947830602291
21.713376,12.000276104324405,0.1447779774304199
21.71746,12.029006427820454,0.1443220875505012
21.721544,12.047302323516169,0.1439442673413208
21.725624,12.061001409936887,0.1436069340736095
21.729704,12.07279533770765,0.1432893474787393
21.733788,12.091877725378442,0.1429123503851572
21.737872,12.113098139174594,0.1425354229173647
21.741952,12.140709795995765,0.1421064911411968
21.746036,12.165286209816555,0.1416847606045395
21.75012,12.19175636461178,0.141221195530129
21.754207999999995,12.21911231860648,0.1407236250211665
21.758296,12.240298479376031,0.1402727236632478
21.762388,12.256666381070715,0.1398691993267387
21.766483999999995,12.271018399215516,0.1394880399332016
21.77058,12.286378359135256,0.1390955424939935
21.774672,12.304307827104568,0.1386627609861512
21.778768,12.322680194673616,0.1382136553571385
21.782856,12.340598244967392,0.1377577189397566
21.786943999999995,12.35447311048585,0.1373199981541779
21.791032,12.363186124554108,0.1369131522659383
21.795124,12.375488006122414,0.1364808241079908
21.799212,12.384766062365877,0.136082521664624
21.803288,12.396060002159231,0.1356629630718416
21.807376,12.414409534377215,0.135171293170743
21.811468,12.435217849744834,0.1346445842500137
21.815552,12.447619038537535,0.1341882480527815
21.819636,12.461360343804994,0.133710609812729
21.823728,12.469829072722316,0.1332678253481034
21.827824,12.482329568739424,0.132785094144987
21.831916,12.488217371931642,0.1323579018341585
21.836008,12.495899608873888,0.1319193846259074
21.840104,12.505376279566152,0.1314687123049547
21.8442,12.51697955870825,0.1309930029357145
21.848236,12.531606663175184,0.1304878057026437
21.852324,12.547684609016803,0.1299574800288584
21.856372,12.557039137133607,0.1294856589999377
21.860456,12.565042131100125,0.1290097046054818
21.864544,12.564637998491726,0.128597829323185
21.868636,12.564344590783266,0.1281817353696915
21.872728,12.5660670666247,0.1277443408912844
21.876816,12.564422124765956,0.1273228800219568
21.8809,12.557848198932412,0.1269456991182915
21.884988,12.552392939773751,0.1265550397294626
21.88908,12.542008696640291,0.126210141415444
21.893168,12.528157728582254,0.1259104301604358
21.897255999999995,12.519235744499014,0.1255656734563976
21.901347999999995,12.506281993315984,0.1252591746728033
21.905344,12.494004009208098,0.124954375248414
21.909396,12.477694258000424,0.1246878596062958
21.913484,12.46587059116781,0.1243926434813303
21.91758,12.450690924310551,0.1241378772052105
21.92168,12.433384649003465,0.1239058367148392
21.92576,12.416421966071711,0.1236878298275748
21.929844,12.39700049999033,0.1235044317875869
21.933928,12.3764717849096,0.1233603140525646
21.938008,12.365025963478924,0.1231571682054395
21.9421,12.354599501498727,0.1229705035538578
21.946184,12.353931700243724,0.1227275930236872
21.950276,12.355623374913954,0.122480685134777
21.954363999999995,12.360350292584553,0.1222321963701242
21.958452,12.365199352830622,0.1220056730369105
21.962536,12.378344814751664,0.1217229415326656
21.966619999999995,12.390936652173036,0.1214610361347313
21.970708,12.403761357069806,0.1212175975767501
21.9748,12.418491220616538,0.120959936060909
21.978888,12.432778184563531,0.1207191529184245
21.982972,12.451661957785518,0.1204484994102137
21.987051999999995,12.473126656732603,0.1201669916843024
21.991132,12.499863932029823,0.1198595767934983
21.995216,12.5252610908523,0.1195738853067861
21.9993,12.556595175424516,0.1192394343833264
22.003376,12.59386618574648,0.1188570285444226
22.007456,12.636398354743044,0.1184259819671956
22.011532,12.68004919041449,0.1179827477251515
22.015616,12.727953242985592,0.1174995842036886
22.0197,12.76733944408185,0.1170789995905857
22.023784,12.809073703427805,0.1166315712507566
22.027872,12.846543328198573,0.11620340633708
22.03196,12.881653477044106,0.115780021904987
22.036044,12.915522816639292,0.115349094420741
22.040132,12.951961664284047,0.1148832408413106
22.044215999999995,12.984811644428754,0.1144391235028861
22.048312,13.01619936552324,0.113994015564505
22.052404,13.044330393817487,0.1135550395476759
22.056491999999995,13.072793596811538,0.1131067055066784
22.06058,13.099573090955497,0.1126647061143912
22.064604,13.123771659374356,0.1122341532316145
22.068688,13.145500026968053,0.1118110316770467
22.072768,13.16195581821161,0.1114127018827245
22.076852,13.1808703926048,0.1109845061219461
22.080932,13.195077432823062,0.1105878047683559
22.085008,13.203568997091446,0.1102298673320587
22.089092,13.206234360510026,0.1099142127436327
22.093176,13.210018390603484,0.1095875431967432
22.097256,13.21010282829696,0.1092827772649923
22.10134,13.21220314954033,0.1089615909550917
22.105428,13.212509037033673,0.1086496292928
22.109512,13.21561730005199,0.1083220969585111
22.11354,13.220519996820329,0.1079867492006562
22.117632,13.225533418488602,0.1076483399566917
22.12172,13.228420231707046,0.1073292773495857
22.125812,13.231639219625295,0.1069998377626769
22.129908,13.232953048893586,0.1066814283880241
22.134004,13.242895454536658,0.1063097728814215
22.138096,13.25003548465476,0.1059539416876581
22.142192,13.257396964572733,0.105590921530554
22.146287999999995,13.266552878240727,0.1052205622018057
22.150379999999995,13.279408384308706,0.10483228161578
22.154476,13.292263890376685,0.1044433373059445
22.158512,13.303214237794704,0.1040670784560222
22.1626,13.316401918562487,0.1036697567068887
22.166692,13.328692382455255,0.1032752593684152
22.170728,13.340307079272886,0.1028771956972429
22.174816,13.352818992965526,0.1024770553268575
22.178856,13.363647197808078,0.1020809504814628
22.182948,13.377720677775338,0.1016572280367597
22.187044,13.390786215967657,0.1012411679184403
22.191132,13.402168045309882,0.1008303539185338
22.195228,13.412541932877158,0.1004276345232931
22.19932,13.422805095544504,0.1000291956457453
22.203375999999995,13.43418692488673,0.099620543810362
22.207408,13.44545802932902,0.0992162003396563
22.21144,13.462555334621122,0.0987779016082189
22.215528,13.474945105738296,0.0983663380252051
22.21958,13.488453543530348,0.0979443399962336
22.223604,13.504653631947436,0.0975134261869318
22.2276,13.518272794639424,0.0970895694972614
22.23168,13.528303089831365,0.0966803233916061
22.235764,13.53866555972311,0.0962602276296367
22.239844,13.54802008783991,0.0958471837105541
22.243928,13.553232123956986,0.0954642772686621
22.247964,13.562365202273917,0.0950581794247358
22.252052,13.573071264541005,0.0946525333181874
22.256136,13.578061850858209,0.0942762290148916
22.260207999999995,13.58092582872559,0.0939154334268819
22.264284,13.57841792301843,0.0935980688367987
22.268368,13.577483001261426,0.0932814515975486
22.272455999999995,13.573413529279645,0.0929875655464435
22.276532,13.56632023197302,0.092712893753152
22.280616,13.559005484866534,0.0924451345958797
22.284696,13.551247838160302,0.0921911199504616
22.28878,13.541142133204376,0.0919600899417431
22.292852,13.526783211348793,0.09176189434811
22.296936,13.513100056568357,0.0915674205421691
22.30102,13.501554927913276,0.0913809763268151
22.305108,13.491582783208347,0.0911958986107366
22.309192,13.48296217265371,0.0910182487828783
22.313276,13.473787937599392,0.0908572787051908
22.317368,13.468546162420465,0.0906988003508393
22.321452,13.465885312966632,0.0905352231949172
22.325524,13.467599822987925,0.0903607177477946
22.329608,13.470555142259569,0.0901980101458756
22.333692,13.476202112156246,0.0900274657841893
22.337784,13.486113716628113,0.0898494532600253
22.341876,13.502305839225064,0.0896521342590443
22.345972,13.523205495996944,0.0894343404115539
22.350068,13.543207935893813,0.0892198944616525
22.35416,13.565680576615843,0.0890036155958403
22.358256,13.591963534637795,0.0887697164432241
22.362352,13.617914317959942,0.0885462811426361
22.366447999999995,13.644086551081958,0.0883166457611455
22.370544,13.671377450878856,0.0880773104494331
22.37464,13.703265159950744,0.0878222068723562
22.378732,13.733812752547884,0.0875837605695613
22.382828,13.76166869451999,0.087353920741645
22.386924,13.782014726792196,0.0871557604701236
22.391016,13.804265917714355,0.0869496684310385
22.395112,13.828643717086347,0.0867287208217419
22.399208,13.854250908033157,0.086497154857516
22.403303999999995,13.87784221543007,0.0862781758390097
22.4074,13.89896332200182,0.0860608995535733
22.411496,13.91581979399838,0.0858502993457827
22.415592,13.92886594869502,0.0856569462926003
22.419692,13.942355002991402,0.0854511161520722
22.423788,13.956065507087656,0.0852401161616589
22.427883999999995,13.968989519208831,0.0850291235951999
22.43198,13.980229822479917,0.0848197364331921
22.436076,13.991802300450807,0.0846008644941213
22.440172,14.005169212171724,0.0843782354191255
22.444264,14.020773457242402,0.0841386665432062
22.44836,14.036488427213014,0.0838963802862953
22.452456,14.055337947408402,0.0836350890567906
22.456552,14.068128399278574,0.0833841377142925
22.46064,14.079788766798336,0.0831185071446818
22.464676,14.092789250792844,0.0828380263239979
22.468768,14.109821501887144,0.0825351944764308
22.472856,14.125391493931222,0.0822282730928203
22.476944,14.140285718900158,0.0819180122953064
22.481044,14.150693859494035,0.0816199097781346
22.485132,14.158742524162683,0.0813185228354273
22.489232,14.169815014156171,0.0810018473160512
22.49332,14.184697821449577,0.0806708259930465
22.497352,14.2011421950176,0.0803190936566195
22.50144,14.218815960160445,0.079957414664884
22.505476,14.230209207178202,0.0796105474095914
22.509512,14.240029470245808,0.0792619907951338
22.513559999999995,14.253660050613334,0.0788996043934713
22.517648,14.268409297655738,0.0785298024114038
22.52168,14.280799068772907,0.0781579571529678
22.525772,14.290718639064917,0.0777866057706381
22.52986,14.30164615113187,0.0774110476437503
22.533908,14.309549837873982,0.0770512311078825
22.537952,14.319247958366118,0.0766871865243734
22.541984,14.33185917928316,0.076311881512599
22.546019999999995,14.34245451665031,0.0759464688257451
22.55006,14.35596295444236,0.0755708524618401
22.55414,14.369582117134351,0.0751929145546588
22.558184,14.386114380251248,0.0748052232945748
22.56226,14.399954992743105,0.0744220443575616
22.566304,14.418503139409893,0.0740246851997265
22.570384,14.437272735876553,0.0736234199978507
22.574468,14.454358623493118,0.0732238314789235
22.578548,14.47032584443481,0.0728325744310788
22.582632,14.486071615576629,0.0724492712834312
22.586716,14.508319354643396,0.0720495935498829
22.590748,14.53258297726006,0.0716419247362908
22.594836,14.556060107901647,0.0712346276673016
22.598924,14.57886147146809,0.0708241932248584
22.603012,14.601441385234663,0.0704206558472038
22.607104,14.626491499826404,0.0700200149949329
22.611196,14.650644397543132,0.0696220032021349
22.615284,14.676923903709689,0.0692132297633013
22.61938,14.705330018326071,0.0687939804924059
22.62348,14.729704365842672,0.0683923567874246
22.627572,14.758110480459056,0.0679746712810334
22.631668,14.780125352050424,0.0675697488586498
22.635764,14.799005673417016,0.0671803520170194
22.639856,14.812281243733668,0.0668051788164726
22.643951999999995,14.83306672375022,0.0664122326065981
22.648048,14.851049828241802,0.0660269444320092
22.652144,14.86377177405878,0.0656684124915163
22.656244,14.874477836325864,0.0653181823809166
22.66034,14.885970390568025,0.0649700497503933
22.664428,14.89286613553519,0.0646306710917408
22.668524,14.895054346327424,0.0643031863601421
22.67262,14.892313573144865,0.0639923833077947
22.676715999999995,14.885762482662386,0.063691392939677
22.680812,14.87898994238004,0.0633963421187856
22.684904,14.870644418147538,0.0630972324055
22.689004,14.85590765089002,0.0628074028033704
22.6931,14.842178825407448,0.0625137981045179
22.697195999999995,14.825647624399906,0.0622256431690759
22.701287999999995,14.80710053984247,0.0619449174140024
22.705384,14.793371714359898,0.0616507907072926
22.70948,14.77863494710238,0.0613608291821641
22.713576,14.767487047344911,0.0610667612444859
22.717672,14.763505464912,0.060744258364316
22.721768,14.759191707779284,0.0604293575722988
22.725864,14.747257316046737,0.0601323590080141
22.729959999999995,14.738125299839156,0.0598303920658008
22.734056,14.730222675206395,0.059518224542579
22.738152,14.724225209223594,0.059201447308118
22.742248,14.719457134815606,0.0588757389618915
22.746344,14.717491435932583,0.0585446795587599
22.75044,14.716533678824517,0.0582097185647618
22.754472,14.721402122566255,0.0578592673722025
22.758564,14.73108882538286,0.0574973280856707
22.7626,14.74268068684942,0.0571323597952743
22.766691999999995,14.752932431841227,0.0567787489991677
22.770727999999995,14.769796869657927,0.0564123712167998
22.774824,14.784756148824664,0.0560507343536181
22.778916,14.799493978191531,0.0556944487557843
22.78296,14.81311314088352,0.0553442719513195
22.786992,14.82370847825067,0.0550049340525869
22.791024,14.833185148942936,0.0546725065345996
22.795107999999995,14.842551094735263,0.0543433808353312
22.799199999999995,14.84654515695306,0.0540401890499176
22.803288,14.854460261370706,0.0537267523445855
22.807336,14.86708289996328,0.0534054412495738
22.811432,14.87600594615587,0.0530891133991649
22.815524,14.88683415099842,0.0527692952055871
22.819608,14.893630588741184,0.052461733946918
22.823692,14.895387317609217,0.0521697687419029
22.82778,14.892547237202251,0.0518816056384506
22.831872,14.888588490120409,0.0515990237362707
22.835956,14.881495192813787,0.0513288724473122
22.84004,14.86857569465736,0.0510712805886523
22.844124,14.848822053876177,0.0508289497792642
22.848208,14.830297804669804,0.0505770352022932
22.852291999999995,14.80605807951356,0.0503343476334994
22.85638,14.77789731215746,0.050099786346801
22.860464,14.747044894176328,0.0498644935823729
22.864548,14.715295259320184,0.049628326288926
22.868628,14.678162323213966,0.0493915972203338
