Time,Force,Position
26.037728,9.801377406025605,0.1422216756137801
26.041824,9.865267000924712,0.1414645241367369
26.045924,9.917912840697344,0.1407440583717135
26.050016,9.957875501644342,0.1401302449454921
26.054116,9.991779094266128,0.1395703685225187
26.058208,10.018627094463284,0.1391122617537535
26.062304,10.043791385810351,0.1386699171304645
26.066404,10.057291857782268,0.1383393286367087
26.0705,10.066416970279056,0.1380477183469363
26.074596,10.07261756467541,0.1377580132446871
26.078688,10.07488569919638,0.1374841275508671
26.082784,10.06627650631727,0.137315936926577
26.08688,10.0581102130379,0.1371268554241649
26.090976,10.054762178833396,0.1368813098226748
26.095072,10.05253281130377,0.1366177498319225
26.099104,10.04515300999948,0.1364254362961981
26.103196,10.044607351319948,0.1361523469146867
26.107288,10.039907782965155,0.1359031327807035
26.111368,10.032172971609992,0.1356595215447526
26.11546,10.017936192329875,0.1354812870502098
26.119548,10.004031587749568,0.1352874928104373
26.123636,9.984067914844044,0.135138039891186
26.127728,9.962088358388623,0.1350142322627931
26.131764,9.942013960583168,0.1348691314528241
26.135852,9.924852663202612,0.1346896610599808
26.13994,9.91172313292185,0.1344579732681679
26.144024,9.899490819516096,0.1342185035623099
26.148116,9.895997807385056,0.1338785209112268
26.152144,9.892836969953825,0.1335234923438664
26.156224,9.896964592422616,0.133103090231915
26.160308,9.90748345791643,0.1326255746257761
26.164388,9.922045508185562,0.1321304285825503
26.168468,9.939864251254935,0.1316225399952174
26.172548,9.95656432764943,0.131135209829955
26.176632,9.970916345794228,0.130688434143938
26.180712,9.986165580814037,0.1302345225182738
26.184792,9.995477890084096,0.1298511610755384
26.188868,10.007825442354529,0.1294624391751521
26.192952,10.029255888275015,0.1289986364732291
26.197044,10.052480767945529,0.1285190263687758
26.201128,10.0726818222912,0.1280754277240091
26.205216,10.098155452987008,0.1275921332362745
26.209308,10.131925485357792,0.1270355572470757
26.213388,10.167711401278469,0.1264580237608674
26.217472,10.203497317199146,0.1258839209220114
26.22156,10.237378074469865,0.1253324302587238
26.225636,10.2675592393406,0.1248153659321062
26.229712,10.293819362011488,0.1243449158648638
26.233788,10.322549685507536,0.1238669058781998
26.237868,10.345675257953644,0.1234427691749068
26.241948,10.366895671749798,0.1230410855980793
26.246027999999995,10.38485939274571,0.1226520713746519
26.250108,10.400242188016518,0.122280024003436
26.254192,10.413830549537302,0.1219217791780882
26.258272,10.43055346128286,0.1215263207172489
26.262352,10.447276373028416,0.1211315696915347
26.266436,10.467809602073894,0.1207025987450155
26.27052,10.49248532311909,0.1202278721443625
26.27462,10.51245350998936,0.1197987839244704
26.278712,10.536121289259611,0.1193424517788984
26.282812,10.56830692000471,0.118815834002142
26.2869,10.605200084924736,0.1182561252185765
26.290996,10.639512324119664,0.1177160672808249
26.295092,10.671587229964826,0.117208214500933
26.299176,10.704670077584936,0.1166935653059659
26.303264,10.737752925205044,0.1161804384196634
26.307348,10.772630206575174,0.1156558512743113
26.31144,10.80649954617036,0.1151418326917377
26.315528,10.838685176915458,0.1146383269411728
26.319612,10.872665241410576,0.1141247375769311
26.3237,10.906756030805631,0.1136108021619132
26.327792,10.944214237900866,0.1130849129749486
26.331852,10.984585545421004,0.1125377796632328
26.335944,11.025632620016284,0.1119947364904212
26.340044,11.06656896971163,0.1114606431882946
26.34414,11.110196970032012,0.1109138534904522
26.34824,11.15203053660237,0.1103806829570392
26.352336,11.191848219622832,0.109872407800666
26.356432,11.232784569318175,0.1093542415722001
26.360524,11.2719264852635,0.1088501883778427
26.36462,11.305352925258944,0.1083937442576477
26.36872,11.331601630254296,0.1079798876466857
26.372816,11.356055901499625,0.1075778890789216
26.376908,11.38095307234469,0.1071598364135847
26.381008,11.40573951828982,0.1067488921496647
26.3851,11.43131245621003,0.1063387854468053
26.389196,11.460695711430157,0.1059046389027202
26.393292,11.494110733750068,0.1054376871393951
26.39738,11.525731322319958,0.1049811677733081
26.401476,11.556676143814704,0.1045226516801126
26.405568,11.583810648009534,0.1040915562935132
26.409664,11.610712284728962,0.1036429801844922
26.413752,11.63481154592342,0.1032144438619527
26.417848,11.66327474891747,0.1027433513104204
26.421948,11.69117290973631,0.1022673579787398
26.426048,11.715138610679768,0.1017942355607252
26.430136,11.741452369872924,0.1012953223976083
26.434232,11.765406653140849,0.100798676458052
26.438328,11.78443195243397,0.1003389313130117
26.44242,11.80098705090193,0.0998839876755196
26.446515999999995,11.815071948544729,0.0994327231709061
26.450612,11.831062004837475,0.0989696677666444
26.454704,11.846154844255215,0.0985111604088028
26.4588,11.860571916597817,0.0980493597425869
26.462892,11.870502904565356,0.0976074833507482
26.466984,11.878074416607664,0.0971656558625468
26.471072,11.87746025187493,0.0967628033877217
26.475159999999995,11.873257219642154,0.0963762172510178
26.479244,11.869275637209242,0.0959813804132952
26.483328,11.867309938326226,0.0955720589044157
26.487412,11.868368064768053,0.0951397811886903
26.4915,11.8662916409851,0.0947344494764713
26.495492,11.8632072754272,0.0943366731828243
26.499584,11.85306731744467,0.0939921395885831
26.503672,11.84080075101232,0.0936664520597954
26.50776,11.827869835180358,0.0933633067892772
26.511848,11.80878054379878,0.0931081916443728
26.515944,11.786335252392556,0.0928862092447781
26.520032,11.76511935256115,0.0926479958266666
26.524132,11.746595103354782,0.0923985821611176
26.528228,11.732667663423408,0.0921273419971223
26.53226,11.718408048792226,0.0918676673175808
26.536344,11.701124608836205,0.0916291601494407
26.540428,11.684184761255525,0.0914064159540134
26.544516,11.671952447849767,0.0911583997804416
26.5486,11.65938795974421,0.0909213914558081
26.552692,11.654222656438613,0.0906491664232655
26.556784,11.647938686458136,0.0903876447288679
26.560872,11.644346367102694,0.0901164586050692
26.564956,11.635825063772456,0.0898772102260076
26.569044,11.622485501367354,0.0896654450762031
26.573132,11.61194831448722,0.0894397347863731
26.577224,11.601632577406958,0.0892057703176531
26.581304,11.593443448776524,0.0889529448570451
26.585396,11.58547576994596,0.0886918986469214
26.58948,11.582658524890062,0.0883918507688847
26.593568,11.58465953890903,0.0880638522577491
26.59766,11.592708203577676,0.0876934301766689
26.601748,11.603448518871357,0.0873140429684058
26.605836,11.6111650088402,0.0869559152846277
26.609924,11.617087065059016,0.086605133115661
26.614008,11.623452020877576,0.0862393405798594
26.618092,11.639453494845863,0.0858220004869876
26.62218,11.657127259988703,0.0853760931029414
26.626264,11.673117316281456,0.0849341269857282
26.630288,11.693139139673995,0.0844664273805487
26.634372,11.710580037341437,0.0840058581987953
26.638456,11.73093403543378,0.0835300161322233
26.64254,11.748596382901088,0.0830640231881569
26.646616,11.773314322793023,0.0825545290984606
26.6507,11.803858463534771,0.0820143667439095
26.654788,11.837426429601358,0.0814594072557751
26.658868,11.871891612542957,0.0809032899673424
26.662952,11.90848340393438,0.0803329447306509
26.66704,11.947877570850778,0.0797540966118467
26.671132,11.98245347869231,0.0792014376930902
26.675216,12.01825877810866,0.078638753242104
26.679296,12.053277585549932,0.078078594646319
26.68338,12.089636509465954,0.0775051078732479
26.687456,12.128232766731742,0.0769130424814135
26.69154,12.16514531514744,0.0763229666685301
26.695616,12.202168588463074,0.0757317145853976
26.699696,12.232014126778612,0.0751620740763885
26.70378,12.26185966509415,0.074595902891703
26.707864,12.290807986534675,0.0740332455246183
26.711943999999995,12.317175382250102,0.0734754176537375
26.716028,12.339953910465482,0.0729253581322919
26.720108,12.359365020980684,0.0723764930797177
26.724184,12.37921903109562,0.0718140964087734
26.728268,12.394365507035634,0.0712711719283543
26.732356,12.40816044882536,0.0707200323611657
26.73644,12.413991163639915,0.0701817768505908
26.740532,12.417462402529242,0.0696376617489125
26.74462,12.419360657468411,0.0690907718427965
26.748708,12.4149783942825,0.0685545204851388
26.752796,12.41305491424622,0.0679938182334973
26.756824,12.407764016509764,0.0674328646782156
26.76092,12.40000291794814,0.0668694652419814
26.76496,12.387645010111523,0.0663166466218984
26.768992,12.37584072677458,0.0657466688113014
26.773024,12.367060268762478,0.0651622379059968
26.77706,12.355477435225405,0.0645842691138524
26.781156,12.34501326836321,0.0639972438956089
26.785248,12.330849509101036,0.0634179979316424
26.789344,12.318812358288692,0.0628262993400333
