Time,Force,Position
23.58734,10.29554325071144,0.1478843588762058
23.59144,10.319733853310158,0.1475458680551636
23.595532,10.33852973698328,0.1472309161742582
23.599628,10.353282435881074,0.1469428257731599
23.603728,10.364778441978627,0.1466759890974017
23.60782,10.373128480175874,0.146424312106902
23.61192,10.379905534422964,0.1461805397225654
23.616016,10.386461138870189,0.1459464337664859
23.620108,10.388530658942353,0.1457558737956717
23.624204,10.391386670989592,0.1455620309714345
23.6283,10.38874865688683,0.1454246956019661
23.6324,10.385545600608856,0.1452807625210627
23.636496,10.385366369655726,0.1450963653832289
23.640588,10.384400646727515,0.1449156910352129
23.644684,10.382316257124424,0.1447536372540807
23.64878,10.38482867679633,0.1445447905900386
23.652876,10.389589847493529,0.1443310791884931
23.656976,10.395813277240949,0.1441167542041259
23.661068,10.406522791363424,0.1438616413842581
23.665168,10.422050564560768,0.1435531399259657
23.66926,10.438364829733183,0.1432418963873548
23.673356,10.454346920205795,0.1429464122108755
23.677452,10.473696428378588,0.142629678851626
23.681548,10.491927269876498,0.1423315794369788
23.685644,10.513857703774391,0.1419990485472067
23.689744,10.54038494694728,0.1416243456254436
23.693836,10.568706623870188,0.141235638396222
23.697932,10.60464893539293,0.1407697698394709
23.702028,10.646982489940692,0.1402483017391587
23.706128,10.690434711163334,0.1397128646308958
23.71022,10.7406103501108,0.1391074740757575
23.71432,10.791240306333536,0.1385142666916758
23.718416,10.84287820433122,0.1379150123744554
23.722508,10.89530259430398,0.1373152541754707
23.726608,10.95007504252644,0.1366809539254657
23.730704,11.003950273873889,0.1360601977354055
23.734796,11.05568747909597,0.1354404118674389
23.738892,11.104389441317682,0.1348300681332826
23.742992,11.15252636136419,0.134218973483177
23.747088,11.193153371710796,0.1336816594864275
23.751184,11.235341948332026,0.1331133676128145
23.755276,11.278084149452928,0.1325249265020975
23.759376,11.3184668746486,0.1319470082150454
23.763468,11.357165890994183,0.1313776291646115
23.767568,11.393283981614664,0.1308291829503229
23.77166,11.425813204735102,0.1303115712399873
23.775756,11.457666660780394,0.1297946204059375
23.779788,11.47931855650075,0.1293666748501859
23.78388,11.496484367846053,0.1289745544693793
23.787968,11.511855745441324,0.128596880149451
23.792056,11.525211239486708,0.1282438185094399
23.796144,11.542377050832004,0.1278583776832526
23.800236,11.55472460310244,0.1275184835567385
23.804324,11.567072155372877,0.1271795685129175
23.808416,11.57707164939361,0.1268759268164741
23.812512,11.584268767889377,0.1265958325588149
23.816604,11.59393608721031,0.1263065245357789
23.820692,11.608654533081507,0.1259951453587935
23.82478,11.620459878527804,0.1257114451324789
23.828872,11.640783075448942,0.1253581637210495
23.832964,11.661106272370082,0.1250076522816125
23.837048,11.682437411066168,0.1246493508472808
23.84114,11.706792375087092,0.1242634688869224
23.845216,11.737084264857764,0.1238242113267008
23.849308,11.766700387553296,0.1233842770000376
23.853396,11.797545901823636,0.122928007568306
23.857488,11.824802548593938,0.1224945256434782
23.86158,11.860012004663876,0.1219883492566732
23.865668,11.893537751883724,0.1214893324553273
23.86976,11.928182165778455,0.120978307403425
23.873848,11.960245653948084,0.1204814772192434
23.877932,11.99006039109242,0.1199887582878541
23.88202,12.02502556201142,0.1194460555794243
23.886104,12.059536415655147,0.1188943156979584
23.890192,12.095387385773629,0.1183224810459822
23.894268,12.13538084789183,0.1177117927517264
23.898352,12.176492976684914,0.1170924209865807
23.902432,12.209419428702956,0.116525689647204
23.906516,12.243243097596014,0.115954159901551
23.9106,12.26765169813921,0.1154527162042564
23.91468,12.2917281239826,0.1149662767627081
23.918764,12.314575158251175,0.1144992827149007
23.922844,12.33428764229498,0.1140655347621207
23.926932,12.349857634339056,0.1136736586066924
23.931012,12.363976785008449,0.1133066215897554
23.935096,12.377763760978038,0.1129527071713147
23.939184,12.397044763097632,0.1125665970576891
23.943272,12.410278114567546,0.1122342598258304
23.947356,12.430234883762282,0.11185505985491
23.951444,12.449072986282136,0.1114894251162364
23.955532,12.469816247451948,0.1111114173831647
23.959624,12.486417016622037,0.1107715352443323
23.963712,12.503128510692065,0.1104308568205657
23.967796,12.51961855496222,0.1100986657300158
23.97188,12.535211382357366,0.1097720534665742
23.975972,12.54800183422754,0.1094643753584719
23.980048,12.559108577247628,0.10916340884832
23.984132,12.575255029142449,0.1088214826556868
23.988204,12.594646756161977,0.1084495100410819
23.992288,12.61907819205624,0.1080369609362832
23.996368,12.637561284525225,0.1076429545708223
24.000452,12.653795625968913,0.107247180799156
24.004528,12.670472867012338,0.1068371500368279
24.008612,12.68893312413026,0.1063942078939413
24.012696,12.71097083107269,0.1059100811767217
24.016736,12.730870511889762,0.1054203746959029
24.020832,12.74941865855655,0.1049269418853907
24.02492,12.772441471922866,0.1043887920058643
24.029008,12.78773292578941,0.1039032140183898
24.033092,12.803799453955495,0.1033928762125106
24.037184,12.818403723071368,0.1028804624726469
24.04126,12.835356050436936,0.1023409275829338
24.045352,12.847490118727636,0.1018334118266013
24.049432,12.861861520368103,0.1013053151173328
24.05352,12.876565096708376,0.1007673571244466
24.057604,12.891268673048646,0.1002304569024492
24.061692,12.904177815638896,0.0997020249637325
24.065784,12.917086958229142,0.0991755456742991
24.069884,12.92909888394438,0.0986559489441804
24.07398,12.941897301634691,0.0981385901724997
24.078076,12.95996829567514,0.0976029823617926
24.082168,12.981628157215637,0.0970547543165903
24.086264,13.00407451073121,0.0965084702553509
24.09036,13.025967239747107,0.0959824888155173
24.094448,13.047638518963138,0.0954669178257859
24.098544,13.073574432754356,0.0949437648729023
24.102644,13.099178171845768,0.0944337097537411
24.106744,13.1233310695625,0.0939472426301407
24.11084,13.151515734379014,0.0934343344045134
24.114936,13.181051933345811,0.0929318228529265
24.119032,13.213844825112854,0.092429756408002
24.12312,13.252021018129966,0.0919128990302275
24.127216,13.291094428022092,0.0913931316506423
24.131312,13.32613607081443,0.0909008815272133
24.135408,13.362861422456856,0.0904089625407867
24.139496,13.400594715874233,0.0899128692931065
24.143588,13.44124110971651,0.0894036591394158
24.147676,13.4827847204338,0.0888949297410062
24.151776,13.52130450582625,0.0884070800829011
24.155864,13.555338206843642,0.0879342713390605
24.159956,13.591609241210795,0.0874458199195979
24.164044,13.625975116927991,0.0869685489643303
24.168132,13.660451717545122,0.0864903025666046
24.17222,13.69223666753722,0.0860207439735439
24.176308,13.721219242004343,0.0855641198316415
24.180392,13.75042326627134,0.0851044942261038
24.18448,13.777722131888376,0.0846543442944829
24.188564,13.802440071780312,0.0842090801996432
24.192652,13.825474302822158,0.0837668183180582
24.196744,13.849405750739018,0.0833248942193978
24.200832,13.869969780955698,0.0828876201633705
24.204916,13.885039785022371,0.0824698048575808
24.209004,13.90122845576393,0.0820437473785587
24.213044,13.919654459855249,0.0816004540147987
24.217136,13.934380871546583,0.0811703502239117
24.221228,13.9473128494879,0.0807456077908211
24.22532,13.95452935147934,0.0803438338711214
24.229416,13.957149044195782,0.0799563772558666
24.233512,13.958195752962071,0.0795661602513641
24.237604,13.964060720803223,0.0791560445390666
24.2417,13.965107429569516,0.0787668324455928
24.245792,13.964470429485718,0.078378420324554
24.249888,13.95934734502686,0.0779997389927036
24.253984,13.955342927242889,0.0776121620690066
24.258076,13.95256790103373,0.0772131034838359
24.262164,13.94250441492454,0.076832587784778
24.26626,13.932773103515157,0.0764421194847982
24.270288,13.922255300130695,0.076049260802799
24.274372,13.910840279871223,0.0756576586900601
24.278404,13.890674540661502,0.0752771805598508
24.282488,13.87073025125165,0.0748896129730943
24.286576,13.851339586341473,0.0744853851065083
24.290612,13.830375937481142,0.0740775987756478
24.294608,13.81075240509556,0.0736553439726612
24.298632,13.789445163859892,0.0732316236770742
24.302672,13.76824864752416,0.0728040001472878
24.3067,13.752202564963095,0.0723482035348412
24.310728,13.739291032626806,0.0718740769695487
24.314756,13.725482283415504,0.071399586508812
24.318808,13.70797394180422,0.0709345504182067
