Time,Force,Position
29.093896,8.139274061184128,0.1476602715133789
29.09792,8.153595278157718,0.147369351226816
29.102004,8.163663278231652,0.1471610976233958
29.10604,8.180565420930344,0.1468467388508674
29.11012,8.201167156029017,0.1464854138899146
29.11416,8.22176889112769,0.146127487750081
29.118184,8.245283726651268,0.1457283563011404
29.122264,8.269695779049858,0.1453210494596334
29.126348,8.300499074473468,0.1448358577635405
29.130432000000003,8.329286486347183,0.1443853001254385
29.134512,8.361884215520814,0.1438813218631728
29.138540000000003,8.399754521044583,0.1433220571417265
29.142632000000003,8.443118852718356,0.1427007333307269
29.146708,8.4843565759423,0.1421215045624624
29.1508,8.533325658666016,0.1414336501001349
29.154888,8.57904946626502,0.1408113530602201
29.15898,8.623876056989014,0.1402025545889784
29.163068,8.667362531238252,0.1396326309952169
29.167156,8.706362921112435,0.1391161864349457
29.171252,8.74177444348657,0.1386410599907955
29.17534,8.774051415635927,0.1382216401530297
29.179432,8.805320446010342,0.1378207873419007
29.183528,8.839502576809661,0.1373821071455753
29.187564,8.874471199584056,0.1369470438427288
29.191652,8.904732288183524,0.1365711746880001
29.195736,8.932080276358086,0.1362356728982981
29.199824,8.955507222332797,0.1359555455535035
29.203916,8.976463967482339,0.1356921220367744
29.208004,8.995171961606585,0.1354358403887085
29.2121,9.015109347305652,0.1351540610703616
29.216196,9.036054674779662,0.1348606390535103
29.220292,9.055537743203452,0.1345703075457283
29.224388,9.06952678547724,0.1343399722942079
29.228472,9.08362655265096,0.134104143993634
29.232556,9.095034669199649,0.1338970577007645
29.236648,9.1066642355482,0.1336788649715206
29.240736,9.120321103122182,0.1334695102064305
29.244828,9.140380631396711,0.1332343040979947
29.24892,9.167850762146742,0.1329600495901132
29.253008,9.20385016204715,0.1326295692606672
29.257092,9.245576455572966,0.1322719381888155
29.261184,9.291567383673977,0.1318898380599389
29.265272,9.335320978425218,0.1315472224200277
29.269364,9.379196715751927,0.131238833761412
29.273452,9.429585838679122,0.1309003642107695
29.277544,9.484128871281571,0.1305398644821451
29.281636,9.545849638884116,0.1301214921781811
29.285728,9.61419451698708,0.1296725273294539
29.289824,9.684123796715731,0.1292561428241448
29.293912,9.758096261219702,0.1288290271374881
29.298004,9.833198810074087,0.1284242019681956
29.302096,9.910328660153898,0.1280321985452458
29.306188,9.993406853658987,0.1276082693447903
29.310284,10.082433390589358,0.1271550474047597
29.31438,10.17348722874515,0.1267173725469897
29.318476,10.269592193451214,0.1262575878350159
29.322568,10.364334206331458,0.1257652871145356
29.326668,10.450646257285724,0.1252930595559191
29.330764,10.528650488889484,0.1248654584676591
29.334856,10.596552467392709,0.1244955998555232
29.338952000000003,10.656810975945035,0.1241385532019783
29.343048,10.71112114107208,0.123817470723583
29.347148,10.76811153914863,0.1234484567773124
29.35124,10.81611835079953,0.1231129130047113
29.355332,10.85995983509964,0.1227680919921735
29.35942,10.902781959949271,0.122407084447067
29.36352,10.94088513294844,0.1220617560988885
29.367616,10.973482862122072,0.121731889676699
29.371708,11.002812480819928,0.1213840369034903
29.375804,11.023612830367409,0.1210808763267006
29.379904,11.037334752139191,0.1207928159362539
29.384,11.04813215581054,0.1205033284377863
29.388096,11.052526898781336,0.1202322823739177
29.392188,11.049732489076506,0.1199808112263075
29.396284,11.041654085346003,0.1197314220387281
29.40038,11.026386528939875,0.1195000664934483
29.404476,11.009324538783726,0.1192799875608597
29.408576,10.991365331752569,0.119064767348807
29.412668,10.973849024321144,0.1188309244056161
29.416768,10.961372425764452,0.1185449572475544
29.42086,10.955397795132717,0.1182095945079983
29.424956,10.95446287337571,0.1178243909317036
29.429056,10.947923200568765,0.1174823196618616
29.433152,10.948893437461718,0.1170807043082405
29.437248,10.950982341029556,0.1166655083846141
29.44134,10.951608985547171,0.1162494575713093
29.44544,10.951449138089712,0.1158353401916497
29.449532,10.948597640007216,0.1154370000068294
29.453628,10.95067512589952,0.1149955115858397
29.457724,10.956895103791544,0.1145095395129831
29.46182,10.967711890958562,0.1139917788152534
29.46592,10.979979519500269,0.1134483710290207
29.470016,10.99325508981692,0.112894907308113
29.474108,11.008214368983658,0.112335380520324
29.478204,11.024181589925346,0.1117661381349636
29.482304,11.04183251971712,0.1111899171371947
29.486396000000003,11.05937272460896,0.1106183694585458
29.490496,11.078707363250825,0.1100357141037271
29.494592,11.102749536067618,0.1094210069855875
29.498688,11.12376788355957,0.108837277692467
29.502784,11.138173538226637,0.1083041515221186
29.50688,11.147195891643628,0.1078032556357535
29.510972,11.161479403735228,0.1072483616547263
29.515068,11.17418993187667,0.1066971417939029
29.519164,11.187121909817984,0.1061400446392759
29.52326,11.201959046409256,0.1055718912566868
29.527356,11.214104532375492,0.1050175274517495
29.531456,11.231400452116398,0.1044155734895575
29.535552,11.242980895907426,0.1038565124161266
29.539644,11.256466498348416,0.1032867643093333
29.54374,11.270284275489209,0.1027070873848372
29.547836,11.28219689398004,0.1021418808749212
29.551936,11.295228179145756,0.1015649555673557
29.556028,11.308702363911213,0.1009729115963024
29.560124,11.322963040651745,0.1003816656256634
29.56422,11.344279309816905,0.0997372752112153
29.568312,11.36984879588172,0.0990555158567741
29.572412,11.400347265921331,0.0983419306178139
29.576508,11.425130260011072,0.097666438926583
29.580604,11.45416647100047,0.0969548976657798
29.5847,11.48913960773961,0.0962028202644261
29.588792,11.526128628028646,0.0954368283739211
29.592888,11.564014865192693,0.0946747029180008
29.596976,11.60369553610676,0.0939099610831182
29.601072,11.640241656796055,0.0931740164716553
29.605168000000003,11.674096126860317,0.0924523962905006
29.609264,11.71276885599944,0.0917036592419273
29.61336,11.749314976688732,0.0909782770440985
29.617456,11.788774197802937,0.0902369634012111
29.621484,11.825652493192033,0.0895057635423733
29.625576,11.860514905031236,0.0887918858625702
29.629664,11.896385258645394,0.0880730089517718
29.633744,11.938081813109354,0.0873275406743429
29.637836,11.976643817348544,0.0866075703930088
29.641872,12.014530054512589,0.08588501544708
29.645964,12.04547142415194,0.0852126279565149
29.650056,12.07238102669151,0.0845709952166942
29.654144,12.09166999463124,0.0839694440225076
29.658236,12.115101454570697,0.0833386155060052
29.66232,12.13338248073548,0.0827466558986034
29.666348,12.145837306050458,0.082187577604328
29.670432,12.155046856240723,0.0816550197125918
29.674512,12.156303597131355,0.081169773951267
29.678596,12.156663121146972,0.0806889514639725
29.682676,12.158252036737403,0.0801939553591362
29.68676,12.15580918522805,0.0797223045218841
29.69084,12.152358391943748,0.0792584597342481
29.694916,12.148121106684368,0.0787934671186812
29.698992,12.141978662775037,0.0783373406387906
29.703076,12.1384171445908,0.0778786705940322
29.707168,12.137768726831464,0.077406715209194
29.711248,12.136112367297187,0.0769409074124612
29.71528,12.125495256688325,0.0765252902903993
29.719356,12.121823013604155,0.0760735135077814
29.723436,12.12084242114502,0.0756163326881659
29.727516,12.121988437135713,0.0751448725268383
29.731592000000003,12.122015786451524,0.0746821264981787
29.735676,12.125632003267382,0.0742105955180984
29.739752,12.124208511208506,0.0737665624012226
29.743828,12.124800902699526,0.0733112753140357
29.747908,12.128195669715511,0.0728462632101082
29.751988,12.13461426205634,0.0723643638735355
29.756072,12.145961838371967,0.0718575290054448
29.760160000000003,12.155514980937571,0.0713556010638191
29.764244,12.166076065278125,0.0708491839762954
29.76834,12.18156613359347,0.0703186016709899
29.772428,12.191451450858878,0.0698052127018134
29.77652,12.2022339849993,0.0692909711131521
29.7806,12.212119302264709,0.0687782938443412
29.784688,12.218194302230197,0.0682802629846344
29.788776,12.220348259995834,0.0678001371218033
29.79286,12.221494275986524,0.0673246907764105
29.796948,12.22275101687715,0.0668439600581856
29.800932,12.21695216534315,0.0663995874230412
29.805016,12.206224329834347,0.0659766188567804
29.809108,12.190456785450817,0.0655776875534967
29.813196,12.176815849517112,0.0651646438692852
29.817288,12.166198738908248,0.0647378267419516
29.82132,12.16320226289922,0.0642866543446561
29.82536,12.15830062824023,0.0638412969671142
29.829392,12.155193427331264,0.063394512986378
29.83344,12.151975501522362,0.062951647569406
29.837424,12.150662734363422,0.0625041098873265
29.84152,12.149915009379685,0.0620660763257431
29.845616,12.148613659896276,0.0616459273781624
29.849644,12.15101190281285,0.0612200165508344
29.853688,12.159579938954575,0.0607900972302866
29.857772,12.169831683946388,0.0603632729713033
29.861852000000003,12.180648471113408,0.0599456306396957
29.865932,12.19415690890546,0.0595257556041206
29.870016,12.20945978044754,0.0591043870606642
29.874096,12.225659868864629,0.0586821753561259
29.878184,12.246567491456648,0.0582496243623834
29.88222,12.273301314898475,0.0577997096297109
29.886304,12.300256588140174,0.0573419933880027
29.890392,12.329227744931766,0.0568749026186474
29.894484,12.356858785248608,0.0564234515435667
29.898568,12.380458058465662,0.0559908504474715
29.902644,12.39722318905796,0.0555816405997393
29.906728,12.414996261425204,0.0551685493456442
29.910808,12.428172524517452,0.0547626522532777
29.914892,12.440562295634626,0.0543545562046892
29.918968,12.448133807676935,0.0539599130954736
29.923048,12.454918827744166,0.0535627015408442
29.927132,12.459122922086298,0.053163135030552
29.931208,12.453579773378763,0.0527917500470841
29.935288,12.443550540296176,0.0524223759761968
29.939368,12.424892730838804,0.0520722882289337
29.94346,12.40376472055627,0.0517150493831534
29.947548,12.37703195922379,0.0513654246255465
29.951636,12.34525948901658,0.051032991256482
29.955732,12.308558034834572,0.0507137055172203
29.959828,12.26255223720264,0.0504053896968635
29.963916,12.20690992142098,0.0501184235887022
29.968008,12.152054097614398,0.0498321980075029
29.972104,12.09406372358304,0.049557987390784
