Time,Force,Position
28.0188,8.139249375552433,0.1441151218979191
28.022892,8.225427866255703,0.1432146023429305
28.026976,8.300782666081165,0.1422566413178307
28.031064,8.358147457704257,0.1413734563969041
28.035092,8.406162235175296,0.1404744746597103
28.03912,8.445957082844695,0.1395707510891853
28.043204,8.481475878263371,0.1386777369320601
28.047288,8.512065689707246,0.1378707466388587
28.051364,8.54312123610193,0.1371282177492132
28.055444,8.57519614194709,0.1364137171048914
28.059528,8.602918523668196,0.1358235008429059
28.063612,8.640521708689961,0.1351740654139436
28.067696,8.689235088587207,0.1344451134817866
28.07178,8.740762261684953,0.1337316770958366
28.075868,8.796676211933361,0.1330268691655998
28.079956,8.858992822882318,0.1323015842971615
28.084044,8.918862068357171,0.1316709372399154
28.088132,8.97976209095804,0.131105669846832
28.092164,9.04662187465972,0.1305511221336898
28.096196,9.117868435512056,0.1300049681967291
28.100224,9.197312090814968,0.1294271222341417
28.104256,9.278340147743563,0.1288887956172114
28.1083,9.36273562237234,0.1283415400753578
28.112332,9.453533757701663,0.1277738558675551
28.116368,9.545916294656678,0.127245798139928
28.1204,9.64122334971213,0.1267285394721368
28.124488,9.73911133049268,0.1262044170870714
28.128624,9.835414909647543,0.1256544497322122
28.132708,9.928671828126504,0.1250833635859272
28.136796,10.02057721245518,0.1245111317482854
28.140884,10.115151412057823,0.1238577167958354
28.144976,10.200287707959548,0.1232371850443973
28.149064,10.276562560011085,0.1226933237830602
28.153152,10.34699979353728,0.122182274841689
28.15724,10.410469324187718,0.1216880223528725
28.161324,10.469994977287238,0.1211804559969629
28.165408,10.53376242961088,0.1205927074229134
28.169492,10.593586004383605,0.1199835707658086
28.173584,10.63971845855575,0.1194521320631559
28.177668,10.681353410677303,0.1189255498012819
28.181696,10.710980951048368,0.1184656097998538
28.185728,10.738237597818667,0.1179828146173943
28.189772,10.759435176263755,0.1175366777306443
28.193796,10.775348760683174,0.1170936332066198
28.197828,10.788670001701956,0.1166359334819222
28.201856,10.797050841070412,0.1161972804397031
28.205892,10.798475395238638,0.1157973570076763
28.209924,10.796986848981955,0.1154233715856443
28.319568,10.206107536153237,0.1151075123484862
28.323656000000003,10.210914377552564,0.1150332909036717
28.327744,10.218412869576932,0.1149414750555609
28.331832,10.22770579535132,0.1148382159722904
28.335912,10.243722138850536,0.114676306628597
28.339996000000003,10.262430132974783,0.1144968861361331
28.344084,10.28494844439895,0.1142859322593594
28.348168,10.309261189573135,0.1140625847082794
28.352256,10.337273527147303,0.1138116442403797
28.356352,10.364167198046594,0.1135757527341889
28.360444,10.398570778645782,0.1132798679253909
28.364536,10.435887459669877,0.1129582066912127
28.368632,10.46972599809386,0.1126572206621039
28.37272,10.492355034417958,0.1124433408145667
28.376816,10.51632418721681,0.1122067426000953
28.380908,10.539728297840451,0.1119632885882079
28.385,10.56414035023904,0.1117101199220154
28.389092,10.589106027137309,0.1114337945589759
28.393188,10.605443127660791,0.1112306790988169
28.39728,10.617404868709151,0.1110517948170626
28.401368,10.628247943082629,0.1108871305993529
28.405456,10.638193800581096,0.1107291750670297
28.409488,10.648361107879431,0.1105622028738138
28.413524,10.660433573827728,0.1103808251121863
28.41756,10.667909230501028,0.1102317655595623
28.421656,10.67672500364908,0.1100600216117686
28.425744,10.684754284822054,0.109890251370956
28.42984,10.691210582044874,0.1097216570647937
28.433872,10.695983170417607,0.1095595266515998
28.437904,10.703668859215243,0.1093730253075922
28.44194,10.7076549556129,0.1092125810665422
28.446028,10.711419602210686,0.1090616887354596
28.450116,10.716081465683486,0.1089059631856932
28.454208,10.731055614381152,0.1086762953319534
28.458236000000003,10.742895212854044,0.108480168891242
28.462264,10.74689272692723,0.1083504434049767
28.466296000000003,10.752795399650376,0.1082067250910547
28.47038,10.758587347473586,0.1080675515418764
28.47446,10.7718892049967,0.1078741739049718
28.47854,10.786653321570023,0.107684179842209
28.48252,10.808362305668048,0.1074336856453301
28.486548000000003,10.82838758091598,0.1071899472984822
28.490628,10.84830213126398,0.1069509287780842
28.494712000000003,10.866643697661823,0.106714762479161
28.498796,10.883755872484857,0.1064959661535436
28.502884,10.898741438858057,0.1063010681828039
28.506972,10.90991668793134,0.1061347543659597
28.511,10.92602092097942,0.1059273056932748
28.515092,10.942014429127566,0.1057244751138306
28.519184,10.957221445300636,0.1055232226823796
28.523268,10.971752694398564,0.1053181543620265
28.52736,10.98504313424614,0.105101770132184
28.531456,10.994633981693736,0.1049084759180006
28.535500000000003,10.998841527891264,0.1047444775489335
28.539584,11.005962174513693,0.1045580466171397
28.543636000000003,11.02484594773568,0.1042763377730766
28.547728000000003,11.039243636582608,0.1040186611368071
28.551812,11.05397350012934,0.1037484810472524
28.5559,11.067019654825982,0.1034847448433758
28.559936,11.079390042447482,0.1032174481283091
28.564024,11.086609996294314,0.1030000190159298
28.568112000000003,11.095513658991235,0.1027785295709221
28.5722,11.106543930137986,0.1025361656317539
28.576296000000003,11.114550375959896,0.1023198810591707
28.580384,11.130509631081445,0.1020401033001676
28.584476,11.148484769752882,0.1017441248071065
28.588564,11.16836506707428,0.1014348858444502
28.592652,11.186450930645655,0.1011365857626703
28.596752,11.206774127566794,0.1008142682417293
28.600844,11.228105266262885,0.1004853192570816
28.604940000000003,11.248539188083958,0.1001602284405448
28.60904,11.271664760530069,0.0998247225392222
28.613132,11.30274314227582,0.0994291248261905
28.617232,11.338639783096433,0.0990034564705472
28.621324,11.37598726529173,0.0985571729262353
28.625424,11.40784072133702,0.0981424733023013
28.629516,11.4437259444821,0.0976970956518379
28.633612000000003,11.482524268052083,0.0972351243153967
28.637708,11.523449200071894,0.0967570221459777
28.641804,11.568627348991363,0.0962437533689446
28.6459,11.616375005960402,0.0956976095683234
28.65,11.661984636804078,0.095145167167449
28.654092,11.70882365922257,0.0945823291092139
28.658188,11.75991589854072,0.0939830548979193
28.662284000000003,11.806522053483812,0.0934084123544054
28.66638,11.850768732501669,0.0928349726737699
28.67048,11.897474194669162,0.0922344050004077
28.674572,11.944179656836653,0.0916370974109168
28.678668,11.992225235478896,0.091026834127322
28.682764,12.038697830170983,0.0904187728920521
28.68686,12.091218075512757,0.0897718668598198
28.690956000000003,12.137347077829508,0.0891527977814266
28.695052,12.178657821071392,0.0885664336678957
28.699148,12.2162689719133,0.0880004077723805
28.703248,12.248275371705263,0.0874622721120849
28.70734,12.27938455462222,0.0869272223799402
28.71144,12.310604462439109,0.0863921951276643
28.715532,12.338456952555816,0.0858643757265407
28.719632,12.359918199647511,0.0853615426067729
28.723728,12.372972320164292,0.0848965559800797
28.727824,12.381540356306012,0.0844463993960236
28.731916,12.391902826197764,0.0839916383397197
28.736012,12.394976836189477,0.0835626953577953
28.740108000000003,12.393343312006268,0.0831548966365794
28.744208,12.388231645222945,0.0827539156841242
28.7483,12.381436269589528,0.0823536753632182
28.752396,12.374751618856052,0.0819511504158669
28.756492,12.3676126508473,0.081537055502592
28.760588,12.357671307313575,0.0811351531663282
28.764688000000003,12.347054196704716,0.08072825647414
28.768780000000003,12.329935118170898,0.0803456602925898
28.772876,12.316958531636804,0.0799343364643551
28.776976,12.29960658562759,0.0795297477485268
28.781068,12.278997946818128,0.0791223329751372
28.785104,12.259507974683553,0.0787037573230937
28.789192000000003,12.24304182787381,0.0782669499724953
28.793236,12.21928722116404,0.0778504783828258
28.797284,12.195311164654402,0.0774402798660545
28.801384,12.175256150344616,0.0770089569849081
28.80548,12.159011453334749,0.076559713595152
28.809536,12.145458406949915,0.0761030163963609
28.813584,12.13011092681506,0.0756505467704883
28.817616,12.120478922630074,0.0751734257684743
28.821644000000003,12.11487868554488,0.0746731484128659
28.82568,12.110175665334696,0.0741694517853508
28.829704000000003,12.111077396174451,0.0736471566422467
28.833752,12.106263651064337,0.0731473376324723
28.837844,12.101117731254408,0.0726588116631089
28.84184,12.091153552369622,0.0721890989537246
28.845868,12.083991749009805,0.0717108822280118
28.849904,12.079521596275022,0.0712265811804409
28.85394,12.073822051965424,0.0707549202127155
28.857924,12.075632417355726,0.070258481254181
28.861964,12.081031650246072,0.0697546381414674
28.86606,12.087328100011431,0.0692488685628551
28.87016,12.091719391126832,0.068750871113022
28.874256,12.10462853371708,0.068224192481881
28.878348,12.118545618082274,0.0676931088509135
28.882384,12.132462702447468,0.0671634522850546
28.886368,12.15108732098759,0.0666220813003262
28.890400000000003,12.167020288902677,0.0660851594429953
28.894432,12.18698502391755,0.0655311851400397
28.898516,12.205720367357609,0.0649911194280598
28.902596,12.22266127704764,0.0644554498677791
28.906624,12.241396620487697,0.0639178273819878
28.910664,12.25553515465276,0.063391807891848
28.914692,12.274491947892688,0.0628496480577027
28.918776,12.290867815407516,0.0623074965016524
28.922860000000004,12.30993533354738,0.0617600586499035
28.92694,12.325192534387329,0.0612255553852897
28.931016000000003,12.33944179345233,0.0606963601431971
28.935048,12.355817660967158,0.0601560717962502
28.939128,12.368272486282136,0.0596322214583601
28.943216000000003,12.381403078672252,0.0591158785074342
28.9473,12.396438829712327,0.0585955806990963
28.951396,12.415395622952255,0.0580639460638362
28.955492000000003,12.42751827356743,0.0575560745631021
28.959588,12.436052056682556,0.0570508632305052
28.963676000000003,12.441451289572903,0.0565612258864351
28.967768000000003,12.437435454113396,0.0560923185544991
28.971856,12.434095385729028,0.05562824744283
28.975944,12.423589000020096,0.0551960068682117
28.980036,12.409383021911188,0.0547684749870884
28.984124,12.391710318877696,0.0543650793575119
28.988216,12.370227298544291,0.0539694354551997
28.9923,12.346396219961186,0.0535900433038844
28.996392,12.31349366540356,0.053244035965315
29.000484,12.277345835721224,0.0529140574365228
