Time,Force,Position
36.08874,10.8472053039701,0.1458755333370706
36.092832,10.87428617164266,0.145460040583641
36.096928,10.889569659689066,0.1451021251988104
36.10102,10.895426661710085,0.1448160013837076
36.10512,10.899489229981072,0.1445461217436276
36.109208,10.905014057302283,0.1442747286056223
36.113308,10.910206709923694,0.144017638105851
36.117344,10.91091327817004,0.1438013969090468
36.121428,10.911165529141114,0.1435739461138404
36.125412,10.905358711786976,0.1433941331501104
36.1295,10.890690450582657,0.1432905756717142
36.133596,10.874338480528245,0.1431978621673368
36.137684,10.860899610898738,0.1430711155961874
36.14178,10.848357958144248,0.1429359310119722
36.145812,10.840634564464615,0.1427463139497143
36.149904,10.830895287235093,0.1425820178257962
36.153992,10.819583026055412,0.142423676059234
36.158076,10.80602201385044,0.142269566311242
36.162168,10.78887213414542,0.1421463426421621
36.166248,10.770492862865586,0.142044405792562
36.170336,10.75771834263569,0.1418862520036792
36.174424,10.753118081505304,0.1416238881393251
36.178512,10.74840709547498,0.141365924634234
36.1826,10.75019807736961,0.1410442540212637
36.186692,10.75501288458908,0.1406855416503821
36.190788,10.758033258058523,0.1403424197261896
36.194888,10.7631802399778,0.1399703136147367
36.19898,10.77325620587187,0.1395416621959889
36.203068,10.78860474811608,0.1390750490735722
36.207152,10.811352475160255,0.138541479670759
36.211244,10.83937277855457,0.1379674800630982
36.215332,10.86661800764933,0.1374264003066761
36.21942,10.897131347219874,0.1369038171925557
36.223508,10.93483383946604,0.136358773202391
36.227596,10.97479650041304,0.1358458209987349
36.231684,11.016454287885658,0.1353538618415985
36.235772,11.066419894708789,0.1348247959675191
36.23986,11.12592271245724,0.1342374358404273
36.243952,11.19272540778126,0.1336235446843308
36.248044,11.263349838080725,0.1330083002780514
36.252136,11.33566939490581,0.1324192130836648
36.256164,11.405541586256795,0.1319058776838352
36.260244,11.482037888108206,0.1313665060912298
36.264328,11.56145870806005,0.1308344597322329
36.268412,11.645155580262616,0.1303142182865165
36.272492,11.735365838065672,0.1297735601003772
36.276572,11.829176381044304,0.1292423256350343
36.280648,11.91975306657376,0.1287805038419496
36.284732,12.006187260103497,0.1283701429713527
36.288812,12.089154728708651,0.1280139628750552
36.292896,12.172797964388948,0.127664115681849
36.296984,12.26192380854372,0.1272509273304626
36.301072,12.346208558272558,0.1268300569389212
36.305152,12.421731171375615,0.1264396015757954
36.30924,12.491183298477928,0.1260578729107491
36.313332,12.556691548029324,0.1256584944980828
36.317416,12.611089602705238,0.1253180831349127
36.321508,12.657523430405984,0.1250293241399561
36.325536,12.699570480956073,0.1247423077397044
36.329564,12.734206929030664,0.1244830904804571
36.333644,12.766251033704624,0.1242125764498924
36.337716,12.794694853203,0.1239382133353949
36.3418,12.815617345325949,0.1236954523007557
36.345836,12.831931610498367,0.1234597752755521
36.349928,12.84195393987017,0.1232375182543309
36.354016,12.847810941891186,0.1230064254008282
36.3581,12.851862092486645,0.1227620700167233
36.362192,12.862957417831195,0.1224302181543217
36.36628,12.873709150800412,0.1220847852345354
36.370372,12.886243899844116,0.1217054133887525
36.374464,12.8993322733875,0.1213093313861957
36.378548,12.90681589588094,0.1209529955305424
36.38264,12.914975285449518,0.1205995234466258
36.386668,12.923588992293372,0.1202558203966717
36.390756,12.932989191112304,0.1199105726594928
36.394792,12.946543299606487,0.1195521417371377
36.39888,12.964694217375673,0.1191648783320557
36.402968,12.98116142629476,0.1187828654962891
36.407052,12.995723476563896,0.118415380891576
36.411136,13.015435960607697,0.1180013372172194
36.415224,13.036045661526508,0.117584427318248
36.419316,13.06248156329513,0.1171253111232535
36.423404,13.094854390813495,0.1166209647138068
36.427448,13.127448668131736,0.1161107951077502
36.431544,13.159367178374833,0.1155978757422849
36.435636,13.189269805068031,0.1151036436834066
36.439732,13.210986754986196,0.1146550826844776
36.443768,13.22720967875435,0.1142415639993679
36.4478,13.244883443897187,0.1138063253618959
36.451888,13.256952457990092,0.1134064495915939
36.45598,13.267337763232904,0.1130138443553629
36.460012,13.279738952025609,0.1126056799560747
36.464104,13.293258807493194,0.1121869765537521
36.4682,13.3080080545356,0.1117533115576057
36.472296,13.324994634927767,0.1112973590543205
36.476392,13.340629681169652,0.1108373013310205
36.48048,13.3564861772114,0.1103717264829649
36.484564,13.378390323902837,0.1098601853083314
36.488648,13.398500036844244,0.1093564594535459
36.492736,13.415475199560875,0.1088813665167435
36.496824,13.430312336152149,0.1084024358822762
36.500908,13.439876896393285,0.1079463296065199
36.504992,13.445176822059237,0.1075053212604909
36.509072,13.449468805950234,0.1070721718022961
36.51316,13.457681832041088,0.1066133776315644
36.517244,13.467013524806822,0.106144126629345
36.521328,13.484076577072326,0.105625515365845
36.525412,13.499566645387674,0.1051082028350711
36.529492,13.513373004852935,0.1045964299814713
36.533584,13.52963814746783,0.1040555280256271
36.537668,13.543654539057425,0.1035128814571722
36.541752,13.555311454721792,0.1029717414357177
36.545792,13.56360095268598,0.1024388124035518
36.54988,13.569752424524808,0.1018993845700459
36.553968,13.575338854188429,0.1013546378062062
36.558064,13.580249516776906,0.1008071967332602
36.562152,13.582800703440157,0.1002605423631799
36.566244,13.582881689278237,0.0997195041883154
36.570272,13.588113108890989,0.0991410273665951
36.574352,13.5930009361284,0.0985484687231118
36.578432,13.596770096690928,0.0979660407158387
36.582516,13.600649982153396,0.0973795656456732
36.586596,13.602403259166032,0.0968094398121441
36.590672,13.607512536203313,0.0962102383511838
36.59472,13.608135728865534,0.0956278805608605
36.598804,13.605956546002789,0.0950581215261337
36.602892,13.60321232096483,0.0944832668664638
36.60698,13.599349429251992,0.0939171077672563
36.611012,13.593470653989264,0.0933630611768309
36.6151,13.590394254251503,0.0927975110304383
36.61914,13.588215071388754,0.0922286319841941
36.623236,13.586035888526007,0.0916590064861174
36.627268,13.588453514938251,0.0910717718459458
36.631356,13.595135775925687,0.0904775376690444
36.635392,13.599469978663423,0.0899061277621688
36.63938,13.602685514726284,0.0893441345776502
36.643472,13.605568876089336,0.0887916365335892
36.647556,13.605317687227611,0.0882606780791665
36.651604,13.603050614816,0.0877433562599938
36.655688,13.601348584579588,0.0872330079971682
36.65972,13.600543771218192,0.0867196178630113
36.663804,13.599517508056923,0.0862122017563627
36.667892,13.601293620420629,0.0856932565795495
36.671984,13.594895473684822,0.0852242453112239
36.676072,13.590967527774184,0.084753774438643
36.680108,13.592644332913483,0.0842621001621853
36.684136,13.590632963328334,0.0838081107440727
36.688216,13.594115619893191,0.0833366932431793
36.692296,13.606116127932896,0.0828324080427993
36.69638,13.61375269417301,0.0823616316606205
36.700464,13.619827694138502,0.0819127714384041
36.70454,13.62736495315421,0.081469353614583
36.708632,13.63165693704521,0.0810502192866772
36.712716,13.631695704036556,0.0806601625572976
36.716804,13.633750354577794,0.0802590981020327
36.720896,13.63726726416925,0.0798634462268307
36.724924,13.642467882610797,0.0794667560253651
36.729004,13.651933135627528,0.0790662250417216
36.733084,13.659947547269576,0.0786845259412258
36.737168,13.670432159736787,0.0783039786983295
36.741244,13.68126036457934,0.0779379651583746
36.745268,13.69455877024706,0.0775727742900742
36.749352,13.709319434964994,0.0772146057424842
36.75344,13.732597951157777,0.0768255841821264
36.757524,13.755544292650756,0.0764471958083979
36.761616,13.771435041719108,0.0761055324058492
36.765644,13.791357557887247,0.0757440155698683
36.769688,13.808256248730546,0.0753994919162174
36.773784,13.817091405374269,0.0750970086569344
36.77788,13.827942445567889,0.0747845631059245
36.781976,13.84170658618641,0.0744606624746512
36.786068,13.858383827229837,0.0741266432293324
36.790108,13.876966226923226,0.07378670956176
36.7942,13.89879390174132,0.0734263510831926
36.798288,13.921408068534491,0.0730689033142057
36.80238,13.944243685127535,0.0727061124075653
36.806472,13.967976518595592,0.0723429221894378
36.81056,13.98923915123848,0.0719794910244912
36.814648,14.010944683481108,0.071603939972725
36.818732,14.0323066233484,0.0712163014551415
36.822824,14.056348796165192,0.0708024432743169
36.826912,14.079936651706712,0.0703791533275407
36.831004,14.097354714023083,0.0699629858113411
36.835096,14.112413300414229,0.0695438488597761
36.839188,14.127128294430031,0.0691112772843176
36.843284,14.149009605770402,0.0686450674141894
36.84738,14.1684207162856,0.0681783749900474
36.851476,14.186369567750582,0.0677054973619594
36.855572,14.205658535690317,0.0672188807620094
36.859668,14.225279678329857,0.0667242888436344
36.863756,14.241201228569407,0.0662379437872005
36.867844,14.252415244634038,0.0657650671336623
36.871936,14.261048334973564,0.0652931776135805
36.876028,14.267776266663132,0.0648274538446493
36.880116,14.273496256577753,0.0643668368658772
36.884216,14.282129346917277,0.0638985817816802
36.8883,14.288070786631769,0.0634338738241033
36.892384,14.293115009471244,0.0629699960837997
36.896476,14.29962149136094,0.0625137049849343
36.900568,14.301985481250917,0.0620765144457995
36.90466,14.30110419601618,0.0616580619801533
36.908752,14.299780011181705,0.0612519703416744
36.912844,14.303949852497237,0.0608368307558166
36.916936,14.306558127538148,0.0604407623752945
36.921028,14.309731444754265,0.0600530629661699
36.925112,14.306967836220636,0.0596856745351348
36.929204,14.302753386312324,0.05933353314974
36.9333,14.300111920354164,0.0589856018756918
36.937396,14.296462512621057,0.0586410139942086
36.941492,14.289457104863306,0.0583159932688352
36.945592,14.286262014405471,0.0579819395493979
36.949684,14.284529182997854,0.0576551479136555
36.95372,14.28425861064046,0.05733572611509
36.957812,14.285561022233216,0.057021206369028
36.9619,14.287649925801052,0.0567095025533493
36.965992,14.284477670694285,0.0564219503444979
36.970084,14.281083965787646,0.0561397311918177
36.97412,14.279041795031294,0.0558679432555708
36.978212,14.274197248749967,0.0556007527363092
36.982304,14.270028469543789,0.0553381688698866
36.986396,14.264630298762793,0.0550845815322317
36.99048,14.258224186206846,0.0548343753268898
36.994564,14.247786306551117,0.0545976926404127
36.998652,14.23443532647048,0.0543676285975148
37.002744,14.22187083836492,0.0541400801324568
37.006828,14.2099821173345,0.0539172183515064
37.01092,14.198093396304085,0.0536937468891796
37.015004,14.183967341923903,0.0534826204788527
37.019092,14.171303546593943,0.0532791692003081
37.02318,14.1624500685639,0.0530678851591321
37.027264,14.15236719895904,0.0528659360670031
37.031352,14.141497837379102,0.0526612375734303
37.035436,14.128834042049142,0.0524569251817107
37.039516,14.111241262744382,0.0522656584421565
37.043596,14.085917123939854,0.0520910087474571
