Time,Force,Position
5.066616,0.049069419227622174,0.0
5.069004,0.04497801906475834,0.0
5.071384,0.03981568371525597,0.0
5.073779999999999,0.03158031243269822,0.0
5.076163999999999,0.02306540189642004,0.0
5.078543999999999,0.014410721733281659,0.0
5.08094,0.01599351359911788,0.0
5.083323999999999,0.01892677990531305,0.0
5.08572,0.026004017331202132,0.0
5.088115999999999,0.029077053264257517,0.0
5.090499999999999,0.0383833597334538,0.0
5.092879999999999,0.050762702135705454,0.0
5.095276,0.06393344047087524,0.0
5.097664,0.07896650992560167,0.0
5.100059999999999,0.0987951768060799,0.0
5.102456,0.11489918144744483,0.0
5.104839999999999,0.12578827978247734,0.0
5.10722,0.13774831330414838,0.0
5.109615999999999,0.14770624607940253,0.0
5.112003999999999,0.16232000665354834,0.0
5.114388,0.1719984001750821,0.0
5.116792,0.1856809951894496,0.0
5.119176,0.19521961908412314,0.0
5.121556,0.2055496389117148,0.0
5.123951999999999,0.21480872355266792,0.0
5.126336,0.22672153524609584,0.0
5.128731999999999,0.2285366445374093,0.0
5.131127999999999,0.22713894826880723,0.0
5.133512,0.2229477553208702,0.0
5.135892,0.22262099423890658,0.0
5.138287999999999,0.22643820427663694,0.0
5.140671999999999,0.22704260875445167,0.0
5.143051999999999,0.22485351655293143,0.0
5.14546,0.21893976211229793,0.0
5.147843999999999,0.20622830949949578,0.0
5.150224,0.19975547655142145,0.0
5.152619999999999,0.203712456216012,0.0
5.155007999999999,0.20459639994754716,0.0
5.157404,0.2105554803585546,0.0
5.159808,0.21013617147797392,0.0
5.162196,0.2194478270757571,0.0
5.164572,0.2199596837549548,0.0
5.166967999999999,0.22647784267340307,0.0
5.169355999999999,0.22754877786004157,0.0
5.171735999999999,0.2307615834199572,0.0
5.17414,0.2266648341285064,0.0
5.176523999999999,0.228434617449446,0.0
5.178903999999999,0.22834206965082895,0.0
5.1813,0.2296925440911879,0.0
5.183688,0.22745812591929376,0.0
5.186071999999999,0.21772716144093,0.0
5.188467999999999,0.20534246991009142,0.0
5.190852,0.1950996487525299,0.0
5.193235999999999,0.18598033373843698,0.0
5.195627999999999,0.17974171407370915,0.0
5.198015999999999,0.1742019425432824,0.0
5.200408,0.16037422877346774,0.0
5.202803999999999,0.15069048612334707,0.0
5.205188,0.1367230027266722,0.0
5.207568,0.12326737600919509,0.0
5.209971999999999,0.10608708705260471,0.0
5.212359999999999,0.09570449626818298,0.0
5.214739999999999,0.08187678249836838,0.0
5.217143999999999,0.07349629246036349,0.0
5.219531999999999,0.0649760327954984,0.0
5.221907999999999,0.06311370167594177,0.0
5.224304,0.06246207536988386,0.0
5.226692,0.06474371537002113,0.0
5.229071999999999,0.06665326831782092,0.0
5.231475999999999,0.07028538275831715,0.0
5.233863999999999,0.07461634533311443,0.0
5.236243999999999,0.08360313570680329,0.0
5.23864,0.09552319238668733,0.0
5.241028,0.10911323960243773,0.0
5.243407999999999,0.12168492258837968,0.0
5.245811999999999,0.1250374977751555,0.0
5.248196,0.13253404408162522,0.0
5.250579999999999,0.13281358333534563,0.0
5.252975999999999,0.13323289221592627,0.0
5.255364,0.133000574790449,0.0
5.257743999999999,0.13119081462772245,0.0
5.260147999999999,0.12737895371857902,0.0
5.262532,0.1251498846752718,0.0
5.264916,0.1242187191154935,0.0
5.267308,0.12142522243615854,0.0
5.269696,0.1155586898237682,0.0
5.272091999999999,0.10746308816807065,0.0
5.274488,0.09936748651237312,0.0
5.276876,0.09099234560295516,0.0
5.279256,0.08261720469353719,0.0
5.281651999999999,0.07489369009017713,0.0
5.284035999999999,0.06530784436726042,0.0
5.286415999999999,0.05264896271128833,0.0
5.288812,0.03905891549553792,0.0
5.291195999999999,0.025608637906647726,0.0
5.293591999999999,0.018164662557008084,0.0
5.295983999999999,0.00964975202072991,0.0
5.298371999999999,0.006209978163923971,0.0
5.300751999999999,0.0038411394937565625,0.0
5.303144,0.0033346319431457943,0.0
5.305532,0.0033346319431457943,0.0
5.307924,0.0033346319431457943,0.0
5.310328,0.0033346319431457943,0.0
5.312716,0.0012453325266988055,0.0
5.315095999999999,8.719867003013737e-05,0.0
5.317487999999999,0.0,0.0
5.319875999999999,0.0,0.0
5.322255999999999,0.0,0.0
5.324655999999999,0.0,0.0
5.327043999999999,0.0,0.0
5.329424,0.0,0.0
5.331828,0.0,0.0
5.334216,0.0,0.0
5.336596,0.0,0.0
5.338999999999999,0.0,0.0
5.341384,0.0,0.0
5.343764,0.0,0.0
5.346167999999999,0.0,0.0
5.348555999999999,0.0,0.0
5.350935999999999,0.0,0.0
5.353339999999999,0.0,0.0
5.355723999999999,0.0,0.0
5.358103999999999,0.0,0.0
5.360507999999999,0.0011581338566686679,0.0
5.362891999999999,0.006180699579310828,0.0
5.365271999999999,0.012134430861731308,0.0
5.367668,0.017156996584373467,0.0
5.370051999999999,0.020317231187458984,0.0
5.372432,0.024548400977183034,0.0
5.374824,0.026637700393630025,0.0
5.377212,0.027795834250298693,0.0
5.379607999999999,0.030816299226524003,0.0
5.382012,0.031834663456332464,0.0
5.384395999999999,0.031834663456332464,0.0
5.386775999999999,0.031834663456332464,0.0
5.389171999999999,0.031834663456332464,0.0
5.391556,0.0319218621263626,0.0
5.393936,0.033219765609891476,0.0
5.396339999999999,0.03665953946669742,0.0
5.398724,0.03665953946669742,0.0
5.401104,0.03665953946669742,0.0
5.403507999999999,0.03874694302527516,0.0
5.405896,0.04120453777832114,0.0
5.408272,0.04222066770523955,0.0
5.410667999999999,0.04923741229780079,0.0
5.413051999999999,0.0805040998413645,0.0
5.415448,0.14519261630685376,0.010774947628934757
5.417847999999999,0.23981251273850174,0.020378464629794483
5.420231999999999,0.3501639883141564,0.029870757693519424
5.422611999999999,0.4847673026986828,0.03903794101082734
5.425015999999999,0.6469731352209874,0.0479632458051416
5.427403999999999,0.8391556736798248,0.056577786111528736
5.429779999999999,1.0628523839706572,0.06493982463931217
5.432179999999999,1.3125181454344708,0.07309879415268784
5.434564,1.5737715149225973,0.0814481760298456
5.436947999999999,1.8535952862044391,0.08989197920137829
5.439352,2.1600032113942507,0.09826980837721545
5.441735999999999,2.492617854311108,0.10650553752098224
5.444115999999999,2.844316651558748,0.11466860631962755
5.446512,3.2182598377402556,0.12282598652784854
5.448896,3.6125432090364193,0.13100246676919863
5.451291999999999,4.029083563381493,0.13913097257268034
5.453692,4.476397707169628,0.1470308164949497
5.45608,4.946016394279938,0.15471285035063123
5.458459999999999,5.405630265231771,0.16240078349919584
5.460863999999999,5.828005097223948,0.17019637199096535
5.463248,6.211138789510053,0.1672749058855041
5.465627999999999,6.569136699255751,0.16548527632577387
5.468031999999999,6.914895374671078,0.16372654495392927
5.470416,7.233795706053302,0.16232161502540782
5.472795999999999,7.519553747767319,0.161203995069852
5.475199999999999,7.7676534416411025,0.16044509994053402
5.477587999999999,7.982376632563334,0.15999135194716985
5.479963999999999,8.167725626168977,0.15982019671948708
5.48236,8.34563098287,0.15939192098941568
5.484748,8.508178743337226,0.15881525090568638
5.487124,8.64456700790565,0.1583120788133377
5.489528,8.755864815904038,0.1579682905373286
5.491916,8.849474269982377,0.15769028895216125
5.494295999999999,8.924977957117957,0.15738670643126207
5.496699999999999,8.988848710258848,0.15692018694577542
5.499084,9.026000888993496,0.15651585892214764
5.501463999999999,9.03042629522478,0.15634975336849619
5.50386,9.012970258730208,0.15639531784110658
5.506247999999999,8.99779586223577,0.15640102095777222
5.508628,8.991746129884017,0.15633782392525736
5.511023999999999,8.992307104249326,0.15622288609604248
5.513411999999999,8.989515503427862,0.15616602183355652
5.515787999999999,8.984906897457213,0.1561885835502813
5.518184,8.988072481188883,0.1561693897583164
5.520572,8.995567131637486,0.15613878884951993
5.522967999999999,9.007810157683595,0.15607735974987746
5.525368,9.025128320409177,0.15594003236594878
5.527756,9.047940928694809,0.15570614878101657
5.530135999999999,9.06768050104739,0.15552202038253074
5.532539999999999,9.082344936720496,0.15541362011732643
5.534927999999999,9.091329831236315,0.15534543250629143
5.537308,9.093099614557255,0.1552962440225275
5.539712,9.090680100788127,0.15525271966174176
5.542095999999999,9.089935926683452,0.1552253273320307
5.54448,9.074478199219557,0.15542927204133664
5.546875999999999,9.06605048735331,0.15556159334352193
5.549259999999999,9.060229280711294,0.15569924199140428
5.551639999999999,9.057805975226426,0.15583636607388868
5.554036,9.063343850898983,0.15589233474031045
5.556419999999999,9.08620178515499,0.15573506721745453
5.5588,9.114274625717332,0.1555043422918232
5.561204,9.13890234329428,0.1553007609704804
5.563592,9.1579902893408,0.15512840996546703
5.565971999999999,9.179127557961982,0.1549015041567842
5.568372,9.212556970315383,0.15450953851612712
5.57076,9.251341058601978,0.15404068542667435
5.573139999999999,9.294920744314325,0.1535236801237868
5.575536,9.340874617825426,0.1529986141563799
5.577923999999999,9.387712435068062,0.15249607642210358
5.580304,9.436924440109454,0.15197900557041502
5.582704,9.495028791868046,0.15137882201654823
5.585092,9.560302928851147,0.15070896919663396
5.587472,9.626228692140304,0.15004032590802127
5.589875999999999,9.690943750615963,0.14939590422333449
5.59226,9.766181169502904,0.14862621574670706
5.594643999999999,9.839603479098532,0.14786057143751696
5.597047999999999,9.91125790123109,0.14705531222478488
5.599432,9.974346737728407,0.1462864168524848
5.601811999999999,10.026261587508383,0.14564640517988975
5.604215999999999,10.06099614833177,0.14520662426112568
5.606603999999999,10.090423255050206,0.14481630012173155
5.608984,10.128417843261753,0.1443095570795302
5.611388,10.170137093712412,0.1437641033802635
5.613771999999999,10.210738187148191,0.14327062545587968
5.616152,10.242352490210282,0.1429174586543839
5.618556,10.270242131033259,0.14260343085221922
5.620944,10.286026619579115,0.14240344182104506
5.623324,10.296783193273743,0.14223492364887652
5.625727999999999,10.314384686968783,0.14197071836201092
5.628112,10.340833201410652,0.1415921049882523
5.630492,10.365885915441787,0.14119123084099863
5.632895999999999,10.38670211055461,0.14081690076300624
5.635283999999999,10.406726909734518,0.14044527354050992
5.637663999999999,10.42409798186195,0.1400923272907951
5.640067999999999,10.438443239884569,0.13974938264383632
5.642455999999999,10.444268238242323,0.13948400267174382
5.644836,10.444878330293745,0.13927832171346227
5.647231999999999,10.450888424248735,0.1390554462466241
5.649616,10.464068303428228,0.13877866102477604
5.651995999999999,10.483394254473833,0.13843268599845102
5.654392,10.501696492161043,0.1380724981494649
5.65678,10.507474268690553,0.13783281975492248
5.65916,10.510830635593067,0.137629884746378
5.661551999999999,10.508088152457713,0.1374688443166429
5.66394,10.505440112978844,0.13725226774133326
5.666319999999999,10.502047899395302,0.1370106103101358
5.668716,10.500238477677598,0.1367607315770925
5.671104,10.502897892303679,0.1365035997101608
5.673499999999999,10.494475868011039,0.13636800742909658
5.675891999999999,10.47394869144128,0.1363354560546347
5.678275999999999,10.446484047072493,0.13637259965796558
5.680655999999999,10.418552871994882,0.13645407518061659
5.683059999999999,10.395509842141639,0.13651284515789724
5.685443999999999,10.38438686896828,0.1364228323238113
5.687823999999999,10.372100412809667,0.13632248137697617
5.69022,10.362327914076667,0.13620846453371252
5.692608,10.358374726127815,0.13606459820903122
5.694999999999999,10.360055753365875,0.1358468718230702
5.697403999999999,10.350889554968562,0.13568464076566986
5.699788,10.33404171466754,0.135566046664093
5.702167999999999,10.317518739590616,0.1354872741208736
5.704571999999999,10.308909723842872,0.13538193078054228
5.706959999999999,10.307657484774738,0.13519166296691854
5.709339999999999,10.309525503467903,0.13493961293488665
5.711736,10.303896975854597,0.1347770394504232
5.714119999999999,10.293098867905334,0.1347251243870556
5.7165,10.289470545180576,0.1346203521646704
5.718895999999999,10.284865730925663,0.1344725205074346
5.721283999999999,10.283940252939493,0.1342419191438699
5.723663999999999,10.284178257938578,0.13402047746962967
5.726059999999999,10.28953672558751,0.13379472975780704
5.728444,10.299598242863574,0.13350090758890898
5.730839999999999,10.301745800810462,0.1332343700339973
5.733236,10.288435631293451,0.1331143636382771
5.735624,10.273727765507841,0.13304545165255557
5.738004,10.265630606439295,0.1329453659215895
5.740395999999999,10.260606483303805,0.13281200888106115
5.742783999999999,10.245339539010752,0.1327628655096636
5.74518,10.234820970315209,0.1326983703441344
5.747572,10.232076591321988,0.1326133024549565
5.74996,10.23105477382146,0.13251799169820583
5.75234,10.232781127029897,0.13234862291483737
5.754735999999999,10.224823737588212,0.13224270419857165
5.757123999999999,10.216027730385363,0.13216718175974246
5.759504,10.215332673966802,0.13203341931463256
5.761908,10.222553472735289,0.13179437732714636
5.764291999999999,10.227027996652684,0.13155070834341134
5.766672,10.23001227650286,0.13133578143582103
5.769076,10.229317220084297,0.1312021109632022
5.771464,10.234209157024404,0.13102400174243342
5.773843999999999,10.236215049486562,0.13084482723236932
5.77624,10.235427445269382,0.13068833737530378
5.778627999999999,10.242181713329044,0.13049558362188585
5.781008,10.255826227359494,0.13026298114715051
5.783412,10.270960985457164,0.13000239186876045
5.785796,10.280416202397545,0.1297637957578642
5.788176,10.285634900419616,0.12954755316731767
5.790576,10.298023383666193,0.12928212401392775
5.792964,10.313904211726406,0.12897085502593117
5.795344,10.322894793815832,0.1286979225060134
5.797739999999999,10.331001432173725,0.12840457586972934
5.800127999999999,10.333473855344707,0.12818317401865667
5.802524,10.340694654113195,0.1279478482246707
5.804927999999999,10.348194992135403,0.12770266727605098
5.807316,10.352389976799078,0.1274715099235332
5.809695999999999,10.355094717395534,0.12726868208413325
5.812099999999999,10.357752236163748,0.12709391991062788
5.814487999999999,10.358267884558684,0.12694334993105194
5.816868,10.364697287394254,0.12671207149146313
5.819263999999999,10.364608531311374,0.12653098366053345
5.821652,10.36796489821389,0.1263313063649733
5.824028,10.369970790676044,0.1261533768607963
5.826423999999999,10.366948768286969,0.1259983081719552
5.828811999999999,10.363694428472417,0.12582566142331905
5.831196,10.360020779777285,0.12566801026271412
5.833592,10.364448081866438,0.1254583483686034
5.835975999999999,10.377116104366737,0.1251935778015561
5.83836,10.386199234254782,0.12495197033405446
5.840752,10.391929788956052,0.12475136152435112
5.84314,10.401896862575631,0.1245311288051951
5.845519999999999,10.411676944740105,0.12434346228388532
5.84792,10.427463329143832,0.12410091922030374
5.850308,10.440456216868222,0.12387828622495402
5.852687999999999,10.454100730898672,0.12365938570871894
5.855084,10.471330137541376,0.12341910724520501
5.857467999999999,10.486557443437663,0.12319719124071916
5.859864,10.504066389334085,0.12294801771268603
5.862259999999999,10.524229062282982,0.122683535162094
5.864647999999999,10.54355311747072,0.12245104865312703
5.867028,10.569255561950047,0.1221783456132281
5.869423999999999,10.597891272735566,0.1218838669504711
5.871812,10.633324681693257,0.12153642560604143
5.874191999999999,10.674856940688812,0.1211612263106504
5.876595999999999,10.714479646736569,0.12082703225535724
5.878979999999999,10.754102352784324,0.1204928382000641
5.881364,10.786927360659911,0.1202151355115684
5.883768,10.808950468870497,0.12002647543008638
5.886151999999999,10.835769174506835,0.11980373171085372
5.888536,10.86458998088959,0.11956514701166542
5.890931999999999,10.89704290171284,0.11928284979855291
5.893319999999999,10.931917232163086,0.11897069211811855
5.8957,10.967582958546252,0.11866129563043057
5.898095999999999,11.009115217541808,0.11830837329412157
5.90048,11.051578642097144,0.11795154265194417
5.902863999999999,11.094973232212254,0.11759237173937714
5.90526,11.142232254193342,0.11720667788999589
5.907648,11.190562211361067,0.11681474065069833
5.910043999999999,11.23996310371543,0.1164145410495416
5.91244,11.287641434577099,0.11602376542829536
5.914828,11.333597203946068,0.11564379438311227
5.917207999999999,11.377830411822343,0.11527478164007861
5.919604,11.415405691153309,0.1149506992403654
5.921992,11.445391876379185,0.11467564942372264
5.924372,11.475937140112507,0.11438302000978495
5.926767999999999,11.507693108659325,0.11407687548084305
5.929155999999999,11.541870486833142,0.1137430027334831
5.931536,11.58205416724621,0.1133626693481411
5.933931999999999,11.616231545420023,0.11302948263631765
5.93632,11.648546592474283,0.11270856203810015
5.938715999999999,11.675646733222209,0.11243376112523028
5.94112,11.700093146917661,0.11217146565415241
5.943508,11.718812797627582,0.11194595676432845
5.945888,11.736089426098529,0.11172015171248047
5.948291999999999,11.751783262703638,0.11149691566093287
5.950676,11.766825473002688,0.11127196636248536
5.953056,11.779633265129846,0.11104632906164187
5.955456,11.78857662539103,0.11084564866439099
5.957839999999999,11.79421463229368,0.11065241639006593
5.960224,11.794545185091383,0.11048000776720353
5.962619999999999,11.789148974903558,0.11034145277293465
5.965003999999999,11.778817397663119,0.11023608238446979
5.967388,11.771838395609453,0.1100987566586932
5.969783999999999,11.768211968742563,0.10992933453087289
5.972171999999999,11.765936016316035,0.10974247805383171
5.974551999999999,11.763148207210309,0.10954809347372083
5.976948,11.756216426984887,0.10938566920934126
5.979336,11.74663091970699,0.10923366431361699
5.981715999999999,11.737324951682815,0.1090728534466549
5.984119999999999,11.72722758772572,0.10891252151599416
5.986507999999999,11.71540766227593,0.10875732308290871
5.988892,11.704518902385917,0.10859703791382203
5.991287999999999,11.694980616936263,0.10841881071268071
5.993675999999999,11.67915648999364,0.10829072339367958
5.996055999999999,11.664543067864516,0.10814904540677897
5.99846,11.641921242749724,0.10806271988797492
6.000843999999999,11.617157547261657,0.10799400774701362
6.003224,11.593464786960228,0.10791587443411117
6.005619999999999,11.574427854457687,0.10781322022821183
6.008008,11.56591328236643,0.10764960420774539
6.010387999999999,11.563684551768144,0.10743629078057552
6.012791999999999,11.568812597849469,0.10716524222017063
6.015179999999999,11.575942744677208,0.10688228421524158
6.01756,11.583864287437866,0.10659958088849565
6.019964,11.588573024638608,0.10634323639511568
6.022352,11.593141992212487,0.10609147388184084
6.024728,11.603205405346422,0.10579242582352584
6.027127999999999,11.610475321801022,0.1055059736306379
6.029511999999999,11.621097813442399,0.10518961428203166
6.031891999999999,11.633722405830191,0.10486069041897116
6.034295999999999,11.654495170830511,0.10447704840012474
6.036683999999999,11.676478640644333,0.10408208539774946
6.039064,11.69939327601793,0.10368335284730026
6.041459999999999,11.72780235695158,0.10323754873236904
6.043847999999999,11.752998632325315,0.10281779430728058
6.046227999999999,11.786482849938437,0.10233746951640474
6.048624,11.823831499417535,0.1018368867464576
6.051012,11.861319918523492,0.10133351093924577
6.053391999999999,11.893081574643917,0.10086129601752043
6.055788,11.913249935166421,0.10045356462430118
6.058176,11.926992684569099,0.1000958102220981
6.060571999999999,11.934589362105662,0.09978104824060231
6.062968,11.933898097402839,0.09952398435972842
6.065351999999999,11.930553105647537,0.09927525073687736
6.067732,11.930420919452153,0.09900182979968071
6.070136,11.928286632510353,0.09874050770105279
6.072524,11.921728835195138,0.0985160926854133
6.0749,11.922108505678953,0.09825099734674404
6.077307999999999,11.921137701722408,0.09800260141725509
6.079692,11.917233631459668,0.09777022296764228
6.082072,11.905181388584403,0.09759006841065727
6.084475999999999,11.89005610977608,0.09742948984020093
6.086863999999999,11.874930830967754,0.09726865094994765
6.089243999999999,11.859526012905715,0.09711567243264044
6.09164,11.843329798910753,0.09696199826430088
