Time,Force,Position
4.668775999999999,0.11328458996032115,0.0
4.671172,0.1032816677683006,0.0
4.673556,0.09528084632269689,0.0
4.675951999999999,0.0842069889440378,0.0
4.678343999999999,0.07206219637874019,0.0
4.680731999999999,0.06112810862694131,0.0
4.683112,0.04805215050186538,0.0
4.685504,0.03390525719015091,0.0
4.687892,0.021760464624853294,0.0
4.690284,0.012681126452547355,0.0
4.692679999999999,0.011749960892769034,0.0
4.695067999999999,0.015102536079544834,0.0
4.697448,0.025532348692209716,0.0
4.69984,0.03809645013808797,0.0
4.702228,0.05266265233038306,0.0
4.704623999999999,0.06629768896289984,0.0
4.707015999999999,0.08314553115533221,0.0
4.709403999999999,0.09706010704156941,0.0
4.711784,0.11297678367422345,0.0
4.714188,0.12982462586665583,0.0
4.716571999999999,0.14574130249930986,0.0
4.718952,0.16379984950524096,0.0
4.721356,0.18092723095139376,0.0
4.723744,0.19712344683776822,0.0
4.726123999999999,0.2103863964179475,0.0
4.72852,0.220296770811351,0.0
4.730908,0.2309985411376726,0.0
4.733288,0.2406293762773557,0.0
4.735683999999999,0.2489097369766798,0.0
4.738071999999999,0.25705790958920743,0.0
4.740463999999999,0.26092234145518095,0.0
4.74286,0.25864070145504364,0.0
4.745248,0.2543569607084895,0.0
4.747627999999999,0.24578947921538122,0.0
4.750024,0.23521989697585619,0.0
4.752407999999999,0.2246503147363311,0.0
4.754788,0.20872605656361337,0.0
4.757192,0.19559529507023057,0.0
4.75958,0.17967861843757651,0.0
4.76196,0.16283077624514417,0.0
4.764355999999999,0.14691409961249016,0.0
4.766739999999999,0.128855552606559,0.0
4.769124,0.11172817116040622,0.0
4.771519999999999,0.09589646078630552,0.0
4.773904,0.08263351120612622,0.0
4.776299999999999,0.07272313681272273,0.0
4.778692,0.062021366486401136,0.0
4.781079999999999,0.052390531346718054,0.0
4.78346,0.044110170647393934,0.0
4.785864,0.0358298099480698,0.0
4.788247999999999,0.02661828368896736,0.0
4.790628,0.020340023736060087,0.0
4.793032,0.013130598223374491,0.0
4.79542,0.00913397827060449,0.0
4.797796,0.005137358317834488,0.0
4.800191999999999,0.002071903924842807,0.0
4.802579999999999,0.0011483199051281873,0.0
4.804971999999999,0.0003645055122737784,0.0
4.807368,0.00036450551227377846,0.0
4.809756,0.00036450551227377846,0.0
4.812135999999999,0.00036450551227377846,0.0
4.814539999999999,0.0007290110245475568,0.0
4.816924,0.0007290110245475568,0.0
4.819303999999999,0.00036450551227377835,0.0
4.8217,0.006363226211460631,0.0
4.824088,0.012361946910647483,0.0
4.826468,0.022364869102668036,0.0
4.828863999999999,0.03637199278752229,0.0
4.831247999999999,0.05359192203229214,0.0
4.833644,0.06866998090378493,0.0
4.836039999999999,0.08789201089497163,0.0
4.838424,0.10832474569965705,0.0
4.840804,0.1287574805043425,0.0
4.843207999999999,0.15026115049566646,0.0
4.845595999999999,0.17283575567362897,0.0
4.847975999999999,0.19275663379911673,0.0
4.850372,0.2134689078575226,0.0
4.852755999999999,0.2312479156097333,0.0
4.855152,0.2426013122421128,0.0
4.857555999999999,0.2571675144344079,0.0
4.85994,0.26251460882753685,0.0
4.862319999999999,0.26470370102905705,0.0
4.864723999999999,0.2652551979964342,0.0
4.867111999999999,0.26873996127000654,0.0
4.869491999999999,0.2627412405708197,0.0
4.871888,0.25822518239878833,0.0
4.874276,0.24822226020676766,0.0
4.876655999999999,0.23421513652191342,0.0
4.879059999999999,0.21699520727714358,0.0
4.881444,0.20191714840565078,0.0
4.883823999999999,0.1826951184144641,0.0
4.886227999999999,0.16226238360977865,0.0
4.888615999999999,0.14182964880509322,0.0
4.890996,0.12032597881376926,0.0
4.893391999999999,0.09775137363580676,0.0
4.89578,0.077830495510319,0.0
4.898159999999999,0.05711822145191316,0.0
4.900551999999999,0.03933921369970247,0.0
4.902935999999999,0.028537314034700098,0.0
4.905315999999999,0.013971111842404994,0.0
4.907719999999999,0.011969011095988143,0.0
4.910107999999999,0.01168947184226772,0.0
4.912488,0.019418335574214705,0.0
4.914892,0.018347400387576172,0.0
4.917275999999999,0.026208452206319666,0.0
4.919656,0.028722409631934204,0.0
4.922048,0.034441591077400635,0.0
4.924436,0.036575879910614,0.0
4.926831999999999,0.039361795049885254,0.0
4.929224,0.03936179504988526,0.0
4.931611999999999,0.04028537906959988,0.0
4.933992,0.043211063835731346,0.0
4.936396,0.04571743972128218,0.0
4.938784,0.048643124487413654,0.0
4.941163999999999,0.04914739962654764,0.0
4.943555999999999,0.050722609952320155,0.0
4.945943999999999,0.05094734583773373,0.0
4.948324,0.05345372172328457,0.0
4.950719999999999,0.053266730268181205,0.0
4.953108,0.058706372459927214,0.0
4.955499999999999,0.058798920258544274,0.0
4.957903999999999,0.061824734363356504,0.0
4.960291999999999,0.0549798143629447,0.0
4.962672,0.056794923654258186,0.0
4.965076,0.050509082161287217,0.0
4.967459999999999,0.04995000365384638,0.0
4.969844,0.048599529213487425,0.0
4.972247999999999,0.052137199997497344,0.0
4.974636,0.05637371891580831,0.0
4.977015999999999,0.06483917521236654,0.0
4.979407999999999,0.07079825562337397,0.0
4.981795999999999,0.0738240697281862,0.0
4.984176,0.07754873196729949,0.0
4.98658,0.08071431569897193,0.0
4.988963999999999,0.08751201387114059,0.0
4.991348,0.0923076112968924,0.0
4.993751999999999,0.10138694946919834,0.0
4.996136,0.10497184208145141,0.0
4.998515999999999,0.10990720913406343,0.0
5.000912,0.10697394282786826,0.0
5.003295999999999,0.10697394282786826,0.0
5.00568,0.10167407026298246,0.0
5.008075999999999,0.10023862956407016,0.0
5.01046,0.09600969218582289,0.0
5.012839999999999,0.09443448186005036,0.0
5.015239999999999,0.09285168999421414,0.0
5.017628,0.08940656700882128,0.0
5.020007999999999,0.08493773066503306,0.0
5.022404,0.07791529660745082,0.0
5.024792,0.07065296358432763,0.0
5.027172,0.0677669191063756,0.0
5.029575999999999,0.06567227056134167,0.0
5.031964,0.0654399531358644,0.0
5.034343999999999,0.06748927571052439,0.0
5.03674,0.06404415272513153,0.0
5.039128,0.06339252641907363,0.0
5.041508,0.056874367500625383,0.0
5.043904,0.052498078955454205,0.0
5.046287999999999,0.04970458227611925,0.0
5.048684,0.051566913395675894,0.0
5.051079999999999,0.04970458227611925,0.0
5.053467999999999,0.05528399409472546,0.0
5.055852,0.061934341099970217,0.0
5.058247999999999,0.06951585366499329,0.0
5.060635999999999,0.07602643104337783,0.0
5.063015999999999,0.08161342440204775,0.0
5.06542,0.08720041776071766,0.0
5.067803999999999,0.09171647593274906,0.0
5.070188,0.09543355663179864,0.0
5.072583999999999,0.0942304333583636,0.0
5.074971999999999,0.09023381340559361,0.0
5.077351999999999,0.08637696307968382,0.0
5.079747999999999,0.08037824238049697,0.0
5.082132,0.07223765130803304,0.0
5.084527999999999,0.073588125748392,0.0
5.086931999999999,0.06907206757636063,0.0
5.089319999999999,0.07177301645707852,0.0
5.0917,0.07954910201726864,0.0
5.094104,0.08574239571162257,0.0
5.096492,0.0849982216069476,0.0
5.098872,0.09184314160735942,0.0
5.101275999999999,0.09575479530157606,0.0
5.103664,0.0996664489957927,0.0
5.106043999999999,0.10264693713023101,0.0
5.108447999999999,0.10870046119772472,0.0
5.110835999999999,0.11382281970544011,0.0
5.113216,0.12080750933271214,0.0
5.115611999999999,0.12937499082582038,0.0
5.117996,0.13887363787870693,0.0
5.120379999999999,0.15409146637705992,0.0
5.122776,0.17117162599496957,0.0
5.125159999999999,0.18531851930668403,0.0
5.127544,0.20132774373795512,0.0
5.12994,0.21454347148989128,0.0
5.132327999999999,0.2193390689156431,0.0
5.134708,0.22827863746108884,0.0
5.137112,0.22986142932692505,0.0
5.1395,0.2225046526473156,0.0
5.141879999999999,0.2167306678335423,0.0
5.144276,0.2209671867518533,0.0
5.146664,0.21854577712485584,0.0
5.149044,0.21291156193794278,0.0
5.151444,0.2040645411911141,0.0
5.153832,0.1985228738028181,0.0
5.156212,0.18799861753366687,0.0
5.158607999999999,0.17938201835444623,0.0
5.160995999999999,0.17327748074297092,0.0
5.163376,0.17345499290872804,0.0
5.16578,0.19071455865885079,0.0
5.168168,0.22663707400130617,0.010656457063035639
5.170544,0.2907665119593546,0.02021819730205492
5.172939999999999,0.39572177734718117,0.028564762064799364
5.175327999999999,0.5146860603863179,0.03701441874082883
5.177707999999999,0.6584140389135241,0.04534621320233563
5.180104,0.82853383076501,0.05375411575826879
5.182492,1.0322152211652815,0.0619030161137589
5.184871999999999,1.2718342937709621,0.0697663151184509
5.187268,1.5374749885064545,0.07757325514594891
5.189655999999999,1.8179160968261747,0.0854792858463157
5.192036,2.1109213047003603,0.09352689806651313
5.194431999999999,2.4331118225781605,0.10154633324097909
5.196819999999999,2.79124002266137,0.10936842809186849
5.199204,3.178323111180586,0.11706879193167447
5.201599999999999,3.569591705074131,0.12494227881619613
5.203987999999999,3.9859035337094677,0.13282991019123147
5.206384,4.425443487795281,0.14068292472369578
5.208779999999999,4.884815562032289,0.14843907849222068
5.211167999999999,5.34898512955292,0.15612639564734204
5.213547999999999,5.797934974608741,0.16380924490009718
5.215943999999999,6.226127221527197,0.16081107338913744
5.218335999999999,6.621643709486271,0.1589020804967916
5.220716,6.9731687862838925,0.1582633299568933
5.223115999999999,7.31510835580362,0.15743007517431135
5.225503999999999,7.628327250170688,0.15676787050754007
5.227884,7.910592947071072,0.15606956582636575
5.230288,8.150125159451745,0.15572706746920628
5.232676,8.344780121081564,0.15584516259253287
5.235056,8.516346726887765,0.15604971240347473
5.237459999999999,8.677396659856296,0.1560772703020051
5.239848,8.826813658830138,0.15588204850906234
5.242227999999999,8.948767909293062,0.15572123784275704
5.244624,9.030360967177161,0.15587084320964942
5.247007999999999,9.080857266251979,0.15621514112350549
5.249388,9.128518534392825,0.15632709842218892
5.251788,9.146807501074955,0.1565137657272986
5.254171999999999,9.138657432604557,0.15673326290855505
5.256551999999999,9.11551995909483,0.15691596552408593
5.258956,9.090242511069693,0.15703505036729518
5.261343999999999,9.066035998231195,0.15713647716796653
5.263724,9.043784364310868,0.1572405220243582
5.266119999999999,9.024139235614777,0.1573501050861524
5.268507999999999,9.011943431396913,0.1573754435974675
5.270887999999999,8.992623167924913,0.1575287714783756
5.273284,8.981868490088154,0.15763883068779397
5.275672,8.982844981618307,0.15768497953467947
5.278055999999999,9.001793158037966,0.15751560631280287
5.280451999999999,9.042904212295074,0.1570356005798607
5.28284,9.094677396590322,0.15642718643612064
5.285231999999999,9.137231473086404,0.15595185614493118
5.287628,9.168611562865149,0.15560499576366515
5.290011999999999,9.199247478539217,0.15523153347051014
5.292392,9.233982039362603,0.15473277258964152
5.294787999999999,9.271417549066706,0.15416932474124534
5.297172,9.311786325077007,0.15358122310695882
5.299567999999999,9.370266555603678,0.15277868678034287
5.301971999999999,9.430329577996183,0.15196693590822566
5.304356,9.472373693670937,0.15139889568496628
5.306735999999999,9.499611708187855,0.15102858133891064
5.309139999999999,9.530294845690166,0.15063377570825814
5.311527999999999,9.564330558379252,0.15019126769150104
5.313908,9.604280025508972,0.1496531899283464
5.3163,9.644509031892412,0.1491080203180868
5.318688,9.68371432491746,0.14854422953622365
5.321067999999999,9.720405660516889,0.1479978918357291
5.323464,9.75900654906412,0.14741080265385165
5.325847999999999,9.78685275977459,0.14693113885122078
5.328227999999999,9.799520782274888,0.1466189336218941
5.330624,9.797382703617348,0.14648198170863247
5.333012,9.80413697167701,0.14626786700640185
5.335407999999999,9.825510349439408,0.1459167750786011
5.337804,9.851120246120116,0.14553841634982712
5.340188,9.881198979144612,0.14514971662685183
5.342568,9.914023987020197,0.144762097749977
5.344972,9.9373503478429,0.1445041963133217
5.34736,9.953879010493432,0.1443267792721796
5.349739999999999,9.965659297546456,0.1441695043446618
5.352136,9.984703813480474,0.1438887251893068
5.354519999999999,10.008543926840241,0.14355337832063098
5.3569,10.029171234640092,0.14326537700018846
5.359299999999999,10.044443866506752,0.14305235809470962
5.361684,10.04705226758885,0.1429780739758902
5.36408,10.039650164938866,0.14302112346031925
5.366475999999999,10.033551314900999,0.1430683844949456
5.368864,10.03331899747552,0.143050040695815
5.371243999999999,10.030712492251292,0.14304219779579125
5.373643999999999,10.028757613333118,0.14303625757249308
5.376028,10.031179022960114,0.1429965087097379
5.378411999999999,10.047707685610648,0.14281711961536905
5.380815999999999,10.064143800462562,0.14261692087067043
5.383203999999999,10.073457351918213,0.14245067432944827
5.385584,10.072155995163964,0.142365688442157
5.387988,10.06233437874485,0.1423637162435643
5.390376,10.052512762325742,0.14236193250533158
5.392756,10.052050023332656,0.14224536232260795
5.395152,10.046419599861478,0.14216432605077342
5.397539999999999,10.047958961614814,0.14202553922541972
5.39992,10.050195275644574,0.14194033395915928
5.402315999999999,10.05559717340601,0.1418424005431215
5.404703999999999,10.063839789675024,0.14169164983751917
5.407083999999999,10.071617771093083,0.14150514028191147
5.40948,10.084982745869812,0.14126580134212924
5.411868,10.105889592923386,0.14097673119664858
5.414247999999999,10.135596238895545,0.14059746743935086
5.416644,10.166840350763165,0.1401684803010952
5.419032,10.192125382219778,0.1397792151952477
5.421412,10.214057838489616,0.1394333836941781
5.423815999999999,10.235803303304351,0.139120276014857
5.426204,10.251170378827497,0.138864229126398
5.428583999999999,10.26937817285822,0.13856100343437475
5.43098,10.283814082821587,0.13831881928522327
5.433368,10.308957448793473,0.13802246810067773
5.435748,10.348440385214369,0.13761795618893774
5.438151999999999,10.393697306449038,0.13713817085496743
5.440539999999999,10.427687693167751,0.13673438896983056
5.442919999999999,10.460607144699823,0.13634249956796285
5.445319999999999,10.491337504030378,0.13600657923622803
5.447707999999999,10.530216035973458,0.13558483178932657
5.450087999999999,10.570632033812002,0.1351128927747753
5.452484,10.605368490493255,0.13466888384974104
5.454872,10.637636315719272,0.13428588640389863
5.457255999999999,10.667947366169242,0.1339701818283885
5.459652,10.705754962925687,0.13356862099868064
5.462036,10.736951852965062,0.13320431877137962
5.464419999999999,10.759069404832134,0.1329345817779219
5.466816,10.783234383415998,0.13269359467908023
5.469204,10.813218672784005,0.13242363521161885
5.471599999999999,10.848045781406013,0.13208566596787047
5.473996,10.879195449617148,0.13175038150780372
5.476384,10.894468081483808,0.1315682282981834
5.478764,10.90853000853697,0.13140227601879892
5.481159999999999,10.921009143724293,0.13124251404631923
5.483547999999999,10.924363614768938,0.13112539468721557
5.485932,10.915752703163326,0.13109778209809483
5.488327999999999,10.91216970640894,0.13104607446299604
5.490712,10.91026204931901,0.13101160028980896
5.493091999999999,10.909565097042577,0.130960167523694
5.495488,10.90118650286244,0.13094935183888678
5.497871999999999,10.88400810976372,0.1310173522041499
5.500268,10.865432020396398,0.13113415748339866
5.502663999999999,10.853002002895188,0.13118840458500927
5.505047999999999,10.848395292782408,0.13112185469375875
5.507432,10.835315544833007,0.13109714377839968
5.509824,10.817300429830992,0.13111721617868757
5.512212,10.803801373001011,0.1311065304366801
5.514607999999999,10.795145135425024,0.1310289683041026
5.517004,10.786955428557858,0.13091046318245614
5.519387999999999,10.769733605346634,0.13085164492993792
5.521771999999999,10.752883869187745,0.13080496997082483
5.524175999999999,10.747487658999919,0.13066441101424556
5.52656,10.746095650304925,0.13048576329557734
5.528943999999999,10.742608993064897,0.13030423902171118
5.53134,10.742055602131066,0.13009687479295623
5.533723999999999,10.749742931608374,0.1298311070695906
5.536107999999999,10.759432361832102,0.1295481515792266
5.538504,10.77159042351107,0.1292060675101628
5.540887999999999,10.781141979965808,0.1288536910793162
5.543267999999999,10.7925558675401,0.12848759854972283
5.545672,10.80769441735351,0.128091975869331
5.54806,10.825673685674497,0.12764824498190216
5.55044,10.84020783101009,0.12722414633308085
5.552835999999999,10.851948479666348,0.12682414799708336
5.55522,10.86578377686764,0.12642751815900222
5.557604,10.881993261867684,0.12602317469677093
5.560008,10.896759724628756,0.12561968428327736
5.562391999999999,10.905659654777436,0.12526731843987585
5.564772,10.913209110485758,0.12493683961009017
5.567176,10.931792783284557,0.1245330275866864
5.569564,10.95372903127013,0.12409103939177975
5.571944,10.972499695524037,0.12365835613133255
5.574347999999999,10.987405927911965,0.12325575778540061
5.576735999999999,10.999890750672897,0.12288400177231185
5.579115999999999,11.012515343060688,0.12250944007056967
5.581512,11.021415273209369,0.1221617304732339
5.5839,11.024588440372517,0.12185713205466109
5.586279999999999,11.025060658654949,0.12159353672541497
5.588676,11.025485655109136,0.12135591375901751
5.591063999999999,11.024560177122968,0.1211385382239766
5.593439999999999,11.024426095069717,0.12091944785020609
5.595848,11.02680597044208,0.12069179828045969
5.598231999999999,11.031839572866915,0.1204507624216279
5.600612,11.032030356037756,0.12027130217362528
5.603016,11.03250067846232,0.12008272394515973
5.605404,11.03432147532724,0.11987404272398426
5.607783999999999,11.032649927378525,0.11970656697455481
5.61018,11.030838609802949,0.11954328300107409
5.612563999999999,11.026233795548038,0.11939815223780509
5.614948,11.012177556068487,0.1193189416000268
5.617351999999999,10.997562238081493,0.11925792555156567
5.619736,10.982248071960198,0.11921973582626795
5.622116,10.97415091289165,0.11911596382169266
5.624519999999999,10.971920286435495,0.11896697078647492
5.626908,10.970853142964597,0.11882959082903453
5.629287999999999,10.970437625799752,0.11869541506161022
5.631684,10.974957475687523,0.11852261294799173
5.634072,10.98175896557543,0.11832455085927529
5.636452,10.989910929903695,0.11810684870229897
5.638855999999999,11.00020476460524,0.11786855201880338
5.641243999999999,11.014922109680196,0.11758592780252113
5.643623999999999,11.026706188448959,0.11732642523650812
5.64602,11.036767705725024,0.11707487492872946
5.648408,11.052044129307422,0.11677677094931506
5.650787999999999,11.067972179195877,0.1164829489995067
5.653184,11.086973265017388,0.11616519743729259
5.655571999999999,11.11212042270501,0.11579659601752093
5.657967999999999,11.139781537818248,0.11542010449224492
5.660359999999999,11.171679171849796,0.1150292319133685
5.662747999999999,11.209163799240013,0.11460463662586444
5.665127999999999,11.244925865137537,0.11418729605029163
5.667524,11.282969571035196,0.11374639712037063
5.669912,11.315658600999662,0.11335831353582845
5.672291999999999,11.3426208679786,0.1130083030015447
5.674695999999999,11.362925206412227,0.11270065417786723
5.67708,11.382577918539793,0.11238966443354612
5.679459999999999,11.398086659547669,0.1121142709688161
5.681868,11.411313760555409,0.11186346428362974
5.684251999999999,11.424401091936288,0.11161750801752947
5.686636,11.437348653690306,0.11137691036068954
5.68904,11.442148042831795,0.11120133844294558
5.691428,11.44601626641351,0.11103105119108987
5.693804,11.4496049507415,0.11086979056133432
5.696211999999999,11.450120599136438,0.1107333207236208
5.698596,11.448494377158095,0.11061613409733546
5.700975999999999,11.441513479246561,0.11054699155186587
5.703379999999999,11.430388610215335,0.1105115612388761
5.705767999999999,11.420893754878184,0.1104489980198867
5.708143999999999,11.412889143608256,0.11036399851120124
5.710552,11.400880330845492,0.11030780175040553
5.712935999999999,11.38887151808273,0.11025146529448436
5.715316,11.379516432372444,0.11018419437338806
5.717711999999999,11.371092512221933,0.110111877654164
5.720099999999999,11.36625348468368,0.11002382887553401
5.722479999999999,11.365418658638255,0.10990689155083609
5.724883999999999,11.365095689272028,0.10979786512440431
5.727271999999999,11.364353411025224,0.10970150055202747
