Time,Force,Position
7.724515999999999,0.006614269560682357,0.0
7.7269,0.006614269560682357,0.0
7.729295999999999,0.004453556230532322,0.0
7.731699999999999,0.004453556230532322,0.0
7.734087999999999,0.0040814691781948425,0.0
7.736467999999999,0.006502878805192323,0.0
7.73886,0.012435476202698791,0.0
7.741248,0.017929921762751655,0.0
7.743628,0.026004389533535184,0.0
7.746031999999999,0.038222828424012624,0.0
7.748416,0.049510101754711745,0.0
7.750799999999999,0.060937144712271074,0.0
7.753203999999999,0.06929115173677503,0.0
7.755587999999999,0.07750538913441876,0.0
7.757967999999999,0.08371752578564565,0.0
7.760371999999999,0.08899849687709421,0.0
7.762759999999999,0.08899849687709421,0.0
7.765135999999999,0.0882808057859202,0.0
7.767539999999999,0.0882808057859202,0.0
7.769927999999999,0.0882808057859202,0.0
7.772308,0.0882808057859202,0.0
7.774703999999999,0.09006943206373275,0.0
7.777091999999999,0.09006943206373275,0.0
7.779471999999999,0.09006943206373275,0.0
7.781864,0.08800126653219978,0.0
7.784251999999999,0.08486216581402826,0.0
7.786647999999999,0.07892956841652181,0.0
7.789044,0.07285720139215512,0.0
7.791427999999999,0.0647827336213716,0.0
7.793807999999999,0.05256429473089416,0.0
7.796203999999999,0.04127702140019504,0.0
7.798588,0.029849978442635705,0.0
7.800983999999999,0.021495971418131754,0.0
7.80338,0.014278964365382459,0.0
7.805763999999999,0.013208029178743929,0.0
7.808143999999999,0.012788720298163296,0.0
7.810539999999999,0.021794353628725144,0.0
7.8129279999999985,0.02986882139950868,0.0
7.815307999999999,0.039433533237511365,0.0
7.817711999999999,0.046856374702237,0.0
7.820095999999999,0.053348050607184304,0.0
7.82248,0.054978064301263674,0.0
7.824875999999999,0.06039880501957246,0.0
7.82726,0.06968397760385472,0.0
7.829655999999999,0.0828335820541105,0.0
7.832059999999999,0.09505202094458794,0.0
7.834443999999999,0.11020372614126055,0.0
7.836823999999999,0.1262865968977115,0.0
7.839227999999999,0.13915666209424682,0.0
7.841615999999999,0.14909346098458695,0.0
7.843996,0.15917002950178732,0.0
7.8464,0.16710472764571066,0.0
7.848783999999999,0.17489965616277375,0.0
7.851164,0.1806264191483039,0.0
7.853568,0.18085873657378118,0.0
7.855951999999999,0.18165013250669929,0.0
7.858335999999999,0.18015988843948014,0.0
7.860739999999999,0.17974057955889952,0.0
7.863124,0.17862242254401786,0.0
7.865503999999999,0.17978590552927345,0.0
7.8679,0.18080961888766883,0.0
7.870287999999999,0.18397520261934128,0.0
7.872668,0.1822054192984017,0.0
7.875059999999999,0.17292024671411943,0.0
7.8774479999999985,0.15977064226386367,0.0
7.879827999999999,0.1475522033733862,0.0
7.882231999999999,0.1324004981767136,0.0
7.8846159999999985,0.11631762742026266,0.0
7.886995999999999,0.10344756222372734,0.0
7.889399999999999,0.09351076333338715,0.0
7.891783999999999,0.08343419481618677,0.0
7.894163999999999,0.07549949667226345,0.0
7.89656,0.06770456815520035,0.0
7.898948,0.06098057482477574,0.0
7.901327999999999,0.05560705593471012,0.0
7.903731999999999,0.049953997790924076,0.0
7.906119999999999,0.042438608527581384,0.0
7.908499999999999,0.03478344963737849,0.0
7.910896,0.026336894814257477,0.0
7.913279999999999,0.017750570364276255,0.0
7.915663999999999,0.012815203311664233,0.0
7.918067999999999,0.009742167378608849,0.0
7.920452,0.01053356331152696,0.0
7.922831999999999,0.01711778701509133,0.0
7.925235999999999,0.025843881091932756,0.0
7.927623999999999,0.030845312929660904,0.0
7.930003999999999,0.03584674476738905,0.0
7.932399999999999,0.0408481766051172,0.0
7.934787999999998,0.04706031325634409,0.0
7.937167999999999,0.05141011878801433,0.0
7.939564,0.05790179469296165,0.0
7.941952,0.06518486653082708,0.0
7.944328,0.07284002542102998,0.0
7.946723999999999,0.08649959069261418,0.0
7.949111999999999,0.11207542092834395,0.0
7.951508,0.14477002284459822,0.0
7.953903999999999,0.19040270722552421,0.00890208247142054
7.956288,0.2592162952286834,0.017217073909682926
7.9586679999999985,0.3492559079359021,0.02522678955058235
7.961059999999999,0.45442269530931273,0.03330388335359269
7.963447999999999,0.5663626503244114,0.041863062955637506
7.965839999999999,0.6968276811628515,0.05035131269095704
7.968243999999999,0.8510326941309658,0.058536637593267014
7.970631999999999,1.02674327105686,0.06646455805132878
7.973012,1.219583123395363,0.07428966358262566
7.975411999999999,1.4370015756247012,0.0820102606235202
7.977799999999999,1.6711299943860676,0.08976064385730342
7.98018,1.9227597756123802,0.09752830132116581
7.982584,2.188166257064526,0.10534581541526077
7.984967999999999,2.474566445795254,0.11310900457412933
7.987348,2.772881003632258,0.12093323182229021
7.989751999999998,3.0866948231877913,0.12880043050570616
7.992135999999999,3.4227130548354063,0.13657597344773328
7.994516,3.767808728797457,0.14430775847495025
7.9969199999999985,4.111788141602498,0.15197215903878875
7.999303999999999,4.456377646458961,0.15951784093763205
8.001684000000001,4.7921730399704465,0.15808943917026475
8.004088,5.101621946128026,0.15726899176480683
8.006476,5.3826750423570395,0.15684127271836096
8.008855999999998,5.645435380188189,0.15636855683813355
8.01126,5.902754181861137,0.1553150123908613
8.013648,6.1400123376731495,0.15429116275249186
8.016027999999999,6.345429560571204,0.15365878509897402
8.018424,6.518539319846476,0.15342092133138074
8.020812,6.66716302702953,0.15338802524666748
8.023191999999998,6.796515588426698,0.15344698722408945
8.025596,6.9106012055308135,0.15347153694342747
8.027984,7.009699417595598,0.1534523049397629
8.030363999999999,7.09231998055383,0.15342880382233803
8.03276,7.154738232166399,0.15348177744129682
8.035143999999999,7.200678834672417,0.1535344262474763
8.037523999999998,7.2315394843404865,0.15351364255582087
8.039919999999999,7.236378511878744,0.15362664374384893
8.042307999999998,7.222038941429733,0.15382497371590098
8.044684,7.190520977882,0.15418902577964827
8.047079999999998,7.152205316162095,0.1546563294727684
8.049468000000001,7.1077435825760835,0.15523506128496325
8.051863999999998,7.066726971975464,0.15577612192534107
8.05426,7.035394104024965,0.15620004782386773
8.056643999999999,7.01011286428409,0.15659014824491413
8.059024,6.98473718088673,0.15705272755840813
8.061428,6.962200320139077,0.15754429476039855
8.063816,6.9485558061086286,0.15792582638836827
8.066195999999998,6.943152012489324,0.15819440027380088
8.068591999999999,6.944685686669048,0.15833939955936127
8.070979999999999,6.944496799356075,0.15850506468200828
8.073360000000001,6.944355133871345,0.15862878724180487
8.075755999999998,6.941467193535524,0.15875367585115008
8.078143999999998,6.941699510961001,0.15877896934535213
8.080524,6.943933929132895,0.15876790918505793
8.082919999999998,6.953664893611258,0.15860300055265608
8.085304,6.964978649955458,0.15842768982965216
8.087699999999998,6.977875198165494,0.1582374218815486
8.090095999999999,6.996311517905957,0.1580014031096244
8.092483999999999,7.023220875483042,0.1576646519578848
8.094863999999998,7.051713024925965,0.15731827602248938
8.097259999999999,7.0863512462349965,0.15685722005491493
8.099647999999998,7.122060402730668,0.15637772621509413
8.102028,7.151670709188471,0.1559724422859517
8.104432,7.18067661116846,0.1555301644943838
8.106819999999999,7.20442228087174,0.15511767808658908
8.109199999999998,7.225701214977651,0.15469305572702122
8.111595999999999,7.245025270165388,0.15426550802775477
8.113983999999999,7.265187943114286,0.15379145677667622
8.116375999999999,7.288563421623099,0.1532610034777294
8.118780000000001,7.3120786697587725,0.152722534769963
8.121168,7.334103673827228,0.15223063469024234
8.123548,7.357292160880937,0.151751672962793
8.125951999999998,7.379642030173486,0.15132164965876918
8.128336000000001,7.400781194652536,0.15092039168515442
8.130716,7.416705452825256,0.15061955775635377
8.133112,7.428532961706522,0.15035520892079424
8.1355,7.442921649841647,0.1500271798987593
8.137875999999999,7.458568264618514,0.14963544965831813
8.140272,7.4776146764104,0.14914400352925397
8.14266,7.497779245217167,0.1486010147771748
8.145039999999998,7.512915899172705,0.14810708585610532
8.147444,7.526469761262406,0.14762478701910112
8.149828,7.548543883016973,0.14702856523128505
8.152211999999999,7.573271731824014,0.1464131143299637
8.154603999999999,7.601724242870169,0.14575277921220495
8.156991999999999,7.6325509417150785,0.14508259473675764
8.159384,7.664960432425824,0.1444065894178521
8.16178,7.701885981308601,0.14368915228311907
8.164168,7.737088968698682,0.14300038331268577
8.166547999999999,7.774061739409702,0.1422633008175329
8.168948,7.811081731948964,0.1414910127639054
8.171336,7.84880057262253,0.1406897383959189
8.173715999999999,7.886007556616898,0.13988082770952232
8.176120000000001,7.925124093559063,0.13901636841972775
8.178508,7.9633566867696945,0.13812526893499824
8.180888,8.002660215166966,0.13721619775604393
8.183284,8.04205629136285,0.1363407432988291
8.185668,8.078471879424301,0.1355457821645951
8.188047999999998,8.108601625992778,0.13485584927590538
8.190452,8.127649933642532,0.13431787822131402
8.19284,8.145580084277405,0.13383186919661696
8.195219999999999,8.16038997715098,0.13342504547626063
8.197616,8.1716149774123,0.1330580723043649
8.200004,8.172876695769782,0.1327918105842923
8.202388,8.169762125582091,0.13256369446462204
8.20478,8.16092079240887,0.13240364279266909
8.207168,8.151660150355069,0.1322636273759593
8.209547999999998,8.137883450129236,0.1321672292760703
8.211943999999999,8.119590691731371,0.1321133362417968
8.214327999999998,8.098596984452788,0.13211791428147976
8.216724,8.078999077584939,0.13215759848697095
8.21912,8.055769056276594,0.13226582845049345
8.221508,8.031328330154748,0.13239704925895698
8.223887999999999,8.006980151831522,0.1325554919917685
8.226284,7.9850987091056655,0.1327331001113032
8.228672,7.965032375671121,0.13292616640059193
8.231055999999999,7.943523019997602,0.13311884617632333
8.233452,7.920710411711968,0.13330580360696723
8.23584,7.894964537120138,0.1335310464781741
8.238219999999998,7.879601253312729,0.13364322471521195
8.240624,7.868242170998153,0.1337025502025054
8.243008,7.862237764616772,0.13367949635802442
8.245387999999998,7.84994751674242,0.13375013704070068
8.247792,7.843336810025352,0.13379100482278333
8.25018,7.840124004465437,0.13384159396396958
8.252559999999999,7.845291688943526,0.13380103991094539
8.254956,7.851530308608254,0.13374418206245992
8.257344,7.854276583459345,0.13375067899635212
8.259723999999999,7.85883796760175,0.1337737650712531
8.262128,7.865401452490572,0.13377000202439326
8.264516,7.871080993647859,0.13373980864657892
8.266896,7.881975441111479,0.1336332006581187
8.269292,7.8958031548812935,0.1334904134200041
8.271684,7.907396450479214,0.13335147136520395
8.274064,7.916103701599183,0.1332123977773974
8.276467999999998,7.923367930480177,0.13307367844227141
8.278855999999998,7.931144016040366,0.1329447745039746
8.281236,7.941434059026172,0.1327993529968869
8.283639999999998,7.960244361676843,0.13255882232972513
8.286027999999998,7.977983729140876,0.13233737604992063
8.288408,7.995862866231768,0.1321118287350179
8.290807999999998,8.016023643322796,0.13185168561135063
8.293195999999998,8.044844449705552,0.1314919786385161
8.295576,8.076738292021364,0.13109421002208557
8.297971999999998,8.105746089859222,0.13069493830336618
8.300356,8.129446433592129,0.13034317602724832
8.302736,8.149282345459063,0.13003529933861177
8.305132,8.176195494751887,0.12963738293666072
8.30752,8.198872125126401,0.12926400996060697
8.309899999999999,8.219546654754495,0.1289160449787004
8.312296,8.242455602554486,0.1285685760991091
8.314684,8.265085011100755,0.1282385784848983
8.31708,8.286923023714106,0.12791385380473114
8.319471999999998,8.31220615931285,0.12756792880115206
8.321860000000001,8.341725813829905,0.12719759406685577
8.32424,8.368963828346823,0.12686225924234348
8.326643999999998,8.399554418050517,0.12647779904532175
8.329031999999998,8.43256641738121,0.12605511437234737
8.331412,8.460131192980091,0.12568252131130936
8.333807999999998,8.487184111899774,0.12530298772814358
8.336195999999997,8.51130376451326,0.12495666837871454
8.338576,8.529277345260637,0.12468765526040651
8.340979999999998,8.547158378209398,0.12439511312736756
8.343363999999998,8.55973195705321,0.12414126881354336
8.345744,8.575750658882413,0.12386682543976313
8.348147999999998,8.593072613323733,0.12360026298560817
8.350535999999998,8.61346760369811,0.1232969713650556
8.352916,8.63106909739315,0.12302129162759806
8.355308,8.655747828514079,0.12266548373498615
8.357696,8.684710300381562,0.12225599745378035
8.360076,8.708365318144097,0.1218832218337717
8.362479999999998,8.723500076241764,0.12158708492123571
8.364867999999998,8.739845539152933,0.12127347738613048
8.367248,8.751535174265209,0.12100017672554111
8.369644000000001,8.75991945601895,0.12074177353696214
8.372032,8.773146557026688,0.12040558827957702
8.374407999999999,8.780646895048898,0.1201226087052438
8.376804,8.782792557137913,0.11990813590198332
8.379192,8.78386728404029,0.11970667561842498
8.381588,8.780798039822974,0.11955353513637433
8.383983999999998,8.776797630045882,0.11940778727754965
8.386371999999998,8.772936989895646,0.11925563603940843
8.388752,8.764513069745137,0.1191701710912269
8.391155999999999,8.759022415900821,0.11905531998860563
8.393543999999999,8.757024106870142,0.11888896357512928
8.395924,8.751860214107793,0.11872944716311255
8.398319999999998,8.744694220599023,0.11859092819829388
8.400707999999998,8.735665895970696,0.11846744053109655
8.403088,8.723424765782454,0.11838373702766608
8.405483999999998,8.707039664474518,0.11834663674793774
8.407871999999998,8.696381326152112,0.1182589949488378
8.410252,8.694103477867712,0.11810451903046998
8.412648,8.688333284769676,0.11800121836634118
8.415036,8.685356588350976,0.11787564750242928
8.417431999999998,8.687966885290946,0.11770680717985536
8.419827999999999,8.689086938163692,0.11756887579652099
8.422215999999999,8.69686491958175,0.1173756364924915
8.424599999999998,8.707855706559723,0.11714372221361476
8.426995999999999,8.723781860590309,0.1168656970682693
8.429379999999998,8.745714316860145,0.11652855398040472
8.431763999999998,8.77337353611551,0.11614509057090355
8.434159999999999,8.805688583169768,0.1157275638598551
8.436547999999998,8.837212234291108,0.11530963252497133
8.438928,8.86659401503917,0.11491816472617981
8.441332,8.887687853547845,0.1146185488537912
8.443715999999998,8.91408914616147,0.11428925913841509
8.446096,8.944494640267928,0.1139231487168062
8.448491999999998,8.97876456624036,0.11352656254675716
8.450879999999998,9.013034492212796,0.11313052648174765
8.45326,9.049306518931644,0.11271611635930444
8.455655999999998,9.081574344157662,0.11234238667723731
8.45804,9.109745420092228,0.11198164727659524
8.460435999999998,9.139266970467151,0.11159720460166914
8.462831999999999,9.166926189722522,0.11122663272367582
8.465219999999999,9.18885864599236,0.11090462627541735
8.467603999999998,9.209580397448699,0.11060103037867247
8.469999999999999,9.226297947412203,0.1103368043716378
8.472383999999998,9.24208433181593,0.11007996763994611
8.474768000000001,9.255728845846381,0.10984869122309371
8.477167999999999,9.26830242469019,0.10963125727942215
8.479555999999999,9.27729111092175,0.10943493875542788
8.481936000000001,9.283765839727694,0.10924743133095863
8.484331999999998,9.293173834839834,0.10903624990235469
8.486719999999998,9.30365276513861,0.10881363268221653
8.4891,9.316692874691244,0.10855117164525262
8.491495999999998,9.328289962004902,0.10828687524769345
8.493883999999998,9.337093552639224,0.10804216911756774
8.496279999999999,9.343243416221073,0.10781141827612861
8.498676,9.3515351501762,0.1075593156400353
8.501059999999999,9.359826884131326,0.1073081467703863
8.503443999999998,9.369189553273094,0.10704591696314228
8.505835999999999,9.383999446146667,0.10675570485679846
8.508223999999998,9.40002004383374,0.10645056827377623
8.510604,9.419393216707586,0.10610902826824611
8.512999999999998,9.437974993648519,0.10576740056484378
8.515387999999998,9.45711584909689,0.10540572383286574
8.517779999999998,9.476815783052704,0.10502437137279746
8.52018,9.499076896262375,0.1046087513449698
8.522564,9.52017452648679,0.10417977283160318
8.524943999999998,9.539968904099087,0.10374373159004378
8.527348,9.55790095059183,0.10331844212704114
8.529736,9.575181370778514,0.10288908492819349
8.532115999999998,9.592881099845778,0.10244662745079924
8.53452,9.613933404099818,0.10197113860466787
8.536908,9.637918974660055,0.10147727682874902
8.539287999999999,9.660042214100734,0.10099525453596765
8.541688,9.683236388728051,0.10050502283760636
8.544072,9.703497297049175,0.10003456776451322
8.546456,9.72352588794482,0.0995478099536731
8.548852,9.741971686974631,0.09906206216699796
8.55124,9.757903528578828,0.09858050443836522
8.553619999999999,9.771461182384266,0.0981027456096249
8.556016,9.782365109137231,0.0976351773829997
8.558404,9.789404604024224,0.09719260454449528
8.560787999999999,9.796024790030634,0.09676326351454774
8.563184,9.800503105663768,0.09635295643507796
8.565572,9.80442234278946,0.09596280402423771
8.567951999999998,9.804569695847798,0.09562188178290915
8.570356,9.803878431144973,0.09531001859922797
8.572744,9.798344347188156,0.09505514052419668
8.575128,9.795184451030092,0.09480085684096642
8.577524,9.790254771551089,0.09458020839307144
8.579912,9.782763912818227,0.09439347779808528
8.582291999999999,9.768847442965534,0.09426378106093167
8.584692,9.752369793858982,0.09416754636580929
8.587076,9.736404001431628,0.09408109686516233
8.589459999999999,9.715223302697943,0.09403670877149649
8.591856,9.696277022136151,0.09399828247539645
8.594248,9.673930944559343,0.09402252842357149
8.596627999999999,9.65209672366173,0.09405653335419958
8.599031999999998,9.635430187242205,0.09407771318429067
8.601416,9.615783162688244,0.09414668013979327
8.6038,9.597020081865818,0.09424102448478439
8.606203999999998,9.58221398070798,0.09433709432094817
8.608588000000001,9.571691620296699,0.09439554380894787
8.610968,9.563822986937891,0.09444554858518835
8.613371999999998,9.554883418392444,0.09450490538245428
8.615755999999998,9.547014785033639,0.09455498441837505
8.618136,9.542358957234747,0.09457697705125158
8.620532,9.542126639809268,0.09455686556810303
8.622916,9.543524336077871,0.09450802000850728
8.625295999999999,9.54813483790639,0.09443133432442861
8.6277,9.556889310854602,0.09432293213872807
8.630088,9.570579150855426,0.09418302021805304
8.632468,9.583617364550193,0.09403767565608456
8.634871999999998,9.596376038991236,0.09390209108723233
8.637259999999998,9.615141015671531,0.09372563673809627
8.63964,9.638329502725242,0.09350902955639108
8.642036000000001,9.661425441980336,0.09326653707708789
8.644424,9.684800920489149,0.09301490173414104
8.646804,9.705522671945488,0.09277271113638844
8.649207999999998,9.726803501909266,0.09251041544319846
8.651595999999998,9.749854115193985,0.09221534725127062
8.653976,9.770018684000755,0.09190955403322934
8.656379999999999,9.789112317620882,0.09161488321722433
8.658763999999998,9.808765029748452,0.09130256594765976
8.661144,9.831118690756739,0.09095417710361747
8.663547999999999,9.857104466205522,0.09056763895654121
8.665935999999999,9.879365579415195,0.0901981969656695
8.668316,9.906841598931196,0.0897940696582338
8.670711999999998,9.930732725834947,0.08940275413325152
8.673099999999998,9.958535506432911,0.08896711248691226
8.67548,9.983172703299205,0.08853066082162638
8.677883999999999,10.005435712366745,0.08809304592985318
8.680271999999999,10.03119106624792,0.08762348749840203
8.682652000000001,10.059415051584338,0.0871019888887507
8.685047999999998,10.088198115428192,0.08656654235707013
8.687435999999998,10.110882329234183,0.08604437547858523
8.689816,10.135848183040311,0.08550221262962614
8.692211999999998,10.16030218016724,0.08495091624499335
8.694599999999998,10.183592694308913,0.08438414194177055
8.69698,10.20693043027883,0.08378916474182689
8.699376,10.230967014383047,0.08317529866104173
8.70176,10.256074533673903,0.08255519091727187
