Time,Force,Position
9.654128,0.14598587908336386,0.0
9.656512,0.14198167759053013,0.0
9.658907999999998,0.14235376464286764,0.0
9.661304,0.1416549165085666,0.0
9.663692,0.1408162987474053,0.0
9.666072,0.13811534986668741,0.0
9.668468,0.14128093359835986,0.0
9.670856,0.14900979733030684,0.0
9.673236,0.15459679068897675,0.0
9.675631999999998,0.15645912180853344,0.0
9.678016,0.1556677258756153,0.0
9.680412,0.16167402811486584,0.0
9.682808,0.170893135914032,0.0
9.685196,0.18826041632572574,0.0
9.687576,0.2020428041251664,0.0
9.689972,0.21768752304416375,0.0
9.69236,0.23188921972418505,0.0
9.69474,0.24716185159084492,0.0
9.697136,0.2604323827110879,0.0
9.69952,0.27142127383119363,0.0
9.701916,0.276543632338909,0.0
9.704312,0.28483157457829683,0.0
9.7067,0.2875325234590148,0.0
9.709079999999998,0.2893023067799544,0.0
9.711484,0.293865586780229,0.0
9.713868,0.2953558308474481,0.0
9.716252,0.29498374379511066,0.0
9.718648,0.2873946496900239,0.0
9.721032,0.279805555584937,0.0
9.723416,0.2731476270396286,0.0
9.725812,0.2690036559199347,0.0
9.7282,0.25978454812076845,0.0
9.73058,0.25056544032160233,0.0
9.732976,0.24027539733579764,0.0
9.735364,0.23277885102932794,0.0
9.737748,0.2255618439765787,0.0
9.740151999999998,0.22514253509599805,0.0
9.74254,0.22151042065550186,0.0
9.74492,0.2169471406552273,0.0
9.747316,0.21545689658800812,0.0
9.749704,0.21503758770742745,0.0
9.752084,0.21410642214764913,0.0
9.75448,0.21610852289406599,0.0
9.756868,0.2162482925209262,0.0
9.759248,0.21652783177464663,0.0
9.761644,0.22002017658828266,0.0
9.764031999999998,0.2210911117749212,0.0
9.766412,0.2289597451337284,0.0
9.768812,0.2409723496122295,0.0
9.7712,0.2509828533443138,0.0
9.773596,0.2603417307703401,0.0
9.775992,0.2689092122634484,0.0
9.77838,0.2750552841295591,0.0
9.78076,0.2750552841295591,0.0
9.783156,0.2739843489429206,0.0
9.785544,0.2715629393159231,0.0
9.787924,0.2649975585692317,0.0
9.79032,0.26029450894209694,0.0
9.792708,0.255451689688102,0.0
9.795088,0.25060887043410707,0.0
9.797484,0.24762838229966871,0.0
9.799872,0.23994484453809561,0.0
9.802268,0.22918827084346718,0.0
9.804664,0.2222961290148122,0.0
9.807052,0.21181909457390413,0.0
9.809436,0.20241299531963466,0.0
9.811832,0.1983615719985578,0.0
9.81422,0.18737268087845207,0.0
9.816604,0.17237958826551264,0.0
9.819,0.1613906971454069,0.0
9.821388,0.1482599356520241,0.0
9.823768,0.13885383639775462,0.0
9.826168,0.13294008195712115,0.0
9.828556,0.1322412338228201,0.0
9.830936,0.1318219249422395,0.0
9.833336,0.1327530905020178,0.0
9.835719999999998,0.1318219249422395,0.0
9.8381,0.12651447083728998,0.0
9.8405,0.1221381822921188,0.0
9.842884,0.11395003283780417,0.0
9.845268,0.10483071782371126,0.0
9.847664,0.09920374762325435,0.0
9.850052,0.09673701202588296,0.0
9.852432,0.09111004182542605,0.0
9.854828,0.09101749402680899,0.0
9.857216,0.08590238050554977,0.0
9.8596,0.07771423105123516,0.0
9.861996,0.07259911752997596,0.0
9.864384,0.06841516956849505,0.0
9.866764,0.06316028642037563,0.0
9.869167999999998,0.05999470268870319,0.0
9.871556,0.05394842360766565,0.0
9.873936,0.04576027415335105,0.0
9.876332,0.03650118951239792,0.0
9.87872,0.028120699474393027,0.0
9.881116,0.02360464130236163,0.0
9.883512,0.025886281302498905,0.0
9.8859,0.034406540967363994,0.0
9.88828,0.043206339885949505,0.0
9.890676,0.056609395646596554,0.0
9.893064,0.06973291215352317,0.0
9.895448,0.08164572384695107,0.0
9.897844,0.0896069050043753,0.0
9.900232,0.10086809039174531,0.0
9.902612,0.10817764524311164,0.0
9.905012,0.11822812581698289,0.0
9.9074,0.13014093751041075,0.0
9.90978,0.14098281401720014,0.0
9.912176,0.14982258977757265,0.0
9.914564,0.15465816404511146,0.0
9.916948,0.15647327333642497,0.0
9.919344,0.16023791241732524,0.0
9.921732,0.16092951556517013,0.0
9.924112,0.16176088833987523,0.0
9.926507999999998,0.1607425241100668,0.0
9.928896,0.15571995838742458,0.0
9.93128,0.14683296079880895,0.0
9.933675999999998,0.13529223615771854,0.0
9.936064,0.12361174188976792,0.0
9.93846,0.11020868612912085,0.0
9.940855999999998,0.09708516962219424,0.0
9.943248,0.08517235792876637,0.0
9.945628,0.07614024158470359,0.0
9.948028,0.06487905619733358,0.0
9.950416,0.05468880599660212,0.0
9.952796,0.04463832542273088,0.0
9.955191999999998,0.03272551372930299,0.0
9.957579999999998,0.02318154070604252,0.0
9.959964,0.018572934735394064,0.0
9.96236,0.019691091750275745,0.0
9.964744,0.02295111913843449,0.0
9.967128,0.02621114652659323,0.0
9.969524,0.037619346527279586,0.0
9.971912,0.045954510594910555,0.0
9.974291999999998,0.05204801150419125,0.0
9.976688,0.056930807599973196,0.0
9.979076,0.06488663962881053,0.0
9.981456,0.07563596833698281,0.0
9.983856,0.08424342667187805,0.0
9.986244,0.09336274168597097,0.0
9.988624,0.10047995595364705,0.0
9.991024,0.10717786134074249,0.0
9.993412,0.10838667029637199,0.0
9.995792,0.10884216430300112,0.0
9.998188,0.12396019812486764,0.0
10.000576,0.15369354993372836,0.0
10.002972,0.2006487249538149,0.00974183397933487
10.005368,0.26403967638079606,0.0191450209891389
10.007756,0.34292988952630665,0.028175065101442867
10.01014,0.4369944991662522,0.03688167639888614
10.012536,0.5461862834723897,0.04553293160710552
10.014924,0.6740901350569722,0.05397063155409683
10.017304,0.8144202124270288,0.06235849958965278
10.019699999999998,0.9786772633818627,0.0705280486790246
10.022087999999998,1.1647666393764402,0.07854900020282601
10.024472,1.3700346133582866,0.08645877316012932
10.026868,1.5833525245804356,0.09452561673805927
10.029255999999998,1.8077934089759427,0.10266547677198398
10.031636,2.0541591662098106,0.11072056064288908
10.03404,2.3166304854978916,0.11873806505640068
10.036428,2.5947880579596054,0.12678692688886142
10.038808,2.893567250647564,0.13474309271098886
10.041204,3.2185097309500637,0.1425836168222596
10.043592,3.5647764713288477,0.15022050627523797
10.045972,3.902339752303402,0.15779205870757163
10.048368,4.222494218611626,0.16540491627005535
10.050756,4.518536615737841,0.16335686108948977
10.053136,4.793959288495681,0.1616563335831313
10.055536,5.042196856138452,0.1604443932208567
10.05792,5.273305148368616,0.15952882585647776
10.060304,5.484909977387415,0.15871975066860342
10.0627,5.670772723530122,0.15820861986407822
10.065088,5.834618049035854,0.15781979972939952
10.06748,5.9773298976361415,0.15765824005414547
10.06988,6.099140586756465,0.1576965640992652
10.072268,6.2014931386358,0.1578992249522996
10.074648,6.294445278834471,0.15791999387585512
10.077044,6.37427234511337,0.15785994100389647
10.079432,6.43738944486024,0.15781692251694182
10.081816,6.484028895500557,0.15780259511141337
10.084212,6.520196999273576,0.15768181196203995
10.0866,6.538584201327926,0.15758713525478568
10.08898,6.535837926476835,0.15758911172014636
10.09138,6.508371386250177,0.15784776458672348
10.093768,6.470289937813622,0.15825311298773537
10.096148,6.431789180496486,0.15869440867340404
10.098548,6.402552856948889,0.15903152654810898
10.100936,6.378576765677996,0.15933685645878118
10.103316,6.373735842281871,0.15934209815210254
10.105712,6.3692197841098395,0.15941040945684448
10.1081,6.3730369941475695,0.15938465221376888
10.110484,6.385327242021924,0.1592542927929632
10.112884,6.4059979799342806,0.15898347724033718
10.115272,6.427227796354078,0.15867892025173125
10.117652,6.4507392527740155,0.1583148241611346
10.120048,6.475740953261168,0.15789756982912148
10.12244,6.497157761136069,0.15753452820737276
10.12482,6.518062712331773,0.15716269066815183
10.127216,6.533380670168805,0.15688637211886158
10.129604,6.549629793565616,0.15659574107993615
10.131988,6.562107032895072,0.15641358982061115
10.134384,6.569741452970531,0.1563617536276852
10.136776,6.579470521591026,0.15630706481397802
10.139156,6.601025203234919,0.156073319053363
10.141556,6.626816403797122,0.15578271241094285
10.143944,6.665271835143885,0.15526614264672123
10.146324,6.705357280184728,0.15470311709953924
10.148724,6.740834119254922,0.1541719648844534
10.151112,6.761412309368663,0.15388564807291166
10.153496,6.783108656497285,0.15353372244054136
10.155892,6.800708254334456,0.15322472926870798
10.158276,6.821008801052344,0.15284521891177494
10.160656,6.835582584784703,0.1525602744413683
10.163052,6.848666124449843,0.15232137979591728
10.165439999999998,6.8621217511673205,0.15210081992252264
10.167836,6.879302040123911,0.15182694939175392
10.170232,6.901138156879395,0.15148443350417118
10.172616,6.922974273634878,0.15114319851925634
10.175,6.947324347815976,0.1507741863224264
10.177396,6.969253012370077,0.1504644059601909
10.17978,6.994254712857232,0.15009757915093777
10.18216,7.024890628531303,0.1496059037574246
10.18456,7.058646801966669,0.14902658770700655
10.186944,7.0793666575651395,0.1486401130680194
10.189328,7.099434886857551,0.14824930152530133
10.191724,7.111262395738818,0.14797950388071923
10.194108,7.122298508687167,0.147719735995972
10.196504,7.136639974994048,0.14743134071452965
10.198899999999998,7.1585705354060165,0.14703178532475678
10.201288,7.1818043484301,0.14664076276886456
10.203668,7.2087628236933,0.14620290859338747
10.206072,7.231856867090524,0.14582990360567763
10.208456,7.257232550487886,0.14540887285961712
10.21084,7.28167706832547,0.14499673947735645
10.213244,7.3077515998571325,0.14453724185171882
10.215628,7.331172404336321,0.14411257207042455
10.218008,7.3554318265766705,0.14365127733422595
10.220403999999998,7.379831018443879,0.14318429577294944
10.222791999999998,7.404369979937948,0.14271032205896553
10.225172,7.432261516618791,0.14217158263525337
10.227576,7.459920735874159,0.14161428836579404
10.229964,7.482504818450053,0.14113953152673864
10.232344,7.494100009905841,0.1408680188449971
10.23474,7.513656382519057,0.14051046404868248
10.237127999999998,7.5409416188642195,0.1400498696418619
10.239508,7.568878481515439,0.1395957638396826
10.241904,7.593882077860464,0.13918769024510966
10.244292,7.617023343085931,0.13880297843057546
10.246671999999998,7.634809932378207,0.13851107411295605
10.249076,7.650082564244867,0.13824023598782897
10.25146,7.662841238685912,0.13799181761491713
10.25384,7.670664546074346,0.13781214942100956
10.25624,7.6788599405151166,0.1376500480200608
10.258628,7.694923968314694,0.1373803872023411
10.261008,7.710708456860552,0.13712722127148724
10.263404,7.728634815779686,0.13684165338458873
10.265792,7.740926959511907,0.13665906633624766
10.268188,7.753451420669607,0.13650067795096515
10.270588,7.768489839252919,0.136325417536954
10.272976,7.788323855261986,0.13609612197055643
10.275356,7.80322250421844,0.13593195926670124
10.277752,7.8233360594812265,0.13569091201858535
10.28014,7.8526687225431795,0.1353144084829469
10.282524,7.883631399299211,0.13490037854685658
10.284928,7.909426391577152,0.13453466248936233
10.287312,7.93284719605634,0.13418035430394906
10.289696,7.955197065348889,0.13384253525406178
10.292091999999998,7.9781985609474955,0.13350735388975782
10.294479999999998,8.004412862106017,0.1331211568170973
10.29686,8.032908803264677,0.13269788348946482
10.299256,8.05926287405006,0.13230806507109677
10.301644,8.095347909313807,0.13180316555411092
10.304023999999998,8.129710383084856,0.13131092988392865
10.306424,8.159556798683877,0.1308687947082768
10.308812,8.189822523163475,0.1304116927257951
10.311196,8.213011010217185,0.1300463643502334
10.313592,8.238201598017312,0.12965393404642034
10.31598,8.261017998018685,0.12926970455164735
10.318359999999998,8.280529044661526,0.12890572180466492
10.320756,8.28579306865397,0.12869648195127023
10.323144,8.29371081969889,0.1284643290733933
10.325524,8.29906739148995,0.128284858849056
10.327924,8.302561632161455,0.1281253022198005
10.330308,8.298047469847296,0.1280654601684104
10.332692,8.290832358652416,0.12806229866059143
10.335088,8.281987233763457,0.12810060833332199
10.337476,8.276075375180692,0.12810440841231077
10.339856,8.272724695851787,0.1280577702822268
10.342256,8.270864260590098,0.1279767283921492
10.344644,8.266722185328275,0.12793276275704352
10.347028,8.265001519693447,0.12784556808172465
10.349424,8.253969198460837,0.1278474696092485
10.351812,8.245358286855225,0.12780630346805855
10.354196,8.232463634503057,0.1278257108411694
10.356592,8.215285241404336,0.1279054499422254
10.35898,8.202250819425306,0.12793149290042158
10.36136,8.188564771140218,0.12795384106259336
10.363764,8.178882924347967,0.12792755017546525
10.366152,8.168781768675135,0.12792025647613037
10.368531999999998,8.167061103040309,0.127831971838943
10.370928,8.165759746286062,0.12772461482470104
10.373316,8.159290705053726,0.1276524134940133
10.375696,8.149888397515195,0.12761384449024032
10.378092,8.14383866516344,0.12752208495134895
10.38048,8.139698485759485,0.12737592938202147
10.382864,8.140261355982663,0.12714803730764815
10.38526,8.132955592847035,0.12701250601170866
10.387648,8.125230520830824,0.12689634539056915
10.390044,8.115223808814477,0.1268173090044887
10.39244,8.103634304932292,0.12674349587495926
10.394828,8.090834096236613,0.1266909146952879
10.397208,8.080128536085963,0.12664352812679605
10.399603999999998,8.071145537428011,0.12658385309089965
10.401992,8.065515113956835,0.1264716411072757
10.404372,8.064447970485933,0.12628525358267892
10.406771999999998,8.061378726268616,0.12612284163104484
10.40916,8.061102978730634,0.12593389413791067
10.41154,8.058825130446234,0.12576950725424738
10.413936,8.05924823104255,0.12554955591175568
10.416324,8.05943901421339,0.12530717881868647
10.418704,8.062423294063565,0.12504006595020456
10.4211,8.073927833578605,0.1246893609603233
10.423488,8.091159136079176,0.1242826517532454
10.42588,8.11211510081886,0.12384458936146199
10.428284,8.131301282237603,0.12345259417268721
10.430672,8.146063953282933,0.12312633460043058
10.433052,8.16883502731393,0.12270566889481128
10.435452,8.187090043172898,0.12232103937587241
10.43784,8.20362249753917,0.12194642995741287
10.44022,8.225090318958053,0.12151909927330982
10.442616,8.245487205190297,0.12110641088842279
10.445004,8.26858504030326,0.12063995907498311
10.447384,8.286607738736748,0.12023536820447338
10.449784,8.305421833103157,0.1198303841416318
10.452172,8.323025222656065,0.11944947122051976
10.454552,8.343561878515171,0.11903796981078435
10.456948,8.363307138441357,0.1186314683829699
10.45934,8.384123333554182,0.1182125825804297
10.46172,8.403449284599787,0.11782799151168016
10.464124,8.423007553070873,0.11746755988558347
10.466512,8.438561620049121,0.11715233454560087
10.468892,8.447317988855202,0.11690440369879453
10.471292,8.451698069116112,0.11668427130053338
10.47368,8.452073947884188,0.11650712319454705
10.47606,8.455011005906123,0.11628519373459531
10.478464,8.460089934301335,0.11603578886171935
10.480852,8.464097927509906,0.11580112795925673
10.483232,8.469828482211174,0.11555645343407653
10.485627999999998,8.477421368032,0.11529644854663185
10.488012,8.479799347546491,0.11509830918665015
10.490396,8.483248262247622,0.11488666923051143
10.492792,8.487348803254813,0.11468067168535276
10.49518,8.493591214635279,0.11444765554862864
10.497564,8.498762690829105,0.11422845326334924
10.49996,8.49857949108974,0.11407504602103735
10.502344,8.500258622469934,0.11390785257847197
10.504727999999998,8.49686261717065,0.11379444786652286
10.507124,8.48811193593818,0.11374717219645729
10.509512,8.481363355452123,0.11367919722663004
10.511895999999998,8.476105019033287,0.11358035286434734
10.514288,8.47098645224131,0.11347541750253794
10.516676,8.470383943621366,0.1133401913366894
10.51906,8.470013752426897,0.11322721101101828
10.521456,8.472437057911762,0.11309283005503148
10.523844,8.47323034970255,0.11299530534077536
10.526228,8.476817138172672,0.11287699814886216
10.528624,8.481474861829431,0.11274657481166846
10.531012,8.489065851792388,0.11258982916223245
10.533392,8.499170799180959,0.11242482146849339
10.535787999999998,8.512069243248865,0.11223882700875715
10.538172,8.526690248809468,0.11204584513700554
10.540572,8.537307052877235,0.11189203123728814
10.542964,8.54978618806456,0.1117255314069913
10.545352,8.56533835918494,0.11152872022141475
10.547732,8.586896832544573,0.1112733728263439
10.550135999999998,8.605382269971148,0.11105123185220239
10.552524,8.631317031875952,0.11077547782290913
10.554904,8.666470901579917,0.11040622165020028
10.5573,8.700414066470387,0.1100575349911308
10.559688,8.734729318413194,0.10972909005306772
10.562068,8.7695564270352,0.10941070779672304
10.564464,8.803871678978005,0.10908454967254819
10.566852,8.837395534987895,0.1087583960754098
10.569232,8.867054959131808,0.10846409583528065
10.571636,8.900206728089362,0.1081248023769875
10.57402,8.931496165927358,0.10780163466506228
10.5764,8.959433028578577,0.10752068329193953
10.578808,8.985507560110237,0.10725410236512035
10.581192,9.006274637536949,0.10701432360762732
10.583576,9.027600793471104,0.10675398084783123
10.585972,9.048135553472337,0.10649605002631889
10.58836,9.073605680526184,0.10619739537814801
10.590739999999998,9.096002771646976,0.10592878387351626
10.593136,9.116257992394491,0.10568543389935439
10.595524,9.137863687582364,0.10542272233786526
10.597904,9.159748922023958,0.10514958382371323
10.6003,9.1775374071741,0.10488611959034472
10.602688,9.188528194152077,0.10467557456330782
10.605084,9.196213627771519,0.10447176878595078
10.60748,9.197660441726235,0.10429743538472153
10.609868,9.20087703900189,0.10408579498602084
10.612248,9.204233405904406,0.10386968217422496
10.614643999999998,9.210290721687636,0.10361094188198679
10.617032,9.218769447097866,0.1033195080097129
10.619412,9.222173035828623,0.10307254976631566
10.621811999999998,9.222643358253185,0.1028474377474173
10.624196,9.223672759185188,0.10260078093667585
10.62658,9.226704260863608,0.10233855945161063
10.628976,9.235462525527558,0.10203845792647792
10.631364,9.241147754258453,0.10176546830669052
10.633748,9.244830882242931,0.10150883065064101
10.636152,9.243858182428518,0.10127971894518187
10.638535999999998,9.243444561121546,0.10102928957093418
10.64092,9.23851488164254,0.10080000878425709
10.643316,9.227718669551145,0.10061350093552444
10.645704,9.217201996713472,0.1004163134003089
10.648084,9.206126245368356,0.10023971326631195
10.65048,9.198635386635495,0.1000469885858842
10.652868,9.194589650888025,0.09984315135541016
10.655252,9.19426857737967,0.09961728180919102
10.657648,9.193528194990733,0.0994078199229949
10.660036,9.1903664029748,0.09922989706412876
10.662416,9.185574597264784,0.09908348036359131
10.664815999999998,9.181294648233969,0.098947623937431
10.667204,9.17929633920329,0.09878561746380918
10.669584,9.181442001292305,0.09858763205363738
10.671988,9.187591864874156,0.09835987406877247
10.674376,9.189737526963173,0.09816281354742996
10.676756,9.188158526813076,0.0979862726380755
10.679151999999998,9.192585828902228,0.09776539925870195
10.681536,9.199434540618377,0.09751466141874962
10.683916,9.209356288267582,0.09723931995391401
10.686316,9.221931762969263,0.09695567609415345
10.6887,9.238371669536917,0.09664683755020126
10.6911,9.257744842410766,0.09631793193059139
10.693492,9.276047080097976,0.09599959630386136
10.69588,9.295839561852407,0.09565618714973201
10.69826,9.314189021367861,0.09530860723832787
10.700656,9.332026624204117,0.0949516473031
10.703043999999998,9.348001895920817,0.09460375465206464
10.705428,9.361043901331321,0.09427494873606045
10.707824,9.374505215622406,0.09393041421130122
10.710212,9.388106299540352,0.09358116049607063
10.712596,9.401195526779096,0.09322232196211276
10.714992,9.414936380323903,0.09287022230335992
10.71738,9.424673032375873,0.09254713202401353
10.71976,9.43012594368129,0.09226343439624327
10.722156,9.437720725359986,0.09196038204220425
10.724544,9.444104802225182,0.09167123988058597
10.726924,9.441409540918071,0.09144748543422483
10.729323999999998,9.436432639610823,0.0912477997815495
10.731708,9.429313867930299,0.09106694192401274
10.734104,9.419122060316722,0.09090925147981967
10.736504,9.4107925838227,0.09074301133057353
10.738888,9.402323337701814,0.09058166463453438
10.741272,9.394645487513847,0.09042083617542418
10.743668,9.386827867699022,0.09026486915321306
10.746056,9.378870478257337,0.09011374372880207
