Time,Force,Position
9.863599999999998,0.0,0.0
9.865996,0.005140544752857061,0.0
9.868384,0.009769232826516433,0.0
9.870767999999998,0.017331187206370974,0.0
9.873164,0.02768663826556048,0.0
9.875552,0.042977456377362,0.0
9.877948,0.06041014486244059,0.0
9.880344,0.0787739989072975,0.0
9.882736,0.09327342108618092,0.0
9.885116,0.10870400882484266,0.0
9.88752,0.1241345965635044,0.0
9.889904,0.14049634986194445,0.0
9.892284,0.15406460648104955,0.0
9.894688,0.16442005754023906,0.0
9.897072,0.1758464437860671,0.0
9.899452,0.1831288589122012,0.0
9.901848,0.19134243959811364,0.0
9.904236,0.19555181879119238,0.0
9.906616,0.2025546946636061,0.0
9.909008,0.2103489664689379,0.0
9.911396,0.21600136790099264,0.0
9.913776,0.2108608231481356,0.0
9.91618,0.20623213507447624,0.0
9.918568,0.19867018069462167,0.0
9.920948,0.18831472963543217,0.0
9.923344,0.17302391152363067,0.0
9.925732,0.15559122303855205,0.0
9.928112,0.13722736899369517,0.0
9.930516,0.12272794681481178,0.0
9.932904,0.10729735907615004,0.0
9.935284,0.09244403609007079,0.0
9.937688,0.07880141791749032,0.0
9.940076,0.07074579310357976,0.0
9.942456,0.06604274347644501,0.0
9.944859999999998,0.05933759310289338,0.0
9.947244,0.0567764138490357,0.0
9.949624,0.05314429940853947,0.0
9.952028,0.05351638646087696,0.0
9.954415999999998,0.05109497683387948,0.0
9.956796,0.04774240164710367,0.0
9.9592,0.0454607616469664,0.0
9.961588,0.04990245826552241,0.0
9.963968,0.05234205413766157,0.0
9.966372,0.0577149163159959,0.0
9.968756,0.06522964886760729,0.0
9.971139999999998,0.07167344623258017,0.0
9.973536,0.0738335028509989,0.0
9.97592,0.0739914587230008,0.0
9.978304,0.0739914587230008,0.0
9.980708,0.0739914587230008,0.0
9.983092,0.07341419397041828,0.0
9.985471999999998,0.0706950588445587,0.0
9.987868,0.06518242703936415,0.0
9.990256,0.059530025607309404,0.0
9.992636,0.055478602286232546,0.0
9.995031999999998,0.05249811415179422,0.0
9.997419999999998,0.048865999711298,0.0
9.9998,0.04844669083071737,0.0
10.002204,0.04537365489766199,0.0
10.004587999999998,0.04365109340496556,0.0
10.006972,0.04621227265882325,0.0
10.009367999999998,0.05063578303223758,0.0
10.011755999999998,0.060274199711984354,0.0
10.014136,0.06590841489889741,0.0
10.016531999999998,0.07126309083209006,0.0
10.01892,0.0748952052725863,0.0
10.0213,0.08602386601955224,0.0
10.023699999999998,0.09314832527368447,0.0
10.026087999999998,0.09856840928026195,0.0
10.028468,0.10412826291369963,0.0
10.030864,0.108756950987359,0.0
10.033252,0.11631890536721357,0.0
10.035636,0.12187875900065126,0.0
10.038032,0.12636767744745042,0.0
10.04042,0.1269739777831344,0.0
10.0428,0.12622980367845946,0.0
10.045203999999998,0.1262770255067026,0.0
10.047591999999998,0.12390283770794827,0.0
10.049972,0.1249737728945868,0.0
10.052376,0.12390283770794827,0.0
10.054759999999998,0.11797089702217312,0.0
10.05714,0.10910569003020278,0.0
10.059539999999998,0.09702767747831684,0.0
10.061927999999998,0.08602060011306942,0.0
10.064308,0.07315119162826537,0.0
10.066704,0.0630752798227963,0.0
10.069092,0.049786562457411615,0.0
10.071472,0.04415234727049854,0.0
10.073868,0.04131162876292043,0.0
10.076256,0.040053702121178536,0.0
10.078651999999998,0.037864609919658315,0.0
10.081048,0.03353364734486104,0.0
10.083436,0.03255525995683957,0.0
10.085816,0.03758317480806865,0.0
10.08822,0.044101333726516895,0.0
10.090604,0.04982809671204703,0.0
10.092987999999998,0.0567655645110759,0.0
10.095384,0.05676556451107591,0.0
10.097772,0.05418619901207653,0.0
10.100155999999998,0.05253799907285549,0.0
10.102552,0.05253799907285549,0.0
10.104936,0.05253799907285549,0.0
10.10732,0.06460463647752597,0.0
10.109716,0.09123937004094754,0.0
10.112104,0.1342119830840597,0.012127756623360372
10.114484,0.18812247370329602,0.023608393430749636
10.116884,0.25292362007041325,0.034887299633095614
10.119267999999998,0.3310639715376412,0.0456763796969603
10.121652,0.42684545509667554,0.055857714324016705
10.124047999999998,0.5353799255231475,0.06581943469514537
10.126435999999998,0.6617425194965292,0.07546245956242188
10.128816,0.797692516605676,0.08513793982446463
10.131215999999998,0.9449052565150412,0.0947876946165561
10.133603999999998,1.0968625803061767,0.10455966441283437
10.135984,1.2650180139501428,0.11422447460343135
10.138384,1.4490466922228444,0.12368969099325708
10.140771999999998,1.6366564713920613,0.13338936543930213
10.143148,1.8452146318694862,0.14290558516171342
10.145544,2.0700363102731263,0.15235440667501557
10.147932,2.3073786581187266,0.1617499008878724
10.150327999999998,2.5613875423838506,0.1707989157174589
10.152724,2.8232178381795388,0.1796804769922172
10.155107999999998,3.0672547335850258,0.1887149975477726
10.157488,3.2975149287646803,0.19773702974468824
10.159892,3.513299575584201,0.19458363110733531
10.16228,3.7198689063202943,0.19204170954384472
10.16466,3.9147561853755874,0.18971358064039204
10.167064,4.0928409501002365,0.18786591962750865
10.169452,4.24252990489632,0.18686042159940405
10.171831999999998,4.376440058720153,0.18607720310814535
10.174228,4.490380218623798,0.18574136823461396
10.176616,4.5910083131525665,0.1854661112535957
10.178995999999998,4.6780920248809785,0.18524387478369728
10.1814,4.753353915301732,0.18498028961513657
10.183784,4.816514445161105,0.18477890725526683
10.186168,4.871902681176026,0.18460023548920856
10.188564,4.931670997451857,0.18394764737816893
10.190952,4.977009091337928,0.1835008129765839
10.193331999999998,5.0094544287297005,0.18309622169124595
10.195728,5.033103758918628,0.18265010879501697
10.198116,5.041809114180728,0.18251529945274336
10.200496,5.04469515865868,0.18249093970568958
10.202896,5.057079850189518,0.18216959078804815
10.205279999999998,5.066858036496125,0.18185006352698846
10.207676,5.0709094598172015,0.1816786904763389
10.210072,5.069606207205085,0.18168003558192067
10.212456,5.070956681645445,0.18162264593558533
10.21484,5.073051330190479,0.18160923405444027
10.217236,5.090276945117443,0.1812461670789314
10.21962,5.111691857134475,0.18085712838895243
10.222,5.141347489562652,0.1802625078309111
10.224404,5.177661050536138,0.1794896764292548
10.226792,5.21462623781568,0.1787106819454256
10.229168,5.2565267921478345,0.17778815646020538
10.231564,5.297263863494734,0.17686921031489136
10.233952,5.328177422564654,0.1761891210288916
10.236348,5.350990030850289,0.17571723542492068
10.238744,5.373290782456725,0.175233509162421
10.241132,5.388281979211795,0.17491259720231378
10.243508,5.400619448914391,0.17465427329797859
10.245912,5.41533110641574,0.1743676655581211
10.2483,5.434419052462261,0.1740052568744337
10.25068,5.449967431866903,0.17381787063326096
10.253084,5.469844877988475,0.1736016568204336
10.255472,5.495960943774771,0.17325615623952964
10.257852,5.529014477360098,0.17272602548483773
10.260248,5.565652903557677,0.17213942160200957
10.262632,5.60615576162123,0.1714632643217535
10.265012,5.642561870393332,0.17086530226911967
10.267408,5.6731486683812875,0.1703546000893573
10.269792,5.701221508943627,0.16989388054323368
10.272188,5.727432018386411,0.16948227994206658
10.274588,5.755924167829333,0.16900455889058694
10.276976,5.782553986152697,0.16857189369159914
10.279356,5.810347287461317,0.1681561223382194
10.281752,5.839815928434391,0.16775262578120156
10.28414,5.8692373475792206,0.16740093591997748
10.28652,5.902103889709445,0.166996569609644
10.288923999999998,5.946004648930146,0.16637038852808186
10.291308,5.993070991882524,0.16572024824969825
10.293688,6.035481507036009,0.16516899301149426
10.296084,6.0718857199502425,0.16476947627813893
10.298472,6.10712644987922,0.16435558283095866
10.300852,6.138502747942224,0.16402474096168868
10.303248,6.167085549325895,0.16374962102580665
10.305632,6.198089760336562,0.16341325156718156
10.308028,6.223367208361698,0.163197597847209
10.310424,6.250506987506391,0.16295597097872297
10.312812,6.277599544822842,0.1627626091237639
10.315192,6.310139325871102,0.1624749600518458
10.317588,6.341328632479002,0.16223259757809727
10.319976,6.3735416524453,0.16201454173811536
10.322356,6.40906002577013,0.1617660527615743
10.324748,6.445090255774158,0.16152978143537897
10.327136,6.4803290898452675,0.1613044394899007
10.329532,6.523623548730289,0.1608781410744664
10.331928,6.566685690189832,0.16042497945147335
10.334316,6.609515514223899,0.159955799832619
10.336696,6.650250689712927,0.15950575736270312
10.339092,6.685026784790952,0.15913163787969425
10.34148,6.720501728003277,0.15871426807948655
10.34386,6.755464814536403,0.15828578961972492
10.346263999999998,6.79587512480134,0.157780225934784
10.348648,6.84150034137261,0.1571701207902196
10.351028,6.890478133130654,0.15648632572012844
10.353424,6.932518457089671,0.15593943155314138
10.355812,6.9794941481013,0.15531042033451173
10.358192,7.021674241687177,0.15476975733451645
10.360588,7.061899456354881,0.15422320957022534
10.362976,7.102823519156884,0.15364670048723125
10.365372,7.14486573897377,0.15300993391174456
10.367764,7.184720762447005,0.15234833839865736
10.370152,7.218476935882371,0.15176715395556636
10.372532,7.254282431892397,0.1511184830067467
10.374935999999998,7.2890642145440285,0.15045450882707193
10.377323999999998,7.316256903090572,0.14991476789778327
10.379704,7.3438689005176965,0.1493550407094024
10.382103999999998,7.3682680923849055,0.14886073469839872
10.384491999999998,7.389594248319059,0.14842426204045628
10.386872,7.4178578720522435,0.1478813113403145
10.389276,7.448123596531842,0.1473093322397843
10.391664,7.480810730638441,0.14668613579742246
10.394044,7.510332281013365,0.14609153555396262
10.396439999999998,7.533754981350421,0.14556343240094796
10.398824,7.551218601276469,0.14509189024197733
10.401204,7.566727342284345,0.14460926348552328
10.403607999999998,7.573343736575017,0.14422717190272386
10.405995999999998,7.580379439746271,0.1438233180631362
10.408376,7.591698883664079,0.14334439408995034
10.41078,7.599433434969634,0.1429087504792599
10.413168,7.6053056551556315,0.14249794079139394
10.415548,7.6098274009012705,0.1421207725619366
10.417944,7.615420081833549,0.14172447279871986
10.420331999999998,7.616589252392414,0.14141224324182824
10.422712,7.613102595152386,0.14115692583202955
10.425107999999998,7.605239649367185,0.14094439950889454
10.427495999999998,7.594583206902651,0.14076697115281456
10.429876,7.583275138132058,0.1405867865157114
10.432272,7.573597083055544,0.14035823206794942
10.434656,7.55395574607519,0.1402425756487192
10.437052,7.526073688683692,0.14022523531223158
10.439448,7.493768120918778,0.14029092625437306
10.441836,7.462253949086782,0.14034885150523868
10.444216,7.434464439493898,0.1403591202542825
10.446611999999998,7.40984051363269,0.14035211390229005
10.448999999999998,7.388382171503151,0.1403280955270853
10.45138,7.3730226794114815,0.14024425760691497
10.453776,7.359525518439368,0.1401363833174907
10.456164,7.340161824854865,0.14011124600596458
10.458548,7.318935800150805,0.14010881587591578
10.460944,7.297290466566163,0.14012784674915063
10.463328,7.278019320780277,0.14013355014108586
10.465708,7.258748174994388,0.1401384919193359
10.468115999999998,7.237382380663465,0.14014219694446353
10.4705,7.223186371557051,0.14006754996238568
10.47288,7.218813874727616,0.13988767350972264
10.475283999999998,7.215884400137156,0.13970630614789672
10.477671999999998,7.215236565546835,0.13948005183615836
10.480052,7.213098486889295,0.13929482893757242
10.482452,7.2152894749486824,0.13910527662370326
10.484836,7.228095371217969,0.1388058952824126
10.48722,7.244533381927752,0.13842738165919394
10.489615999999998,7.2541736944653685,0.13814342250809386
10.492003999999998,7.261252827749127,0.13792001647242383
10.494384,7.269263126592661,0.137685689755832
10.49678,7.278623899876557,0.13741866028708535
10.499168,7.284539550175059,0.1371831037962587
10.501563999999998,7.287382164540507,0.13699699867695214
10.50396,7.294321528197405,0.13678296589418507
10.506348,7.306288806705531,0.13653039318167165
10.508728,7.319047481146575,0.13627340755792156
10.511124,7.327429867042449,0.13605832750986277
10.513512,7.333670382565048,0.1358802829003577
10.515895999999998,7.3407948418191795,0.13572924544876958
10.518292,7.346988135513533,0.1355915424065461
10.52068,7.348665371035855,0.13550426117297434
10.52306,7.3527640161851755,0.13536606762553063
10.525455999999998,7.355651956520997,0.13525398549036946
10.527843999999998,7.359051753536016,0.1351527489154096
10.530224,7.365152499431753,0.1349868869712374
10.532619999999998,7.369018827155597,0.1348270815413914
10.535008,7.369672349319525,0.13472075674410794
10.537404,7.3780547352153985,0.13451406827043141
10.5398,7.388439221857689,0.1342786339321433
10.542188,7.3991032477536995,0.13403048751785887
10.544567999999998,7.411350065515547,0.13377780333617967
10.546964,7.4281129414494265,0.1334808063045354
10.549352,7.445015587010165,0.13317577899288024
10.551732,7.458612879212372,0.13289184001370657
10.554136,7.467554343615686,0.13266073815683865
10.55652,7.477566743205639,0.13241274860666447
10.5589,7.493305905781122,0.1320958153149662
10.561296,7.515842766528775,0.13169500727088676
10.563684,7.5497406054488705,0.13113437588253943
10.566064,7.577771911756575,0.13064708453905513
10.568459999999998,7.603521578064143,0.13019933499676614
10.570847999999998,7.627781000304491,0.12979251217242216
10.573244,7.655625315157093,0.12935682401467777
10.575648,7.681886838143859,0.12892737721652386
10.578036,7.704935555570708,0.12854987779499663
10.580416,7.725702632997422,0.12821468814606685
10.582812,7.7549899700889995,0.12778976717228024
10.5852,7.780273105687743,0.12741912171847442
10.58758,7.8059755501670685,0.1270307839274097
10.589984,7.832189851325592,0.1266561416784878
10.592372,7.854539720618141,0.12632743287224027
10.594752,7.8751670284179935,0.12601399480885148
10.597148,7.897936206591123,0.1256698991672847
10.599536,7.923359111816728,0.12530481277121766
10.601916,7.951715283348528,0.12490498925517024
10.604312,7.981142390066966,0.12449278952682308
10.6067,8.008707165665847,0.1241031677669209
10.60908,8.028682847159642,0.12379395606812321
10.611472,8.036226615294355,0.12365175649418497
10.61386,8.052290643093931,0.12342485752742396
10.61624,8.071427706826565,0.1231584116310064
10.618636,8.091263618693501,0.1228616801459669
10.621023999999998,8.103370666828486,0.12264728967508914
10.62342,8.115198175709754,0.12244493278733358
10.625816,8.129027785337437,0.12221886334088425
10.628204,8.142345538285921,0.12198235749235037
10.630584,8.145140930823127,0.12185510089756069
10.63298,8.153011460039803,0.12166678154855697
10.635364,8.158460579629484,0.12152101461616326
10.637747999999998,8.160976432912967,0.12140727401292475
10.640144,8.164702991009948,0.1212722894401629
10.642532,8.168010240226351,0.12115665630567166
10.644911999999998,8.17276051168173,0.1210438758829257
10.647316,8.1833773157495,0.12087122411352971
10.649704,8.194925285377046,0.12069156837036757
10.652079999999998,8.204471154258174,0.12053513560622538
10.654488,8.212526779072086,0.12041151585721642
10.656872,8.226169397244666,0.12023993187210788
10.659252,8.242233425044244,0.12002590360042666
10.661656,8.253781394671789,0.11984819136236308
10.664044,8.263327263552918,0.11969267869123282
10.666424,8.272314053926607,0.11956242443200099
10.66882,8.288378081726185,0.11935229592459913
10.671204,8.309796785458955,0.11907419191754699
10.673588,8.330004784378229,0.11881655060176896
10.675984,8.352586971096255,0.11855468362718431
10.678368,8.379033589680253,0.11825347593667511
10.680764,8.40040507158478,0.11801180371602975
10.68316,8.425920524609001,0.11772220115708143
10.685544,8.453065991327303,0.11739484258949368
10.687924,8.482353328418881,0.11704285003768267
10.690328,8.509406247338566,0.11668971240481975
10.692716,8.533153812899714,0.11635106823815788
10.695096,8.546239248422726,0.11611543197779063
10.697499999999998,8.558673057639677,0.11587703107964227
10.699888,8.571246636483487,0.11563309487926439
10.702268,8.58465883308846,0.11535396520250946
10.704664,8.596488237827595,0.11507992438851734
10.707052,8.61031974331315,0.1147858379742024
10.709432,8.622149148052285,0.11451175463527455
10.711828,8.637331127978197,0.11419340801838986
10.714216,8.649999150478497,0.11388490837494439
10.716596,8.655729705179764,0.11364459257751154
10.719,8.653451856895366,0.11348557240058288
10.721384,8.654014727118545,0.11327185729082115
10.723768,8.65220340954297,0.11306231077443442
10.726164,8.651602796780892,0.1128344187871817
10.728552,8.650490327339618,0.11259551413476614
10.730932,8.644861799726316,0.11238627849270443
10.733328,8.638953732859287,0.11218859756787257
10.735716,8.627551220432208,0.11206033160728214
10.738096,8.617871269497826,0.11192356909859268
10.740496,8.608842944869501,0.11179121468287595
10.742884,8.603167195427954,0.11161405996232979
10.745264,8.595629114866849,0.11145074239679159
10.747668,8.587299638372826,0.11128829633529488
10.750056,8.576828291505525,0.11115090771930514
10.75244,8.566217175011365,0.11101920091866684
10.754836,8.559098403330841,0.11083852954181893
10.757224,8.554121502023595,0.11063260425883492
10.759604,8.544860859969793,0.11047633712703579
10.762,8.538533484222187,0.11029409568713607
10.764388,8.53914357627361,0.11004792432088302
10.766768,8.544968574631364,0.10974477664455312
10.769172,8.543157257055789,0.10953375125212442
10.77156,8.540135234666714,0.10934042254647736
10.77394,8.536042277091001,0.10915973937619143
10.776336,8.533671881007987,0.10897124833722766
10.778724,8.533024046417665,0.10877498956414573
10.781104,8.532376211827346,0.10857884158993764
10.783504,8.53722282279708,0.108314930438339
10.785888,8.54407153451323,0.1080332310594827
10.788272,8.550268619923322,0.10774655997110968
10.790668,8.55776895794553,0.10747023226698836
10.793052,8.564849987087158,0.10721072917084953
10.795448,8.573653577721482,0.10694449869634293
10.797847999999998,8.587252765781557,0.10664134674587178
10.800232,8.59712729160252,0.10636354055393303
10.802612,8.598434335930376,0.10618306169057246
10.80502,8.599322071377648,0.10601983988466498
10.807403999999998,8.606495648317894,0.1057910389287617
10.809788,8.612458520444639,0.10558046328109008
10.812183999999998,8.615348356638329,0.10540077752945018
10.814571999999998,8.61888981913808,0.10522716482097023
10.816952,8.631790159063854,0.10495946257828666
10.819347999999998,8.647763534922683,0.10466244056651387
10.821736,8.662805745221736,0.10437164949393823
10.82412,8.679710286640343,0.10407025763849567
10.826515999999998,8.69768576324559,0.1037585460557067
10.828903999999998,8.715661239850839,0.10344749398753371
10.831284,8.731494846082807,0.10316115802161024
10.833683999999998,8.744255416381723,0.10290434636330215
10.836071999999998,8.760600879292888,0.10263132273230574
10.838452,8.777365651084638,0.1023430351800526
10.840848,8.795480897316745,0.10203257766111322
10.843236,8.811594042802437,0.10173948351493413
10.845616,8.82677602272835,0.10145490400091176
10.848012,8.842609628960318,0.10117393969288362
10.8504,8.864309767804679,0.10084720741966981
10.852784,8.888291546649175,0.10049431921095815
10.85518,8.90705841918734,0.10019374268297353
10.857568,8.923962960605948,0.09990373226631942
10.859963999999998,8.939936336464777,0.0996191613324382
10.86236,8.951905510830775,0.09936792005585843
10.864748,8.960522110009995,0.09915696916138965
10.867128,8.970861270681914,0.09894219084731744
10.869528,8.981991827286748,0.09872744086931971
10.871916,8.992051448704945,0.09852450357912322
10.874299999999998,9.000900365309642,0.09833813397095052
10.876696,9.010820217100981,0.0981418767190347
10.879079999999998,9.020740068892316,0.097945975489514
10.88146,9.030659920683654,0.09774973231267405
10.883864,9.037786275795655,0.09757004619149309
10.886252,9.043841695721019,0.09740131623784047
10.888632,9.053482008258634,0.09721886404386228
10.891036,9.066055587102445,0.0970166605142893
10.893424,9.076207756319258,0.09684605444713967
10.895803999999998,9.09315762370824,0.09663140483964082
10.898204,9.109316095164305,0.0964177622271936
10.900588,9.122401530687315,0.09622979310839502
10.902971999999998,9.136138592516382,0.09604706340451426
