Time,Force,Position
9.827108,0.05141960034170124,0.0
9.829504,0.039911110890985965,0.0
9.831888,0.030544491813547747,0.0
9.834268,0.021177872736109524,0.0
9.836676,0.011019857725753191,0.0
9.83906,0.005517670514288461,0.0
9.84144,0.0012261881163224719,0.0
9.843844,0.00014751127827207557,0.0
9.846232,0.0,0.0
9.848612,0.001497985718631027,0.0
9.851008,0.0045787633030982735,0.0
9.853396,0.0047262745813703485,0.0
9.855776,0.007807052165837596,0.0
9.858172,0.0078070521658375955,0.0
9.86056,0.0078070521658375955,0.0
9.862956,0.007807052165837596,0.0
9.865352,0.007807052165837596,0.0
9.86774,0.008606189750167572,0.0
9.87012,0.008606189750167572,0.0
9.872516,0.009265557707637338,0.0
9.874904,0.009265557707637338,0.0
9.877284,0.009265557707637338,0.0
9.87968,0.009265557707637338,0.0
9.882068,0.009265557707637338,0.0
9.884448,0.009265557707637338,0.0
9.886848,0.009265557707637338,0.0
9.889236,0.009265557707637338,0.0
9.891616,0.009265557707637338,0.0
9.894012,0.009265557707637338,0.0
9.8964,0.009497875133114607,0.0
9.89878,0.009497875133114607,0.0
9.90118,0.017366508491921798,0.0
9.903568,0.01964814849205907,0.0
9.905964,0.026872897196220234,0.0
9.90836,0.0342374155272416,0.0
9.910748,0.03973960273870633,0.0
9.913132,0.04552132920389148,0.0
9.915528,0.0525060188311635,0.0
9.917916,0.06629614828201605,0.0
9.9203,0.0775645786558422,0.0
9.922696,0.08828167217363937,0.0
9.925084,0.09871922643771613,0.0
9.927468,0.10701491032851582,0.0
9.929864,0.11437942865953718,0.0
9.932248,0.12160417736369833,0.0
9.934628,0.12761822125436076,0.0
9.937032,0.13270109958524487,0.0
9.93942,0.1340593156770157,0.0
9.9418,0.13620892770170462,0.0
9.944204,0.13447862455759632,0.0
9.946588,0.13139784697312903,0.0
9.948972,0.12338170233604981,0.0
9.951376,0.11801928475144528,0.0
9.953764,0.11079453604728412,0.0
9.956144,0.10343001771626276,0.0
9.95854,0.09792783050479803,0.0
9.960928,0.09214610403961287,0.0
9.963308,0.08436227682801087,0.0
9.965704,0.07057214737715833,0.0
9.968092,0.0586443490458624,0.0
9.970472,0.04792725552806524,0.0
9.972868,0.03763721254226056,0.0
9.975252,0.03055997511637147,0.0
9.977636,0.02641600399667756,0.0
9.980032,0.023482737690482387,0.0
9.98242,0.024972981757701553,0.0
9.9848,0.03312115437022916,0.0
9.987196,0.047927255528065225,0.0
9.989588,0.057937759260149484,0.0
9.991968,0.06888717020342393,0.0
9.994364,0.07890541558692005,0.0
9.996752,0.09106553134369323,0.0
9.999148,0.1022944815406881,0.0
10.001544,0.11352343173768296,0.0
10.003928,0.12275028118826098,0.0
10.006308,0.13397923138525583,0.0
10.008704,0.1459995775151688,0.0
10.011092,0.16188435551105523,0.0
10.013472,0.17469609757388635,0.0
10.015876,0.18750783963671744,0.0
10.018264,0.1983174809531317,0.0
10.020644,0.20911938061813407,0.0
10.023044,0.21885034509649792,0.0
10.025432,0.22457710808202805,0.0
10.027812,0.23123503662733652,0.0
10.030208,0.2336092244260909,0.0
10.032596,0.22867385737347884,0.0
10.034976,0.21852358401453437,0.0
10.03738,0.21545054808147898,0.0
10.039764,0.2197342888280331,0.0
10.042144,0.22588036069414383,0.0
10.044548,0.228813627000339,0.0
10.046936,0.23188666293339436,0.0
10.049316,0.2377531955457847,0.0
10.051712,0.24469066334481357,0.0
10.054096,0.24776369927786893,0.0
10.056476,0.25111627446464474,0.0
10.058872,0.24967325222566872,0.0
10.061256,0.2534451362930251,0.0
10.063652,0.25521491961396475,0.0
10.066048,0.25884703405446097,0.0
10.068432,0.26019750849481993,0.0
10.070816,0.26154798293517884,0.0
10.073212,0.2647607884950945,0.0
10.075596,0.26382962293531614,0.0
10.077992,0.2611758958828414,0.0
10.080388,0.25889425588270415,0.0
10.082776,0.26103612625598116,0.0
10.085152,0.2586147166289837,0.0
10.087556,0.24697419920282007,0.0
10.089944,0.23468205547059853,0.0
10.092324,0.22038781099196017,0.0
10.09472,0.20767635837915802,0.0
10.097104,0.19138001315410277,0.0
10.0995,0.17680622942174398,0.0
10.101896,0.1630238416223033,0.0
10.104284,0.14765092030561452,0.0
10.106664,0.13320916454870407,0.0
10.10906,0.11662553841851656,0.0
10.111448,0.1020440130347459,0.0
10.113828,0.08760225727783545,0.0
10.11622,0.07530237189420205,0.0
10.118608,0.06300248651056867,0.0
10.121004,0.05098988203206755,0.0
10.1234,0.04219008311348203,0.0
10.125784,0.0377665727400677,0.0
10.128168,0.03655586792656896,0.0
10.130572,0.03027002643359799,0.0
10.13296,0.024822802701788268,0.0
10.13534,0.02137767971639541,0.0
10.137744,0.01751324785042192,0.0
10.140128,0.016861621544364016,0.0
10.142508,0.015558368932248219,0.0
10.144912,0.014759231347918242,0.0
10.1473,0.013168697830670156,0.0
10.14968,0.012649099500060601,0.0
10.152076,0.012649099500060601,0.0
10.154464,0.014798711524749528,0.0
10.156844,0.018019258736076984,0.0
10.15924,0.02310213706696108,0.0
10.161624,0.027905476144124763,0.0
10.164008,0.03377975040792697,0.0
10.166404,0.03872285911195086,0.0
10.168792,0.043658226164562886,0.0
10.171172,0.047522658030536374,0.0
10.173568,0.04901290209775554,0.0
10.175956,0.04850104541855784,0.0
10.178336,0.05492665653838902,0.0
10.18074,0.06414576433755517,0.0
10.183128,0.07443580732335985,0.0
10.185508,0.08579678549580305,0.0
10.187912,0.09808892922802458,0.0
10.1903,0.10809943296010882,0.0
10.19268,0.1196079224108241,0.0
10.195076,0.1291143111151225,0.0
10.19746,0.13941209575233907,0.0
10.19984,0.14784754926999896,0.0
10.202244,0.1521312900165531,0.0
10.204632,0.15040872852385667,0.0
10.207012,0.14532585019297256,0.0
10.209408,0.1420204968344399,0.0
10.211796,0.1405774745954639,0.0
10.214176,0.14299888422246138,0.0
10.216572,0.14434935866282034,0.0
10.21896,0.14355796272990223,0.0
10.221356,0.143418193103042,0.0
10.223748,0.14234725791640346,0.0
10.226136,0.13741189086379144,0.0
10.22852,0.1312658189976807,0.0
10.230916,0.12525951675843014,0.0
10.233304,0.11739088339962296,0.0
10.235684,0.10831154522731705,0.0
10.23808,0.10458688298820379,0.0
10.240468,0.09923220705501112,0.0
10.242844,0.1020257037343461,0.0
10.24524,0.10523850929426166,0.0
10.247628,0.1124082945187678,0.0
10.250028,0.12707273019187443,0.0
10.252424,0.1591478763891795,0.0
10.254812,0.20831471368013124,0.005223702624277709
10.257192,0.27176236622470173,0.011240021069652932
10.259596,0.3569479001525294,0.017400588774267086
10.26198,0.46033364467960447,0.02361829287364277
10.264364,0.5788937857011145,0.03002211239716398
10.26676,0.7086241217242261,0.03679659965744659
10.269148,0.8515720794657297,0.04391841081206691
10.271528,1.0182600193369074,0.05100756078768412
10.273924,1.2007267601803349,0.058200801443432405
10.276312,1.3966453360255013,0.06542727880517372
10.278692,1.6051771291112447,0.07276770119905959
10.281088,1.8306984279827367,0.08016317650306341
10.283476,2.0760027293193124,0.08754197425197945
10.28586,2.3370858316281375,0.0949033552936035
10.288256,2.614042178565699,0.10225370414169598
10.290644,2.8961624182656114,0.10968455355861356
10.293024,3.189126091885161,0.11723089811677238
10.29542,3.4989867234918424,0.12475314284170122
10.297808,3.824582725958269,0.13212670488060435
10.300192,4.145989431334628,0.13946473530630216
10.302588,4.4529659143212275,0.14159161933323902
10.304976,4.744303365962436,0.14291820798851596
10.307356,5.005662215809243,0.14416367667402552
10.309756,5.240160825765078,0.14544099819345457
10.31214,5.460695744039977,0.1465162502769244
10.314536,5.676346308806244,0.1471430839990018
10.316932,5.880037178495863,0.1473600337560987
10.31932,6.055611777510635,0.14767371392653494
10.3217,6.213545244433601,0.14790243639251519
10.324096,6.356024775608412,0.148119586554835
10.326484,6.481747118422951,0.14829451390724813
10.328864,6.584473653212492,0.14853988345921332
10.331268,6.66620648072345,0.14884191846578745
10.333656,6.7277369968887415,0.1491932173011092
10.336036,6.773534038052159,0.14957249355721683
10.338436,6.803318064959981,0.14999274153499853
10.34082,6.823701680187142,0.1502594747294169
10.3432,6.823371127389441,0.1505727102402517
10.345604,6.793292394364945,0.1511874076436507
10.347992,6.751202952719818,0.1519041827809035
10.350372,6.704225365850321,0.15267655123692744
10.352768,6.650310311181795,0.15359882306210357
10.355156,6.598909213938884,0.15451267587208742
10.357536,6.55481767154734,0.15531998955911439
10.359932,6.507885410648217,0.15622812553974036
10.36232,6.4602543016147935,0.15715923279436983
10.364716,6.414950158551881,0.15809935631731883
10.36712,6.377607196646392,0.1589313973516946
10.369504,6.340776091420103,0.15978064740435818
10.371884,6.3061794043657065,0.16061922348507382
10.37428,6.281313681789673,0.1612721869892651
10.376668,6.271905686677534,0.1616407919695496
10.379048,6.263056770072838,0.1619768634747246
10.381452,6.255558327908499,0.1622722929318692
10.38384,6.249270590557659,0.1625345850387824
10.38622,6.24982777320723,0.1626259251408804
10.388616,6.251735430297161,0.16267532332766937
10.391004,6.254434483320009,0.1627178399335793
10.393388,6.264862400074803,0.16261458842328813
10.395784,6.280597770934548,0.16243080237986207
10.398168,6.304294322951717,0.16212763028911223
10.400548,6.339304631313087,0.16161571860507087
10.402944,6.381112637846628,0.16097430920126232
10.405328,6.424550658074244,0.16028342431377315
10.407724,6.476136850914389,0.1594244937474663
10.41012,6.521996280769003,0.15867161282353162
10.412508,6.565761062078585,0.15793468350494183
10.414888,6.606500029283356,0.1572238198510744
10.417284,6.648869010182204,0.1564529066829208
10.419671999999998,6.6895626514165984,0.15566091089839912
10.422052,6.721316724105548,0.15504789071594843
10.424448,6.743479601942993,0.15461569879913384
10.426836,6.768715515713494,0.15412429486687637
10.429215999999998,6.794230968737716,0.15361783351274633
10.431612,6.816673385828881,0.15317108982216784
10.434,6.841210451465081,0.15272895233160905
10.436396,6.859601445235173,0.15241003100105774
10.438792,6.880553618259119,0.15202224197963926
10.44118,6.904578827216122,0.15157688157444163
10.44356,6.924087978001095,0.15119385930800733
10.445964,6.941222940987313,0.1508349899969257
10.448352,6.955332089868718,0.15049791105167268
10.450728,6.961200518338979,0.15027918400404355
10.453124,6.958548687144372,0.15019409273675655
10.455512,6.949238927404458,0.15021428674831186
10.457892,6.945935469903795,0.1501275409033449
10.460296,6.944494343522688,0.15001369652798832
10.462684,6.941051116395164,0.14993462101065838
10.465064,6.939330450760335,0.1498363920212014
10.467468,6.937422793670406,0.14978779769293618
10.469852,6.942312834752643,0.14962835945464076
10.472236,6.951766155835158,0.14936877306785343
10.474628,6.955772253185861,0.14918203365116298
10.477016,6.956705314603509,0.1490509370112318
10.479396,6.959500707140714,0.14889206200444416
10.481792,6.958059580759606,0.14877806051195286
10.48418,6.959459172886077,0.14858148384174807
10.48656,6.957645959452631,0.1484490483438578
10.488956,6.950338300459135,0.14843136393877301
10.49134,6.948477865197446,0.14834066109939523
10.493736,6.946757199562617,0.14824243462659237
10.496132,6.947830030607125,0.14810542235605345
10.49852,6.956352186129859,0.14786353198582372
10.500904,6.973626918742936,0.1475201858601931
10.5033,6.995557479154903,0.14711308471336818
10.505684,7.016976182887676,0.1467032649547963
10.508064,7.033739058821557,0.14635986073963195
10.51046,7.053155661807912,0.14598484060727052
10.512844,7.068148754420849,0.14569899282249957
10.51524,7.087844896660924,0.14531091341540353
10.517636,7.110381757408576,0.14485551616446146
10.520024,7.127983251103615,0.14447944108039554
10.522404,7.151031968530463,0.14403814434277978
10.5248,7.177525808942706,0.1435610080200098
10.527188,7.2117485130868975,0.14298047943718828
10.529568,7.247461461298308,0.14236151174506675
10.531968,7.281963704696216,0.14177169595878586
10.534356,7.318188509586824,0.14116416208260468
10.536736,7.359348681530043,0.14047827076839484
10.539132,7.401859327913622,0.1397686721618414
10.54152,7.4398539161251716,0.1391110162970741
10.543904,7.471050806164549,0.13855443432685008
10.5463,7.497172559524457,0.13808025487796063
10.548684,7.518778254712329,0.13765850836045285
10.55108,7.536147430981893,0.13727513528175542
10.553476,7.547789844265927,0.13696834926436308
10.555864,7.557802243855879,0.1367066687719705
10.558248,7.568186730498169,0.13646299244376534
10.560644,7.58592799382007,0.13609778946482098
10.563028,7.599013429343079,0.13579197992591083
10.565408,7.60395069225356,0.13561366381723514
10.567808,7.610330977403017,0.13543420883877577
10.570196,7.615221018485254,0.13529516356978805
10.572576,7.621181994754131,0.13513883106958707
10.574972,7.616528062813108,0.1350848751550156
10.57736,7.608521555685308,0.13509094762978233
10.579756,7.602749466729405,0.13509262970916655
10.582152,7.598699939266196,0.1350798158121733
10.58454,7.59413855512379,0.13505660898357286
10.58692,7.587202983182628,0.13504352841432626
10.589316,7.583060907920801,0.1349992865183934
10.591704,7.584226286763926,0.13490654597806517
10.594088,7.587905623032663,0.13479616649668125
10.596484,7.593075203368621,0.13464771329343844
10.598868,7.595963143704441,0.13454014383854274
10.601252,7.6022962070256535,0.13440406363495247
10.603648,7.615706507772758,0.13416683844595553
10.606036,7.631538218146859,0.13388304340610005
10.608416,7.64071199997565,0.1336808103566891
10.610812,7.6516083432971405,0.13346525814502674
10.6132,7.6651584136711035,0.1332254558787002
10.615584,7.679639649604846,0.1329758671476315
10.61798,7.695471359978946,0.13269730517325204
10.620368,7.710791213673848,0.13241066893372386
10.622748,7.729416420727285,0.13210271042742067
10.625148,7.7509748940869185,0.13175710542879066
10.627532,7.770159179647795,0.13142237228638123
10.629932,7.79069393964903,0.13106135458756651
10.632328,7.811228699650267,0.1307026851667928
10.634716,7.829481819651365,0.1303849822838997
10.637096,7.850248897078077,0.1300536562370434
10.639492,7.866639685959619,0.12975858580376065
10.641884,7.882937927042543,0.12943424515119864
10.644264,7.898956628871747,0.12912394679182748
10.64666,7.9180483666340065,0.12876959901355636
10.649048,7.938490578836625,0.12838841104714785
10.651428,7.9544167328672115,0.1280512500316838
10.653832,7.9635451887256306,0.12779328705707638
10.65622,7.976118767569441,0.12751097553511545
10.6586,7.989903051226752,0.12720828537748055
10.660996,8.003966874137783,0.12689391077093345
10.663384,8.016587674809836,0.12657899893318955
10.665768,8.026135439548835,0.12630553809152478
10.668164,8.032470398727916,0.1260791198835685
10.670552,8.040807458653418,0.1258289193875746
10.672928,8.050215453765555,0.12556472309911593
10.675332,8.06134601037039,0.12528930595907908
10.67772,8.067541199922614,0.12507247521707554
10.6801,8.070011727235721,0.12489116520717006
10.682508,8.071690858615915,0.12471183502765439
10.684892,8.070064636637571,0.12454949433401157
10.687276,8.068298645032371,0.12439296803108525
10.689672,8.06625311417345,0.12424939525808262
10.69206,8.065418288128027,0.12408430031405206
10.69444,8.067796267642521,0.12387444445241047
10.69684,8.0652388801044,0.12372100907812186
10.699228,8.064404054058977,0.12355658465404475
10.701608,8.06878413431989,0.12332253711756204
10.704004,8.06785676047585,0.1231276693426917
10.706392,8.062925185138976,0.12298052103056703
10.708772,8.05440871718985,0.12286147797963158
10.711172,8.048685745920057,0.12271631419394818
10.71356,8.044453018717485,0.12253684072441343
10.71594,8.04250193151505,0.12232061624683185
10.718336,8.03882828281992,0.12211568580962612
10.720724,8.031429971885675,0.12194480588029386
10.723108,8.023659573899092,0.12175699171315195
10.725504,8.016960111099147,0.12155387099188451
10.727888,8.015056245724955,0.12130194386115929
10.730272,8.015945877030097,0.12102457623863444
10.732668,8.019629005014576,0.12072279409858404
10.735056,8.030389370424942,0.12033972175073922
10.73744,8.038356239155974,0.11998043464761401
10.739836,8.04525217270037,0.11963676175617755
10.742224,8.04628157363237,0.11935525891188617
10.744608,8.052386111243848,0.11901422969542677
10.747004,8.056488548108906,0.1186960005567967
10.749396,8.060311445720242,0.11839156335225909
10.751776,8.070652502250027,0.11803101009338474
10.754176,8.084066594712867,0.1176340400797983
10.75656,8.101065579787964,0.11721099673784874
10.758944,8.116062464116641,0.11681232667367761
10.76134,8.129708874004962,0.11644049933814433
10.763724,8.141073643893144,0.11610252575041442
10.766124,8.150296543408047,0.11579239339617409
10.76852,8.165525745162203,0.11541857909182712
10.770908,8.181266803595555,0.11505738713820299
10.773288,8.195005761282493,0.11471624590807375
10.775684,8.20660284859615,0.11440456482778849
10.778072,8.216058065536533,0.11412088311045544
10.780456,8.220717685051163,0.11388184890236726
10.782852,8.219091463072822,0.11372032631545025
10.78524,8.223052234453151,0.11351380933181995
10.78762,8.2260818402737,0.11331477541483766
10.79002,8.234838209079783,0.11306518379327722
10.792408,8.241592477139447,0.11283787373873737
10.794788,8.24848651482597,0.11260410840243278
10.797188,8.253518221392937,0.1123853890449183
10.799572,8.254825265720791,0.11219664471810922
10.801952,8.255852770794926,0.11202056776043122
10.804348,8.255017944749502,0.11185899000608722
10.806736,8.254183118704079,0.11169749711701998
10.809116,8.256281558964853,0.11150893463449449
10.81152,8.26745933739793,0.11122909589949136
10.813908,8.281570382137204,0.11092231279167238
10.816292,8.292328851689701,0.11066291504190774
10.818688,8.302016386055561,0.11041695770219634
10.821072,8.319432784153367,0.11010626775895838
10.823456,8.336709412624312,0.10980161463546738
10.825852,8.356127911468535,0.10947207920692804
10.82824,8.381785029977486,0.10910804912010699
10.830636,8.409444249232855,0.10872494960656308
10.833032,8.436032533301583,0.1083582346059356
10.835416,8.468347580355843,0.1079501143053181
10.8378,8.499451922596604,0.1075644591677281
10.840196,8.530928351889703,0.1071964455498755
10.842584,8.567060608981691,0.1067996383565795
10.844964,8.604915427566377,0.10639675369292143
10.84736,8.644492807643761,0.10598785938157201
10.849748,8.684070187721142,0.10558106756813107
10.852128,8.727232460410777,0.10515740073122515
10.854524,8.769835654592972,0.10475632714449044
10.856912,8.810436748028751,0.10437572981261059
10.859308,8.841027337732445,0.10408823362320785
10.861704,8.871478157809278,0.10380805012422463
10.864092,8.900718273072613,0.10354549268326967
10.866472,8.929678849082228,0.10329404502684221
10.868868,8.951701957292812,0.10310283682289575
10.871256,8.975866935876674,0.10288983822496708
10.87364,8.999892144833677,0.1026836480725576
10.876036,9.020472230805288,0.10249156655610034
10.878424,9.039189985657337,0.1023113546877951
10.880808,9.056976574949614,0.10213807906558046
10.883204,9.067685926815997,0.10202731205534538
10.885592,9.078674817936106,0.10190684677609811
10.887972,9.08994324830993,0.1017760429059773
10.890372,9.09469351976531,0.10168456894576154
10.89276,9.100374956780467,0.10158805489344329
10.895144,9.106335933049342,0.10148138604740478
10.89754,9.110574347825523,0.10138042066010594
10.899928,9.111879496295506,0.10130131673954577
10.902312,9.116816759205987,0.10117493955222967
10.904708,9.122824957303107,0.10103830074012492
10.907096,9.133908292079699,0.10085937064612792
10.90948,9.14499162685629,0.10068111087858404
10.91188,9.155702874580546,0.10048710818574709
10.914268,9.166042035252461,0.10027733633640712
10.916648,9.182527267790489,0.1000162021673003
10.919048,9.198360874022459,0.09975169978587811
10.921436,9.215544954694789,0.09946828087742322
10.92382,9.233799970553758,0.09917570691091052
10.926216,9.255267791972638,0.09885372927680823
10.928604,9.273150720779268,0.09854634815181296
10.930988,9.293455059212897,0.09820772763908703
10.933384,9.306821929847494,0.0979191109861563
10.935772,9.314601807123424,0.09765970493344286
10.938156,9.325966577011604,0.09738484387244713
10.940556,9.336819490220588,0.09710101921091581
10.94294,9.346321928989214,0.0968383221053231
10.945324,9.357826468504257,0.09656102060714834
10.947724,9.3688191513401,0.0962731763404936
10.950112,9.374085071190416,0.09602063894018308
10.952496,9.377348890294313,0.09578321204315397
10.954888,9.376468738278517,0.09558081104583767
