Time,Force,Position
8.355623999999999,0.09877424491462879,0.0
8.358028000000001,0.09441857455535896,0.0
8.360416,0.08619847233011564,0.0
8.362796,0.07769883085115191,0.0
8.365192,0.06733685825263154,0.0
8.367576,0.05669534640039073,0.0
8.369955999999998,0.047124769734788456,0.0
8.37236,0.03741442344232598,0.0
8.374744,0.031196421963499518,0.0
8.377123999999998,0.023627946044314098,0.0
8.37952,0.015268074192210566,0.0
8.381908,0.009681080833540643,0.0
8.384288000000002,0.006628663086386618,0.0
8.386692,0.0024846919666927053,0.0
8.38908,0.006768432713246828,0.0
8.391459999999999,0.012774734952497379,0.0
8.393856,0.02039043269992595,0.0
8.396239999999999,0.026955813446617342,0.0
8.398620000000001,0.03364034563426759,0.0
8.401024,0.037391611515722664,0.0
8.403412,0.04102372595621889,0.0
8.405792000000002,0.04235358221067649,0.0
8.408196,0.044335064771191986,0.0
8.410584,0.04738748251834601,0.0
8.412963999999999,0.05137106582527836,0.0
8.41536,0.05349231801265406,0.0
8.417748,0.05747590131958641,0.0
8.420127999999998,0.05959715350696211,0.0
8.422524,0.06064747050769928,0.0
8.424911999999999,0.06262895306821478,0.0
8.427308,0.06367927006895197,0.0
8.429711999999999,0.06461043562873027,0.0
8.432096000000001,0.07301752930907696,0.0
8.434476,0.07623033486899256,0.0
8.436879999999999,0.07716150042877087,0.0
8.439264000000001,0.07236590300301904,0.0
8.441644,0.06475020525559047,0.0
8.444047999999999,0.058065673067940235,0.0
8.446435999999999,0.05138114088028999,0.0
8.448816,0.048308104947234615,0.0
8.45122,0.044556839065779535,0.0
8.453608,0.04322698281132194,0.0
8.455988000000001,0.04124550025080644,0.0
8.458383999999999,0.038193082503652415,0.0
8.460771999999999,0.03420949919672007,0.0
8.463152000000001,0.03248693770402364,0.0
8.465547999999998,0.0285033543970913,0.0
8.467936000000002,0.02638210220971559,0.0
8.470316,0.025331785208978417,0.0
8.472719999999999,0.023350302648462922,0.0
8.475107999999999,0.02229998564772575,0.0
8.477488000000001,0.020970129393268155,0.0
8.479892,0.012563035712921469,0.0
8.48228,0.008160143525408493,0.0
8.484660000000002,0.0026863161512569846,0.0
8.487064,0.0010769206430789693,0.0
8.489452,0.0010769206430789693,0.0
8.491831999999999,0.0010769206430789693,0.0
8.494228,0.0010769206430789693,0.0
8.496611999999999,0.00039869069467927444,0.0
8.498995999999998,0.0003986906946792745,0.0
8.501387999999999,0.0003986906946792745,0.0
8.503775999999998,0.0003986906946792745,0.0
8.506156,0.0003986906946792745,0.0
8.508552000000002,0.0003986906946792745,0.0
8.510940000000002,0.0,0.0
8.51332,0.0,0.0
8.515712,0.0,0.0
8.5181,0.0,0.0
8.520492,0.0,0.0
8.522896,0.0,0.0
8.525279999999999,0.0,0.0
8.527660000000001,0.0,0.0
8.530064,0.0,0.0
8.532452,0.0,0.0
8.534832000000002,0.0,0.0
8.537236,0.0,0.0
8.53962,0.0,0.0
8.542000000000002,0.0,0.0
8.5444,0.0,0.0
8.546783999999999,0.0,0.0
8.549168000000002,0.0,0.0
8.551563999999999,0.0,0.0
8.553947999999998,0.0,0.0
8.556328,0.0,0.0
8.558724000000002,0.0,0.0
8.561112000000001,0.0,0.0
8.563496,0.0,0.0
8.565892000000002,0.0,0.0
8.568276000000001,0.0,0.0
8.57066,0.0,0.0
8.573063999999999,0.0,0.0
8.575448000000002,0.0,0.0
8.577832,0.0,0.0
8.580227999999998,0.0,0.0
8.582612000000001,0.0,0.0
8.584996,0.0,0.0
8.587392000000001,0.0,0.0
8.589780000000001,0.0,0.0
8.59216,0.0,0.0
8.594556,0.0,0.0
8.596944,0.0,0.0
8.599336000000001,0.0,0.0
8.601731999999998,0.0,0.0
8.604119999999998,0.0,0.0
8.606504000000001,0.0015621736799348643,0.0
8.608899999999998,0.00526621773314679,0.0
8.611284000000001,0.009901427346137037,0.0
8.613664,0.014676406585987494,0.0
8.616064000000001,0.020382551385616267,0.0
8.618448,0.02823056655852211,0.0
8.620832,0.032214149865454456,0.0
8.623235999999999,0.035266567612608477,0.0
8.625623999999998,0.040321086106179356,0.0
8.628004,0.0483088709059454,0.0
8.630400000000002,0.05643642533257166,0.0
8.632788000000001,0.06335327494569917,0.0
8.635168,0.07134105974546523,0.0
8.637564000000001,0.07825790935859274,0.0
8.639948,0.08624569415835881,0.0
8.642347999999998,0.09744628451804042,0.0
8.644744,0.11158014118391726,0.0
8.647127999999999,0.12478283229001576,0.0
8.649508,0.13505225708991905,0.0
8.651907999999999,0.14546145151668258,0.0
8.654295999999999,0.1532375370768727,0.0
8.656676000000001,0.1565901122636485,0.0
8.659071999999998,0.1599426874504243,0.0
8.661460000000002,0.1620845578237014,0.0
8.66384,0.1614329315176435,0.0
8.666236000000001,0.15449546371861464,0.0
8.668624000000001,0.1523535933453376,0.0
8.671008,0.15207405409161717,0.0
8.673404000000001,0.14701953559804629,0.0
8.675788,0.13903175079828023,0.0
8.678184000000002,0.13090419637165396,0.0
8.680579999999999,0.1248978941324034,0.0
8.682963999999998,0.11691010933263736,0.0
8.685344,0.10999325971950985,0.0
8.687740000000002,0.10319556154734118,0.0
8.690124,0.09276574893467629,0.0
8.692519999999998,0.07863189226879948,0.0
8.694916,0.06542920116270098,0.0
8.697303999999999,0.061186994670782285,0.0
8.69968,0.07011708392688179,0.0
8.702076000000002,0.09827109714062396,0.0
8.704464000000002,0.14951346617798233,0.009009178193041959
8.706859999999999,0.21788511062794946,0.017632429206977385
8.709256,0.303153713065048,0.026073818759441928
8.71164,0.4054118212878952,0.0345203888596785
8.714020000000001,0.5310378245880789,0.042839516098575524
8.716424,0.6773307740848814,0.051012814280470324
8.718812,0.8466195316066829,0.05888191182734552
8.721191999999999,1.0385113919152447,0.0665903737569317
8.723588,1.238220872038632,0.0745412674919948
8.725976,1.4526382179476307,0.08256881430810467
8.728356000000002,1.6845775445074769,0.0905720552177743
8.73076,1.9356276290404473,0.09851901722408415
8.733148,2.201991879694713,0.1064308641295604
8.735527999999999,2.477265303536344,0.11444440186717802
8.737924,2.7650121749916927,0.12255627841564086
8.740312,3.0734525962860015,0.13059065360213945
8.742692000000002,3.399628593328603,0.13852534199666103
8.745092,3.72727202251182,0.14641530145835213
8.747475999999999,4.038250811133383,0.15438575169797314
8.749859999999998,4.324698221692357,0.1624596133440065
8.752264,4.589827059748653,0.16151432104028335
8.754648,4.835964291272783,0.1609713152517133
8.757031999999999,5.0636217729439466,0.16065092566392203
8.759436,5.272195100284327,0.1603646931356617
8.76182,5.458518689562251,0.16022896876556608
8.764199999999999,5.61821625223255,0.16030700897282638
8.766604000000001,5.747049373519041,0.16084458199685786
8.768992,5.854841565698707,0.16158070531985977
8.771372,5.957749404369743,0.162009033830376
8.773768,6.04529775094911,0.1623600791537246
8.776156,6.113994260623171,0.1627640804828365
8.778535999999999,6.167236834549077,0.16321714484981217
8.780932,6.207911517204779,0.16369823753510354
8.78332,6.238067631164938,0.16410583507165344
8.785699999999999,6.26338661344471,0.16424402374837138
8.788104,6.269993528446039,0.16442424983823703
8.790488,6.261146507699211,0.1646430182393815
8.792867999999999,6.2437339013171425,0.16493246763271216
8.795268,6.2318157404951275,0.1650896967084294
8.797652,6.227626443405058,0.16510013880114457
8.800035999999999,6.223297376688128,0.16511935812793263
8.80244,6.221622037023673,0.16509806455753107
8.804824,6.227628339262922,0.16497375735613587
8.807208,6.240757204898436,0.16478109423985818
8.809604,6.258494676504598,0.16455106506803363
8.811992,6.28605566038774,0.16416757396966772
8.814371999999999,6.321205738375971,0.16363030850490387
8.816768,6.3592890826703945,0.16303327643940033
8.819156,6.3983035925245995,0.16243398161645328
8.821535999999998,6.439971829431278,0.16179801283995157
8.823932,6.483549619285757,0.16108662749802033
8.826319999999999,6.523869277609947,0.16037253405369623
8.828703999999998,6.561722200336763,0.15964938920144658
8.8311,6.599994431944162,0.15889804866579707
8.833483999999999,6.626114289446197,0.15840633585011626
8.835884,6.650092276574957,0.1579648095678169
8.838280000000001,6.673511185196275,0.1575632539553346
8.840664,6.696510784937012,0.1571833622019969
8.843043999999999,6.722024342103365,0.15678207606916145
8.84544,6.748980921508693,0.15638123384301808
8.847828,6.77752029277986,0.15596743290895815
8.850207999999999,6.8032661673716905,0.15559997185831134
8.852604,6.821190630432956,0.15533778406837412
8.854987999999999,6.834878574575912,0.15512725483881085
8.857384,6.8475428053604706,0.15489848073429546
8.859787999999998,6.852106085360745,0.15478898585300632
8.862176000000002,6.861232645361296,0.15457326343417072
8.864556,6.869847348682648,0.15434922168883314
8.866952000000001,6.872455749764749,0.1542371933748633
8.869340000000001,6.87492438121999,0.15413411277450112
8.871724,6.871758797488318,0.15415924778315285
8.874120000000001,6.868313674502924,0.15420066339307112
8.876508000000001,6.8664513433833685,0.15422928406146189
8.878888,6.868173904876065,0.15420898189188584
8.881291999999998,6.874692063794513,0.15410813958446862
8.883676000000001,6.88256069715332,0.15396854147548775
8.886056,6.88898630827315,0.15383412728474027
8.888452000000001,6.901977300139674,0.15355948930563063
8.890836,6.909101759393804,0.15338730209470003
8.893215999999999,6.91478319640896,0.15322088614721174
8.895612,6.917810906371641,0.15308794469489348
8.897996,6.923539565215039,0.1528800348081811
8.900392,6.936997087790387,0.15254740795034416
8.902788000000001,6.957531847791622,0.1520925196798616
8.905176,6.98109242189767,0.1516278209198066
8.90756,7.011683011601363,0.1510804990283881
8.909956000000001,7.036127529438946,0.15064997209928097
8.91234,7.060012968769089,0.1502521648264516
8.914719999999999,7.090556336644541,0.14975725123150474
8.917116,7.121099704519993,0.14926708424647073
8.919504,7.160070784261692,0.14862057511508378
8.9219,7.203046065496224,0.1479126357513203
8.924295999999998,7.244298785238062,0.1472266299625912
8.926684000000002,7.281687073113926,0.14660355122111124
8.929064,7.324150497669262,0.14590321401623443
8.931467999999999,7.367405318157514,0.14520228477715985
8.933852000000002,7.406655937152935,0.14456105251706222
8.936232,7.438549779468745,0.14405558256960402
8.938631999999998,7.475099449583448,0.1434902548914298
8.941016000000001,7.511741667496767,0.14296082029553142
8.943396,7.553459022089559,0.14235201905545553
8.945799999999998,7.590473327055215,0.14184225382312307
8.948187999999998,7.6226920345951195,0.14140730087750703
8.950568,7.647553965455413,0.14110366660741852
8.952964000000001,7.669110542957177,0.14082855197521962
8.955352000000001,7.687361767100406,0.14058159023503677
8.957732,7.702167868258242,0.14036384962793122
8.960135999999999,7.714460011990464,0.1401659896319774
8.962523999999998,7.723307032737291,0.14000259612636845
8.964904,7.732433592737841,0.13982661204398977
8.967308,7.736624785685779,0.13972264823935515
8.969695999999999,7.735880611581104,0.1396889706185315
8.972076000000001,7.73406550228979,0.13967346185696486
8.974471999999999,7.739187860797505,0.13956001006226046
8.976859999999999,7.742308118558805,0.13947680673682727
8.97924,7.748501412253159,0.13934922463736565
8.981644,7.759769842626985,0.13914755251793134
8.984027999999999,7.774530617814447,0.13887919531588863
8.986412000000001,7.788919305949571,0.1385979219274437
8.988807999999999,7.80335521591294,0.1382817348995768
8.991192000000002,7.809782722890639,0.13807548581512416
8.993576000000001,7.8192832658013955,0.13782298283505204
8.995971999999998,7.828084960577849,0.13760396783306655
8.998356000000001,7.839168295354441,0.1373431084852181
9.00074,7.853184896437229,0.13704619865875667
9.003136000000001,7.8658510230796574,0.13677995617365898
9.005524000000001,7.884476230133092,0.13646562395828504
9.007904,7.908688430545199,0.13608955297935987
9.0103,7.9358338972635,0.13568031801635172
9.012688,7.958463305809769,0.1353166991567622
9.015084000000002,7.9820238799158165,0.13494306987968438
9.01748,8.006375849954782,0.13456381676657278
9.019868,8.03058805036689,0.1341895024572711
9.022248,8.046047673688651,0.13389573959773626
9.024644,8.057270778092104,0.1336343378611203
9.027031999999998,8.058623148390332,0.13350114762338733
9.029412,8.058345504994481,0.13341163230599498
9.031812,8.058859257531546,0.13331904154942936
9.034199999999998,8.054065555963664,0.1332732817480913
9.03658,8.048061149582283,0.1332504194868734
9.038984,8.048714671746213,0.13315124869285455
9.041372,8.050439129096779,0.13303568081586167
9.043752,8.052210808275586,0.13288357109846272
9.046148,8.053750170028918,0.132708784996839
9.048536,8.047281128796582,0.13263949514814055
9.05092,8.043233497191245,0.13252385745053294
9.053316,8.039093317787287,0.1323788371322271
9.055704,8.028062892412548,0.13228564827134193
9.058084,8.007581041813163,0.13229670616700442
9.060484,7.988262674199033,0.13232196505397384
9.062872,7.97080663770446,0.1323264619648999
9.065252,7.952559205276967,0.13233471181664744
9.067647999999998,7.935662247289835,0.1323133422107755
9.070035999999998,7.91885783710132,0.13232233155050732
9.07242,7.901354578778503,0.1323652037524289
9.07482,7.889438313814358,0.13234886848069266
9.077208,7.879431601798012,0.132274949429976
9.079588,7.86691093235605,0.13221736203436213
9.081988,7.860908421832538,0.13208946677313904
9.084371999999998,7.854905911309026,0.13196145915768615
9.086756,7.847320608919678,0.13183981367819073
9.08916,7.843367420970825,0.1316498383671005
9.091544,7.84276680820875,0.13140541337510028
9.093927999999998,7.842817821752731,0.13116519065827315
9.09632,7.846081640856626,0.13087468000021235
9.098707999999998,7.847063819960384,0.13062324380167922
9.101088,7.845904128690866,0.13040409921906343
9.103484000000002,7.850051891526296,0.13014116704757744
9.105872000000002,7.862999453280312,0.12977272489916075
9.108256,7.878787733541906,0.12933994523853248
9.110651999999998,7.888989020444832,0.12896327603053628
9.113036,7.904265444027231,0.1285213733703476
9.115431999999998,7.923825608356182,0.12802094303824285
9.117828,7.948880218245186,0.1274374639164785
9.120216,7.978637877761327,0.12677351831891276
9.122596,8.0118878820911,0.1260552352158463
9.124992,8.042716476793878,0.12538305377702477
9.12738,8.074476237056434,0.12470295431873625
9.12976,8.096085723960044,0.12414974628799881
9.13216,8.11476194455746,0.12362813192396532
9.134548,8.133577934781734,0.12310176695496963
9.136928,8.146759709819097,0.12266825534837107
9.139332,8.154958895975605,0.12232799931903506
9.141716,8.160085046199058,0.1220266619907492
9.144100000000002,8.168144462728707,0.1216929317127993
9.146504,8.175412483325438,0.12136047994171509
9.148888,8.183751439108809,0.12101304570378027
9.151267999999998,8.190228063772622,0.12068435436001096
9.153664,8.190558616570325,0.12043304611103751
9.156052,8.189538694927668,0.12020984922730207
9.158432,8.192243435524123,0.11995159508888706
9.160836,8.192014909814384,0.11972637745934059
9.163224,8.185360772984815,0.11958961465321517
9.165603999999998,8.175493830595329,0.11949631121477762
9.168,8.161994773765347,0.11946445272800203
9.170388,8.140207774695977,0.11953507331189703
9.172768,8.118420775626607,0.1196059343310882
9.175172,8.09928750360971,0.11965697524010444
9.17756,8.088442173832204,0.1196061795362865
9.179939999999998,8.08267198073417,0.11949581821891282
9.182336,8.081557615435027,0.11934586213998259
9.184724,8.080583019762743,0.11918941258643398
9.187104,8.084031934463875,0.11897015935136325
9.1895,8.093487151404258,0.11868592314898647
9.191888,8.100660728344502,0.1184362612234211
9.194284,8.111419197896998,0.11816164607976991
9.19668,8.125762560061752,0.11786445136617466
9.199068,8.137032886293445,0.1176017473431321
9.201448,8.152167644391115,0.11730100183917966
9.203844,8.168093798421701,0.11699959599936377
9.206232,8.186022053198705,0.11667852478401318
9.208612,8.20259983353535,0.1163834890843487
9.211016,8.221179714618414,0.1160661060601446
9.2134,8.240690761261252,0.11574235569596665
9.21578,8.261272743090732,0.11540447100193746
9.218184,8.288792192719239,0.11499256543797572
9.220572,8.32138677902722,0.11452762612343408
9.222952,8.34704389753617,0.11413410785959793
9.225352,8.373073103097457,0.11376170043977095
9.227736,8.398543230151306,0.11341697176246893
9.23012,8.416516810898683,0.11316777502601458
9.232516,8.434490391646062,0.11291804740051437
9.234904,8.451113497953079,0.11269534260110266
9.237284,8.461310993140266,0.11255288949132951
9.239688,8.476443855380067,0.11236361894224654
9.242076,8.491436947993005,0.11218171699051424
9.244456,8.498421637620279,0.11208022721166384
9.246852,8.514206126166135,0.11189851639832973
9.24924,8.528128283592435,0.11173113456697169
9.25162,8.540048340272321,0.11158376406014206
9.254016,8.553411419191182,0.1114418573622993
9.256404,8.569567994789375,0.1112795448227032
9.258784,8.589449232626682,0.11109144323901698
9.26118,8.608911161583412,0.1109214711230143
9.263568,8.631166587219475,0.11073263543639396
9.265964,8.654213408788456,0.11054523562765108
9.26836,8.671765784797383,0.11042613352218572
9.270748,8.69611585897848,0.11024931967697449
9.273128,8.716601501293603,0.11010499401119389
9.275528,8.734293646929391,0.10998063093827787
9.277916,8.754407202192176,0.10981963016064408
9.280296,8.776383088574518,0.10964577492753202
9.282692,8.797707348650803,0.1094678647882953
9.28508,8.822244414287002,0.10925272513100973
9.28746,8.843848213617006,0.10906529257420708
9.289867999999998,8.864800386640955,0.10887450470785558
9.292252,8.891898631531012,0.10862179172138334
9.294636,8.914201278995318,0.10841057810086063
9.297032000000002,8.940368358325596,0.10816995022654553
9.29942,8.967746142469375,0.10791191976567638
9.3018,8.990747638067981,0.10767585133725942
9.304200000000002,9.011514715494695,0.10743749090045006
9.306584,9.028696900309154,0.1072201916726197
9.308968,9.047509098817692,0.10697106244895145
9.311364,9.061945008781061,0.10674218126153337
9.313752,9.071864860572397,0.10653851585967082
9.316132,9.08555659643109,0.1062797164244437
9.318528,9.097665540423947,0.10602383768199662
9.320916,9.112475433297522,0.10572450247777211
9.3233,9.129706735798095,0.10539259452741115
9.325696,9.14521547680597,0.10506656085374806
9.32808,9.161143526694424,0.10472605835109051
9.33046,9.17828228139638,0.10437047634268574
9.33286,9.195048949045995,0.10400071920717019
9.335244,9.212374695203055,0.10361166882302328
9.337644,9.229048815054055,0.10321909690600445
9.340036,9.243348747106301,0.10282890463727407
9.342427999999998,9.253924016919434,0.10246039299760558
9.344808,9.259983228560536,0.10211501354024341
9.347204,9.267113375388277,0.10175978664094283
9.349592,9.273452126283097,0.10140401919555304
9.351972,9.281513438670615,0.10104333184487574
9.354368,9.288783355125215,0.10068287541558171
9.35676,9.289115803780788,0.10037498884337198
9.35914,9.291170813929055,0.10006124566908596
9.361536,9.295367694450599,0.09972601488020635
9.363924,9.294349668665811,0.09943843440228434
9.366304,9.290538146201689,0.09916666453458585
9.368704,9.286307314856987,0.09891118637753679
9.371092,9.280074382765866,0.09867138137169387
9.373472,9.274632846607666,0.09843098127226048
9.375872,9.268911771195743,0.09820143372428204
9.37826,9.259977890223904,0.09800263994885398
9.38064,9.249413995557989,0.09783466130303511
9.383036,9.233635194585737,0.09771242073801481
9.385428,9.216505919173128,0.09761046947406395
9.387808,9.201750831559275,0.09750844835156522
9.390208,9.191651571744313,0.09738109443194642
9.392596,9.182343707862268,0.09725351600230148
9.394976,9.169962808047167,0.09715109703951393
9.397379999999998,9.16116680084432,0.0970337334723398
9.399764,9.149157988081557,0.0969466346146781
9.402144,9.136078240132155,0.09686934662849783
9.404547999999998,9.128585485541427,0.09676198925406256
9.406935999999998,9.123094831697111,0.09663956984843414
9.409316,9.117976264905133,0.09653303498658555
9.411708,9.116722129979129,0.09640149312871585
9.414096,9.117050786918961,0.0962703452534898
9.416492000000002,9.1144461775526,0.09615900289747226
9.418888,9.111562028932516,0.0960578807576062
9.421276,9.115103491432265,0.09589728517446101
9.423656,9.116782622812455,0.09574642186609274
9.42606,9.121534790125702,0.09557091110218624
9.428444,9.129499762998867,0.0953660926375531
9.430824,9.14398289479048,0.09512800464501629
