Time,Force,Position
12.183547999999998,0.08456083332493362,0.0
12.185936000000002,0.06762083792429853,0.0
12.18832,0.05389364808357908,0.0
12.190715999999998,0.04444222285893566,0.0
12.193104000000002,0.03457148875371161,0.0
12.195488,0.03177799207437667,0.0
12.197883999999998,0.030707056887738136,0.0
12.200272000000002,0.03177799207437666,0.0
12.202656,0.03629405024640806,0.0
12.205051999999998,0.042812209164856306,0.0
12.207435999999998,0.04518639696361063,0.0
12.209816,0.0486315199490035,0.0
12.21222,0.04607831682562388,0.0
12.214603999999998,0.04352511370224427,0.0
12.216984,0.04125144983258508,0.0
12.219379999999996,0.040979886709342744,0.0
12.221763999999997,0.040979886709342744,0.0
12.22416,0.04070832358610041,0.0
12.226556,0.04043676046285807,0.0
12.228943999999997,0.04043676046285807,0.0
12.231323999999995,0.04043676046285807,0.0
12.233727999999996,0.04043676046285807,0.0
12.236116,0.04043676046285807,0.0
12.238496,0.040025427712755524,0.0
12.240892,0.03882269902973487,0.0
12.243279999999997,0.03454693441365883,0.0
12.245659999999996,0.029340004237804463,0.0
12.248063999999996,0.023062138875311573,0.0
12.250452,0.015992877579900568,0.0
12.252832,0.008923616284489563,0.0
12.255228,0.00399622536235562,0.0
12.257615999999995,0.0,0.0
12.260000000000002,0.0,0.0
12.262396,0.0,0.0
12.264783999999995,0.0,0.0
12.267163999999998,0.0,0.0
12.269560000000002,0.0,0.0
12.271947999999998,0.0,0.0
12.274328,0.0,0.0
12.276723999999998,0.0,0.0
12.279112,0.0,0.0
12.281508,0.0,0.0
12.283903999999996,0.0,0.0
12.286292,0.0,0.0
12.288672000000002,0.0,0.0
12.291068,0.0,0.0
12.293455999999995,0.0,0.0
12.295835999999998,0.0,0.0
12.298236,0.0,0.0
12.300623999999996,0.0,0.0
12.303003999999998,0.0,0.0
12.305407999999996,0.0,0.0
12.307796,0.0,0.0
12.310176000000002,0.0,0.0
12.312572,0.0,0.0
12.314959999999996,0.0,0.0
12.317339999999998,0.0,0.0
12.319735999999995,0.0,0.0
12.322124,0.0,0.0
12.324504,0.0,0.0
12.326903999999995,0.0,0.0
12.329292,0.0,0.0
12.331672,0.0,0.0
12.334067999999998,0.0,0.0
12.336456000000002,0.0,0.0
12.338835999999995,0.0,0.0
12.341236,0.0,0.0
12.343624000000002,0.0,0.0
12.34602,0.0,0.0
12.348415999999997,0.0,0.0
12.350804,0.0,0.0
12.353183999999995,0.0019015768173217102,0.0
12.35558,0.005945024007920481,0.0
12.357967999999996,0.00677566563860366,0.0
12.360351999999995,0.00677566563860366,0.0
12.362748,0.007746076896147051,0.0
12.365135999999996,0.012580920019663933,0.0
12.367515999999998,0.017555532770041023,0.0
12.369916,0.021598979960639794,0.0
12.372303999999996,0.021777995285265073,0.0
12.374683999999998,0.02181724098303014,0.0
12.377079999999996,0.02181724098303014,0.0
12.379468,0.02181724098303014,0.0
12.381852,0.022508112986853113,0.0
12.384247999999996,0.02250811298685311,0.0
12.386636,0.02250811298685311,0.0
12.389016000000002,0.02250811298685311,0.0
12.391412,0.02250811298685311,0.0
12.393799999999995,0.02250811298685311,0.0
12.396196,0.02250811298685311,0.0
12.398591999999995,0.02250811298685311,0.0
12.40098,0.020606536169531404,0.0
12.403359999999996,0.016563088978932633,0.0
12.405756,0.015732447348249457,0.0
12.408143999999997,0.015732447348249457,0.0
12.410527999999996,0.014762036090706067,0.0
12.412924,0.009927192967189184,0.0
12.415311999999997,0.004952580216812089,0.0
12.417695999999996,0.0009091330262133183,0.0
12.420092,0.0007301177015880387,0.0
12.422479999999997,0.0006908720038229693,0.0
12.424863999999996,0.0028719880748651,0.0
12.42726,0.0039821689592686995,0.0
12.429647999999997,0.0034703122800710095,0.0
12.432028,0.006582593910891461,0.0
12.434423999999996,0.007553005168434851,0.0
12.436812,0.008243877172257821,0.0
12.439191999999997,0.008794979549220578,0.0
12.441591999999996,0.011208413045739978,0.0
12.44398,0.012039054676423157,0.0
12.446364,0.012039054676423157,0.0
12.448759999999996,0.012039054676423157,0.0
12.451148,0.012039054676423157,0.0
12.453532,0.012039054676423157,0.0
12.455932,0.013239887501574576,0.0
12.458319999999995,0.020258135253003948,0.0
12.460703999999996,0.035745629125316765,0.0
12.463108000000002,0.07445935259023674,0.0
12.465492,0.14328955161854956,0.009236292673079252
12.467871999999996,0.23623181982887387,0.01788604197825268
12.47028,0.3480731467727466,0.026173815966084896
12.472663999999998,0.4669939996993788,0.03480443925249192
12.475047999999996,0.6015992099417744,0.04369768067784757
12.477444000000002,0.7632950816427506,0.05237461389720081
12.479828,0.9511976710707722,0.06071428788753771
12.482212,1.1699647018826003,0.0686586735546347
12.484607999999998,1.4041856684425837,0.07657541113041848
12.486996,1.6607035948932651,0.08439811800886007
12.489375999999996,1.942497073511214,0.09212714385533151
12.491775999999998,2.251940292095184,0.09980354044557092
12.494164,2.5796229669761663,0.1074614837996698
12.496543999999997,2.9160544272317526,0.11524995309590592
12.49894,3.263561638832455,0.12318422243293937
12.501327999999996,3.636763711481005,0.13104401437655686
12.503708,4.039070314180768,0.138711410262148
12.506108,4.459256053971425,0.14616785453015252
12.508495999999996,4.874045583574253,0.1535786714792777
12.510876,5.253598174963842,0.16106502060691041
12.513276,5.596703123326694,0.15935358757835347
12.515663999999996,5.915136924000093,0.15825553907141546
12.518044,6.22049097672409,0.15747207490480175
12.520439999999995,6.519005797021285,0.15629681233550713
12.522828,6.800208142166506,0.15482303877317938
12.525212,7.0481284280166605,0.1536079615414221
12.527615999999998,7.2614615061017656,0.15279330647644118
12.530004000000002,7.443371064295623,0.15243894945663394
12.532388,7.611828787487742,0.1520951355620265
12.534783999999998,7.747374642579262,0.15197148731762272
12.537167999999998,7.842886066173923,0.1521161780749791
12.539551999999995,7.9107005279743206,0.15236413390420156
12.541948,7.966506177011955,0.15259536326704504
12.544335999999998,8.016076998100601,0.1526708940667813
12.546716,8.059834195978704,0.15246965148293354
12.549111999999996,8.073287926838313,0.1523694723336237
12.5515,8.049498827022527,0.15257579305186028
12.553879999999996,7.994237089629381,0.15315699989692355
12.556276,7.94148930966185,0.1537003745289063
12.558663999999997,7.905734827195806,0.15404775302912793
12.561044,7.869468488050562,0.15439578794640507
12.563444,7.829757025919927,0.15478696453830995
12.565831999999997,7.788834858975794,0.15519564221443524
12.568228,7.758248060987838,0.15548293488565962
12.570620000000002,7.732082877515427,0.15578779032422835
12.573007999999998,7.709967221506223,0.15610302181059957
12.575388,7.696743912214224,0.15631816175752775
12.577783999999998,7.690969927400449,0.15643519283184806
12.580172,7.691294792624542,0.15648672076969505
12.582556,7.707961329044066,0.15634076951650067
12.584951999999998,7.740737219233541,0.1559651441623777
12.587343999999998,7.774771036064758,0.15552364998447174
12.589724,7.810574636216916,0.15504013577893536
12.592119999999998,7.8558296615937175,0.15444759572098418
12.594511999999998,7.902620257008111,0.15390107225449987
12.596892,7.947780838728426,0.15338767696829128
12.599287999999998,7.996945621941573,0.15279810159929455
12.601676,8.060125110379639,0.1519839312140937
12.60406,8.119812254004069,0.15125347610964995
12.606455999999998,8.179172636546536,0.15059263866288466
12.608844,8.24709860472424,0.149878700222635
12.611223999999996,8.321030875141197,0.14906880100380204
12.613632,8.38951592182634,0.1483252925708712
12.616024,8.443893715487953,0.1477804788956163
12.618404000000002,8.500692918776563,0.1471958526922895
12.6208,8.560891919080193,0.14651393170571264
12.623187999999995,8.611546946360559,0.14591990447682518
12.625567999999998,8.654660101364083,0.14538919090466412
12.627963999999997,8.68487670815757,0.14501110473190362
12.630351999999998,8.709366551965529,0.14471063690367686
12.632732,8.731994064653927,0.1444360263818388
12.635131999999995,8.753550642155691,0.14417856633472229
12.63752,8.761139736260777,0.14408475309324972
12.6399,8.755552742902106,0.14414871740709023
12.642295999999998,8.74088641137113,0.1443387282588284
12.644684000000002,8.735531735437938,0.1444235653358874
12.647068,8.731527533945103,0.14447923449821518
12.649463999999998,8.720353547227765,0.14460641832834717
12.651852000000002,8.711740739764283,0.14467954723106977
12.654236,8.697261399688411,0.1448269640437628
12.656631999999998,8.686134634799314,0.14491637256281242
12.659020000000002,8.672493912484603,0.14502331147689523
12.661404,8.656665993826241,0.1451040802911998
12.663799999999998,8.640326218488681,0.14517764761393454
12.666188000000002,8.621704803150985,0.14528819839438223
12.668572,8.605550123410659,0.1454118833292563
12.670976,8.595913602588778,0.14546573657205
12.673363999999996,8.590421052886597,0.14546027100567074
12.675747999999995,8.596521798782334,0.14531408333480592
12.678144,8.605555810984267,0.14513195755169572
12.680531999999996,8.611516787253143,0.14499260419949014
12.682915999999995,8.619340094641576,0.14483299472576924
12.685312,8.632657847590062,0.14458218514980473
12.687699999999996,8.641739081620237,0.144361520157002
12.690083999999995,8.655243826023824,0.14406728528278387
12.69248,8.668888340054277,0.14377038258688077
12.694867999999996,8.687887530017917,0.14339309631237365
12.697251999999995,8.703581366623029,0.14303499362119787
12.699648,8.711314022070711,0.1427514421000801
12.702035999999996,8.719977843078176,0.1424567820099556
12.704419999999995,8.719422556286474,0.142292660063051
12.706816,8.719658665427689,0.14212449647415
12.709203999999996,8.723339897554299,0.14192729855900754
12.711583999999998,8.727812525613825,0.14172522983239222
12.713984,8.730003513673214,0.14156308609871449
12.716371999999996,8.733125667292382,0.14139216628240017
12.718752,8.737039216844469,0.1412178282998674
12.721155999999995,8.736436708224524,0.14108754878809399
12.723539999999996,8.72400858658118,0.14107603839042768
12.72592,8.707716033071863,0.14111076179041315
12.728315999999996,8.699152343294493,0.14105232727231104
12.730704,8.692590754263541,0.14096767142660238
12.733088,8.687611957098424,0.14087543252130721
12.735483999999996,8.69208458515795,0.14067849381624317
12.737872,8.695066969150258,0.14051663266226985
12.740256,8.69562794351557,0.14039941529307545
12.742651999999996,8.689623537134187,0.14038265475437162
12.745035999999995,8.687483562618779,0.14032103738588494
12.747415999999998,8.691582207768098,0.14020383866253772
12.749816,8.702897859970168,0.13999084884905666
12.752199999999998,8.724503555158043,0.13964140971170166
12.754583999999998,8.748530659972914,0.13925190472868193
12.756979999999997,8.774699635161062,0.13883491126049724
12.759367999999998,8.805431890349485,0.13834750561764877
12.761751999999998,8.839656490351546,0.13780492040816159
12.764147999999995,8.87071550662193,0.13727998323214152
12.766539999999996,8.903124997332675,0.13673296443761754
12.768919999999998,8.936325883976341,0.13617862177023954
12.77132,8.978558886964068,0.13554380186524545
12.773707999999996,9.030662624057019,0.13480503146781136
12.776087999999998,9.075689123724082,0.1341589848524006
12.778496,9.118993061898445,0.13353031142788774
12.780883999999997,9.16257653932653,0.132892281797147
12.783264,9.199222548955586,0.13233376462666402
12.785659999999996,9.2389415945177,0.13174188584273971
12.788048,9.279359488214114,0.13112432136509503
12.790432,9.3255513667243,0.1304201280590097
12.792827999999997,9.371743245234486,0.12971680824036477
12.795216,9.41206859113228,0.12907593455011646
12.7976,9.445596238857908,0.12851314772965966
12.799995999999997,9.469812230985752,0.12803662443040273
12.802384,9.489232625687842,0.12760817048234213
12.804763999999995,9.49971345184449,0.12727396185758064
12.807163999999997,9.505491228374003,0.12701270858386132
12.809552,9.511269004903514,0.1267536059790331
12.811931999999995,9.519048882179442,0.12647442951358787
12.814331999999997,9.521893392402758,0.1262459823392416
12.81672,9.529253960798105,0.12598384412910674
12.819099999999995,9.531027535834783,0.12576922617397404
12.821504,9.520276649713763,0.12567256842163388
12.823891999999995,9.512506251727181,0.12551653784787614
12.826272,9.499800486687986,0.12540933661430717
12.828672,9.482671211275376,0.12536045773561094
12.831059999999995,9.472619173288656,0.1252353283037718
12.83344,9.458749925264208,0.12511539377975164
12.835835999999995,9.44315811574706,0.12500457639044485
12.838227999999996,9.419790220669725,0.124995452202216
12.840608,9.397585808577643,0.12499812698354033
12.843008,9.379525367605257,0.1249543229153178
12.845395999999996,9.358531660326674,0.12493905275158596
12.847776,9.339120744913927,0.12491970294948626
12.850176,9.320593773232718,0.12492395432263148
12.852563999999996,9.310959148268712,0.1248679335502603
12.854947999999997,9.304677098491478,0.12476638130518833
12.857344,9.292668285728716,0.12471672652274587
12.859731999999996,9.2739543225924,0.12475811089289775
12.862115999999997,9.258545712814618,0.12478519290733356
12.864512,9.2408554630367,0.12484400983953473
12.866899999999998,9.228240349938252,0.12484716399427764
12.86928,9.21948966870578,0.12481411652284172
12.87168,9.209760600085286,0.12481949258072406
12.874067999999998,9.207852942995356,0.12477801285771269
12.876448,9.215676250383789,0.12464364251537832
12.878843999999996,9.220426521839165,0.12454410980985148
12.881232,9.226060737026078,0.12446820888816841
12.883616,9.237654032623999,0.12436324668738918
12.886011999999996,9.257767587886784,0.12418584056661094
12.8884,9.281885344642404,0.12397025764819927
12.890784,9.30786543251758,0.12374242870720784
12.893179999999996,9.340922757818648,0.12344369492889612
12.895568,9.379147767597802,0.12311920527784823
12.897952,9.421796287750368,0.12274072525612062
12.900347999999996,9.464212490477461,0.12234642821574077
12.902736,9.50169332615194,0.12199815470262033
12.90512,9.542898824065533,0.12162072811490264
12.907515999999998,9.59439436496493,0.12113671508357503
12.909907999999998,9.64509850993141,0.12065566807737589
12.912288,9.697013359711388,0.12015775258502019
12.914688000000002,9.745063777625392,0.11969668122666857
12.917075999999998,9.795256065912673,0.11921403617312487
12.919459999999996,9.843586023080396,0.11874530807174999
12.921856000000002,9.889402022822507,0.11829071335884539
12.924243999999998,9.929770798832807,0.11787759728823356
12.926627999999996,9.967206308536916,0.11748958880022832
12.929024000000002,10.003990191934964,0.11709857447137517
12.931411999999998,10.032253815668142,0.11677515668601207
12.933795999999996,10.05921418678921,0.11644815565498247
12.936192000000002,10.081798269365107,0.11614666485096559
12.938579999999998,10.09944698488839,0.11588847572776041
12.940963999999996,10.113882894851757,0.1156669777033873
12.943360000000002,10.12608438664323,0.11544604968913735
12.945751999999995,10.13414190731501,0.11526603931042528
12.948131999999998,10.137124291307318,0.11513232673536151
12.950532,10.144250646419318,0.11495832808843705
12.952919999999995,10.150585605598403,0.11478595992394933
12.955304000000002,10.14919170104554,0.11467395078413806
12.9577,10.146075234999978,0.1145691422881052
12.960087999999995,10.14351784746186,0.11444466885305724
12.962472000000002,10.14175185585666,0.11431895702717683
12.964868,10.13919446831854,0.11419472800660768
12.967255999999995,10.136125224101221,0.11406144663840069
12.969640000000002,10.129331317644791,0.11395222588710764
12.972036,10.119184836001585,0.11388090655585946
12.974428,10.112111390291435,0.11378130460385442
12.976808000000002,10.10131328234217,0.1137059552032195
12.979207999999996,10.092237735885604,0.11362329393434238
12.981596,10.077947283122704,0.11359133075998423
12.98398,10.062446125546305,0.11357532991443008
12.986375999999996,10.049086838343184,0.11353697257333754
12.988764,10.032934054460727,0.11351703859661919
12.991143999999997,10.013708234645215,0.11352538437334726
12.993543999999996,9.995832889270064,0.11351234490628126
12.995932,9.983172450201243,0.11344826649778289
12.998316,9.969301306318924,0.11340007667072767
13.000711999999996,9.956640867250103,0.11333541903651222
13.0031,9.943840658554421,0.1132756784472932
13.005484,9.933833946538076,0.11319749924076555
13.007879999999997,9.919543493775175,0.11316339839022035
13.010268,9.905392810639134,0.1131240841153351
13.012652,9.887749782689458,0.11312783512496234
13.015052,9.87168954660562,0.11312938939094948
13.017439999999995,9.860564677574393,0.11309049254269977
13.019823999999996,9.854654714849499,0.11300125970042314
13.022223999999998,9.848884521751465,0.11290703383556151
13.024612,9.852985062758652,0.11273357266923748
13.026991999999996,9.861928423019837,0.11249751593221254
13.029388,9.875155524027575,0.11221780951744771
13.031775999999995,9.888522394662171,0.11193276285460962
13.034156,9.899235538244296,0.11165991306790726
13.036556,9.90994868182642,0.11138596960488509
13.03894,9.922803695781822,0.11108987403149578
13.041324,9.935518940110363,0.11079931602391803
13.043719999999997,9.94315904775943,0.11055335839458175
13.046108,9.952009860221997,0.11029213740300113
13.048487999999995,9.959510198244208,0.11005236367695133
13.050887999999995,9.96994380257261,0.10979014026399006
13.053276,9.981727881341373,0.10950885186339165
13.055655999999995,9.998167787909026,0.10919873563637883
13.058055999999995,10.01474746410354,0.10888429272341497
13.060444,10.032817384365272,0.10854333837790721
13.062828,10.052098009440504,0.10818774119005911
13.065223999999995,10.069516303396181,0.10784519808063518
13.067612,10.083349704739602,0.10752111018808351
13.069991999999996,10.097183106083028,0.10719845412374254
13.072391999999995,10.10314787406764,0.10693650230888074
13.07478,10.103478426865342,0.10673641052196105
13.077159999999996,10.101527339662907,0.10656181277154289
13.079556,10.09971602208733,0.10638213275349244
13.081943999999996,10.104422863430203,0.10616525377785448
13.084327999999996,10.112342510332995,0.10591788033551346
13.086724,10.124126589101756,0.1056462137178131
13.089111999999997,10.138052538243794,0.10535570114473022
13.091495999999996,10.158124559251945,0.1050155351060344
13.093892,10.17633424914054,0.10468653481922283
13.096279999999997,10.192821377536436,0.10436268089941315
13.098663999999996,10.206515009253,0.10405438534475037
13.10106,10.216995835409646,0.10377680212581253
13.103447999999997,10.225754100073596,0.10350546707497946
13.105828,10.23544353029732,0.10322985933916222
13.108231999999996,10.243922255707547,0.10296822663924225
13.11062,10.251469815558,0.10271231813681539
13.112999999999996,10.25808620984867,0.10246153295363358
13.115396,10.269078892684515,0.10219616429448802
13.117783999999997,10.275927604400664,0.10196441455998519
13.120167999999996,10.283707481676593,0.10172724116180698
13.122564,10.29283783339288,0.10147030000615191
13.124956,10.304249825109302,0.10118964411512553
13.127335999999996,10.317384378318426,0.1009043629720518
13.129732,10.323861002982238,0.10065875429303121
13.132119999999995,10.32898715320569,0.10043269969392409
13.134503999999996,10.329038166749672,0.10024561440853981
13.136903999999998,10.324945209173958,0.100091759325786
13.139287999999995,10.316428741224827,0.09998038239635848
13.141671999999996,10.308563899581758,0.0998734839379563
13.144068,10.303492554618021,0.0997523507031169
13.14646,10.302145871893401,0.09961248117919319
13.148839999999996,10.304523851407893,0.0994543339230946
13.151236,10.306110434989467,0.09929617162300707
13.153623999999995,10.306626083384401,0.09914753342919153
13.156007999999996,10.312216868458808,0.0989624467311824
13.158404,10.319809754279632,0.09876444957947728
13.160796,10.329125201593152,0.09856237302183243
13.163175999999996,10.335647152227338,0.09837457578244788
13.165575999999998,10.348175405100774,0.09814658305953416
13.167964,10.364568089840187,0.09789736299400323
13.170343999999996,10.381612400885652,0.09765301430217278
13.17274,10.397306237490763,0.09742751328646237
13.175132,10.412208678162953,0.09720254995193624
13.177511999999997,10.433629277753592,0.09694810306758014
13.179911999999998,10.456260582157732,0.09668113773434311
13.1823,10.480242361002231,0.09639666294404248
