Time,Force,Position
12.036288,0.18248643151195246,0.0
12.038672,0.18001780005671184,0.0
12.041076,0.18304361416152407,0.0
12.043459999999998,0.1862091978931965,0.0
12.04584,0.19044571681150746,0.0
12.048235999999998,0.19389083979690033,0.0
12.050623999999996,0.1998971420361509,0.0
12.053019999999998,0.20762600576809787,0.0
12.055416,0.21027973282057263,0.0
12.057804,0.21093135912663052,0.0
12.060183999999998,0.21093135912663052,0.0
12.06258,0.21013996319371245,0.0
12.064968,0.20897648020845683,0.0
12.067351999999998,0.20874416278297955,0.0
12.069748,0.20958278054414084,0.0
12.072136,0.21363420386521764,0.0
12.074519999999998,0.220107036813292,0.0
12.07692,0.2241584601343688,0.0
12.079308,0.2286291923360263,0.0
12.081687999999998,0.22974734935090793,0.0
12.084092,0.2257903696863174,0.0
12.08648,0.22220547707406438,0.0
12.08886,0.21205520371511993,0.0
12.091264,0.20083399516953693,0.0
12.093652,0.18933324737023352,0.0
12.096032,0.17583039882451323,0.0
12.098428,0.1606975365847136,0.0
12.100816,0.1450528176657163,0.0
12.103196,0.13355206986641283,0.0
12.105592,0.12419319244038651,0.0
12.10798,0.11576548057413849,0.0
12.110359999999998,0.10933986945430729,0.0
12.112764,0.10077238796119906,0.0
12.115152,0.08960375037244614,0.0
12.117527999999998,0.08145557775991852,0.0
12.119928,0.07437834033402944,0.0
12.122312,0.06623016772150182,0.0
12.124691999999998,0.05729059917605609,0.0
12.127088,0.04914242656352847,0.0
12.129476,0.042065189137639375,0.0
12.131868,0.039783549137502115,0.0
12.134264,0.03671051320444673,0.0
12.136652,0.03591911727152862,0.0
12.139036,0.034987951711750294,0.0
12.141432,0.03280610449668624,0.0
12.143816,0.03248658840117884,0.0
12.146195999999998,0.03244661155939185,0.0
12.148592,0.032127095463884446,0.0
12.15098,0.03073664418173851,0.0
12.153363999999998,0.029206423272732363,0.0
12.155768,0.027676202363726216,0.0
12.158156,0.025075046268081543,0.0
12.160536,0.024475990918853715,0.0
12.16294,0.024475990918853715,0.0
12.165324,0.021595295569488616,0.0
12.167708,0.017643665033484985,0.0
12.170104,0.013692034497481357,0.0
12.172488,0.011742504707894577,0.0
12.174872,0.00886180935852948,0.0
12.177268,0.006120883636024592,0.0
12.179652,0.005469257329966691,0.0
12.182031999999998,0.007099271024046063,0.0
12.184428,0.009660450277903753,0.0
12.186816,0.015154895837956617,0.0
12.189199999999998,0.022970958239933736,0.0
12.191596,0.03064725101505065,0.0
12.193984,0.035110738230251966,0.0
12.19638,0.04171609581873034,0.0
12.198776,0.05032355415362558,0.0
12.201164,0.059070782115381006,0.0
12.203544,0.06940080194297267,0.0
12.205936,0.07679755546436917,0.0
12.208324,0.08098150342585006,0.0
12.210703999999998,0.08609661694710928,0.0
12.213108,0.08986125602800955,0.0
12.215496,0.09683870066882541,0.0
12.217871999999998,0.10181404456322442,0.0
12.220268,0.11079358995045713,0.0
12.222651999999998,0.11604847309857656,0.0
12.225048,0.11888194661969853,0.0
12.227448,0.11897449441831559,0.0
12.229832,0.11785633740343389,0.0
12.232216,0.11580701482877391,0.0
12.234612,0.1129662963211958,0.0
12.237,0.10961372113442,0.0
12.23938,0.10360741889516945,0.0
12.241776,0.1089620948283621,0.0
12.24416,0.1091018644552223,0.0
12.246543999999998,0.113106065948056,0.0
12.24894,0.1171102674408897,0.0
12.251324,0.11874028113496905,0.0
12.25372,0.11850796370949179,0.0
12.256123999999998,0.12377009184406737,0.0
12.258511999999998,0.1293117592323634,0.0
12.260892,0.14328113848690746,0.0
12.263287999999998,0.14602930919586848,0.0
12.265675999999996,0.15157097658416452,0.0
12.268056,0.15110634173320997,0.0
12.270452,0.15608893061406517,0.0
12.272836,0.16363269874877803,0.0
12.275216,0.17061738837605003,0.0
12.277616,0.17853324356310038,0.0
12.28,0.1857974724440928,0.0
12.282396,0.1910596005786684,0.0
12.284791999999998,0.19376054945938628,0.0
12.287179999999998,0.20125709576585601,0.0
12.28956,0.19660126796696442,0.0
12.291963999999998,0.19515824572798843,0.0
12.294351999999998,0.18477565494356665,0.0
12.296732,0.17597585602498117,0.0
12.299127999999998,0.17090071934550893,0.0
12.301515999999998,0.1743458423309018,0.0
12.303896,0.17723188680885382,0.0
12.306299999999998,0.17597396016711198,0.0
12.308687999999998,0.16270342904686896,0.0
12.311068,0.15972294091243064,0.0
12.313468,0.15301779053887904,0.0
12.315851999999998,0.14645240979218765,0.0
12.318236,0.13695376273930107,0.0
12.320631999999998,0.12931744680597115,0.0
12.323019999999998,0.12224020938008207,0.0
12.3254,0.11530274158105318,0.0
12.327795999999998,0.10994806564786053,0.0
12.330183999999996,0.10445362008780766,0.0
12.332564,0.10016987934125351,0.0
12.33496,0.09281310266164401,0.0
12.337348,0.08765076731214165,0.0
12.339728,0.0829477176850069,0.0
12.342124,0.08159724324464795,0.0
12.344512,0.07764561270864431,0.0
12.346907999999996,0.07076071586644551,0.0
12.349303999999998,0.060151156785133456,0.0
12.351691999999998,0.047819036211124946,0.0
12.354072,0.0384201819433116,0.0
12.356467999999998,0.033956694728110276,0.0
12.358855999999998,0.027211567512771682,0.0
12.36124,0.02339970660362826,0.0
12.363644,0.021450176814041485,0.0
12.366032,0.020938320134843796,0.0
12.368411999999998,0.018197394412338905,0.0
12.370807999999998,0.016614602546502686,0.0
12.373195999999998,0.013594137570277378,0.0
12.375579999999998,0.009642507034273747,0.0
12.377976,0.0067618116849086475,0.0
12.380363999999998,0.0038811163355435482,0.0
12.382744,0.004579964469844599,0.0
12.385139999999998,0.006157407207093897,0.0
12.387527999999998,0.006996024968255158,0.0
12.389912,0.007415333848835789,0.0
12.392307999999998,0.009644402892142988,0.0
12.394695999999998,0.012944407122088717,0.0
12.397076,0.018106742471591088,0.0
12.399471999999998,0.021266977074676605,0.0
12.401856,0.023356276491123595,0.0
12.40424,0.02823907258690554,0.0
12.406636,0.028239072586905545,0.0
12.409024,0.028239072586905545,0.0
12.411419999999998,0.028239072586905545,0.0
12.413824,0.0280121042900152,0.0
12.416208,0.0280121042900152,0.0
12.418592,0.02764536636626464,0.0
12.420988,0.049130414332503716,0.0
12.423372,0.10077915969037882,0.012754729142872595
12.425755999999998,0.174073238632894,0.023705776656649843
12.428152,0.2591891388830685,0.03447743281754867
12.43054,0.35366357811424853,0.04538357198322268
12.432919999999998,0.47378565656503313,0.05561981916140238
12.435315999999998,0.623559575728256,0.06516431458362829
12.437699999999998,0.7995874344467677,0.07426726186546072
12.440084,0.9938155037645264,0.08316463208970082
12.442479999999998,1.1982353806958654,0.09216222526223031
12.444867999999998,1.4177352104651528,0.10113520554712245
12.447248,1.6653040890810422,0.10991373063831694
12.449643999999996,1.9334001442666906,0.11864128866605324
12.452031999999996,2.2123868552002195,0.12736613065396712
12.454427999999998,2.516505895403438,0.13590493104752252
12.456824,2.8324920828846905,0.14456886412551798
12.459212,3.1736612747345925,0.1530878013114099
12.461595999999998,3.5425293242366283,0.161341045141996
12.463996,3.9306250894120462,0.16935159865641447
12.466384,4.330873228692825,0.17715599905504567
12.468763999999998,4.695483741013457,0.1850950480971432
12.471171999999996,5.0208984395983896,0.18040125514597508
12.473556,5.333932238368223,0.1774123772640891
12.475936,5.646969828853796,0.1744478968259205
12.478332,5.946884241277461,0.17130940516472856
12.480716,6.215658464779337,0.16885586014776083
12.4831,6.446028270478433,0.1672034814304845
12.485504,6.64972482774166,0.16602216916067553
12.487892,6.835593261457976,0.16504898908128537
12.490272,7.015553628307266,0.1638728981068769
12.492675999999998,7.178199624146713,0.16270552176777447
12.49506,7.311054009646865,0.16178510890819295
12.49744,7.433856357160294,0.16081620896439408
12.499843999999998,7.555684109001441,0.15972743109813906
12.502231999999998,7.657075336213579,0.1588674323441419
12.504612,7.746274550923588,0.15783104746675156
12.507008,7.805682155294298,0.15696410707184075
12.509396,7.832175995706542,0.15645283926487222
12.511776,7.838463733057384,0.1562337962711403
12.514172,7.832878635556585,0.15620672861888188
12.51656,7.845265222945289,0.15592164828291274
12.518944,7.865148356640468,0.15548867204066819
12.521336,7.868550049513356,0.1552775315313996
12.523724,7.855655397161188,0.15534716606583013
12.526103999999998,7.852769352683234,0.1553553729813596
12.5285,7.851651195668352,0.15541283183317664
12.530888,7.851976060892448,0.15546702797663906
12.533267999999998,7.852161156489682,0.15552868513609874
12.535664,7.85486020951253,0.155564264605816
12.538052,7.855230400707001,0.15568549987909078
12.540431999999996,7.857183383767306,0.15579488663473454
12.542827999999998,7.85983521496191,0.15586852648672267
12.545215999999998,7.84791515828203,0.15610057271500447
12.547612,7.820352278541017,0.15650400144550763
12.550008,7.797911757307719,0.15678133877515046
12.552396,7.777006806112012,0.15708178092299765
12.554776,7.754471841222229,0.15743821910980565
12.557172,7.735009912265502,0.15774752051847749
12.55956,7.721926372600362,0.15797010830118743
12.561939999999998,7.7154535396522865,0.1581282514862785
12.564336,7.707256249353649,0.15840622395456153
12.566724,7.704039652077995,0.15867216597289113
12.569103999999998,7.708691688161147,0.15881632315252597
12.5715,7.721259579431352,0.15879737000399552
12.573887999999998,7.72665768547705,0.15886797091467
12.576284,7.744720022307307,0.15874710208702578
12.57868,7.776005668429563,0.15840614935287942
12.581068,7.806175053394807,0.15801641468147845
12.583448,7.834249789815017,0.1576334857622868
12.585844,7.863535231048725,0.15722970965193467
12.588232,7.897756039335046,0.15675976384195126
12.590616,7.943150834338706,0.15615410483989497
12.593012,7.993433774566735,0.15550216390868082
12.5954,8.049675795205772,0.15479054461657565
12.597779999999998,8.104659889203067,0.15415355431244882
12.600176,8.165463293984512,0.15348076117230036
12.602564,8.239163246975988,0.15265141262439283
12.604943999999998,8.31793833664694,0.15174388224532476
12.607344,8.39359506441446,0.15083641673030987
12.609732,8.469531331435702,0.14994364323797846
12.612111999999998,8.548587856218242,0.14898537810157267
12.614508,8.622104609470357,0.14806379299568395
12.616896,8.694737418990934,0.14712131662928757
12.619292,8.765415349593338,0.14618423151559326
12.621688,8.834370718703047,0.14526426171436052
12.624076,8.895969311133145,0.1444738790922318
12.626456,8.952445545055527,0.14379984584872607
12.628852,9.012319680135063,0.14313106356312214
12.63124,9.073404520028095,0.14244668580714884
12.63362,9.13183563286865,0.14179382721198228
12.63602,9.184492760895434,0.1412485482641638
12.638408,9.223135183697298,0.1408870712289205
12.640788,9.261964597954268,0.14048774065973363
12.643184,9.293531679188114,0.14012743211061543
12.645572,9.321049232958753,0.1397619402526514
12.647956,9.342235619266045,0.13943165455500403
12.650352,9.35732315553547,0.1391545453646882
12.65274,9.369245108073224,0.13889311606291874
12.655119999999998,9.376651002438948,0.13867277251334892
12.657516,9.370508722288575,0.13857440467255083
12.659904,9.35780106139151,0.13857193658889413
12.6623,9.34769990571868,0.13857912009004106
12.664695999999998,9.336760132284686,0.13862114994418054
12.667083999999996,9.32661175478361,0.1386588585423508
12.669464,9.318605247655812,0.13866658051421565
12.67186,9.309947114221957,0.13867187845227774
12.674248,9.30277922485532,0.13864491343226104
12.676632,9.29393599582423,0.13859888148686123
12.679028,9.276479959329656,0.13861403019826954
12.681416,9.253484151304658,0.13865237947627193
12.683796,9.230256025854182,0.1386711559527858
12.686196,9.216107238576011,0.1385797983392924
12.68858,9.203541243163675,0.13848118467327378
12.690964,9.196050384430816,0.13831956265483128
12.69336,9.184927411257458,0.13821968232431445
12.695748,9.174548612188774,0.13814789346577186
12.698128,9.168126792784681,0.13805977911950365
12.700524,9.163008225992703,0.1379766476726402
12.702912,9.164407818119175,0.13783151330636506
12.705291999999998,9.17553837472401,0.13757986760346436
12.707692,9.190812902448542,0.1372759261038117
12.71008,9.210790479800206,0.13689989507580722
12.712464,9.236030185286443,0.13642954008485747
12.714864,9.25237754405548,0.1360270739414669
12.717248,9.266490484652621,0.1356293782751597
12.719644,9.28367646118282,0.13519649131995773
12.722048,9.303144077713156,0.1347345866333789
12.724431999999998,9.324474025363049,0.13425815272724484
12.726812,9.350831887864171,0.1337497899516263
12.729207999999998,9.379004859656604,0.13325090544956633
12.731595999999998,9.407829457755096,0.1327555569013056
12.733976,9.433441250293672,0.13230549234038227
12.736371999999998,9.457330481339554,0.1318685851857417
12.738759999999996,9.479869237945074,0.1314580691836868
12.74114,9.50683150492401,0.1309835011646255
12.743536,9.533561454477468,0.13049112991975043
12.74592,9.55382046694072,0.13002862173711752
12.748304,9.572683678993242,0.12953665824938557
12.750707999999998,9.579581508395503,0.1291446367984253
12.753095999999998,9.57940210037188,0.12883246401176218
12.755476,9.575637799736,0.12854808009112434
12.757875999999998,9.565634879435393,0.12830997327727559
12.760263999999998,9.550137513574732,0.1281444997343899
12.762648,9.54004014961764,0.12796651637159667
12.765043999999998,9.532968599765358,0.12778424856890785
12.767431999999998,9.523894949166658,0.12762376522503543
12.769812,9.508814996328711,0.12752675633104793
12.772207999999996,9.48865990681129,0.12748481363093073
12.774596,9.468365047667008,0.12744829075807582
12.776976,9.45342486445592,0.12734495734819293
12.779375999999996,9.439602838259711,0.12719740652943462
12.78176,9.426898969078387,0.12700575038257722
12.78414,9.411122063964006,0.12684741739280952
12.78654,9.397347259596042,0.12666779889209218
12.788928,9.386365951907415,0.1264652913432255
12.791323999999998,9.372870686793172,0.12627431097577982
12.79372,9.361889379104541,0.12607083134724636
12.796107999999998,9.35016200145337,0.12592441471557475
12.798488,9.348630223131515,0.12572468580778348
12.800883999999998,9.352964977422051,0.12546795950623485
12.803271999999998,9.359860910966445,0.1251691710997094
12.805652,9.363124730070343,0.12492438690777088
12.808051999999998,9.36503807473388,0.12470280443272301
12.810439999999998,9.371374929770832,0.12442357260219838
12.81282,9.370681769210139,0.1241885831927625
12.815215999999998,9.367754190477553,0.12395434906649838
12.817603999999998,9.365245920625545,0.12370278892959491
12.819984,9.365111838572293,0.12344373611685047
12.822387999999998,9.366979857265456,0.12316387750057096
12.824775999999998,9.366985544839064,0.12290067457268067
12.827156,9.364150513905095,0.12269139262520354
12.82956,9.360197325956243,0.12252621600582553
12.831943999999998,9.362342988045258,0.1223250959337275
12.834327999999998,9.361647931626695,0.1221774452189889
12.836723999999998,9.35601750815552,0.1220781062938443
12.839107999999998,9.349828006176907,0.12200049860957056
12.841492,9.342148260131072,0.12195223231689632
12.843883999999996,9.335818988525595,0.12187995411474323
12.846272,9.327534838001945,0.12179695612531496
12.848663999999998,9.31766789561246,0.12171750476119343
12.85106,9.307241874715533,0.12165944928140261
12.853447999999998,9.304684487177411,0.12152688769395362
12.855828,9.306922697065044,0.12135251652389889
12.858232,9.305156705459842,0.12121833176572416
12.86062,9.308558398332732,0.12105662717957165
12.862999999999998,9.314706366056713,0.12090429617281194
12.865396,9.321458738258507,0.12078625309915554
12.867784,9.331144376766497,0.12064132473991007
12.870164,9.342832116020906,0.12047797081194797
12.872559999999998,9.355311251208231,0.12031414679604562
12.874943999999998,9.370583883074891,0.12012943432879274
12.877324,9.38599628456841,0.11993945478759627
12.87972,9.400757059755874,0.11974747126530956
12.882104,9.417427387891136,0.11951087212422215
12.884499999999996,9.437030982332592,0.11924804837489254
12.886895999999998,9.464503210132856,0.11891607655862921
12.889283999999998,9.494117308306397,0.11856006452407043
12.891664,9.523451867226218,0.1182151332959367
12.894059999999998,9.554089678758155,0.11787969790440384
12.896447999999998,9.587753304394905,0.11754640513359617
12.898844,9.620066455591296,0.11723645703578688
12.90124,9.652100067533963,0.11694097110760665
12.903628,9.682922974663137,0.11666441859235481
12.906007999999998,9.71868124884492,0.11634707846675407
12.908404,9.753648127093783,0.11603185695941573
12.910792,9.786520356797615,0.11571105222511391
12.913171999999998,9.82344400982252,0.11532631970917057
12.915568,9.86078697172801,0.11492988526202814
12.917955999999998,9.89598806326022,0.11455970786975712
12.920336,9.928255888486236,0.11421471786214676
12.922731999999998,9.957078590726859,0.11388505685066729
12.925115999999996,9.98683245852726,0.11355003753692922
12.927511999999998,10.013373520767747,0.11324954975683955
12.929908,10.043080166739905,0.11294707489546581
12.932296,10.072507273458342,0.11265594635334931
12.934675999999998,10.095136682004613,0.11242000170911648
12.937072,10.119488652043579,0.11217891838680989
12.93946,10.146122262082683,0.11191233612273019
12.941839999999996,10.172244015442589,0.11163857649742016
12.944235999999998,10.192127149137766,0.11139649260024825
12.946623999999998,10.213500526900162,0.11112953203006974
12.949007999999996,10.233291112796723,0.11086640247901121
12.951403999999998,10.251219367573727,0.11061484029354422
12.953791999999998,10.261139219365065,0.11042917238984361
12.956188,10.270919301529538,0.11024845032936986
12.958584,10.282421945186712,0.11006148127450413
12.960972,10.286567812164277,0.10994385716886071
12.963352,10.286429938395285,0.1098686174608506
12.965752,10.278423431267488,0.1098537799899495
12.96814,10.271208320072606,0.1098380614043393
12.97052,10.267717871116838,0.10979920400957942
12.972924,10.265438126974571,0.10974490891477615
12.975312,10.26464862689952,0.10966537963051604
12.977692,10.256409802346244,0.10963144500277872
12.980088,10.24751935148691,0.1095933743232545
12.982476,10.240351462120273,0.10954878360707947
12.984856,10.229458910514525,0.10952670819303141
12.987252,10.217076114841555,0.1095293498810612
12.98964,10.203994471034287,0.10955590040359521
12.992019999999998,10.198641690958963,0.10952810454488643
12.994416,10.194731933122616,0.1095036142587156
12.996804,10.186119125659134,0.10953470596616202
12.999183999999998,10.17936864931521,0.10955478607885727
13.001584,10.179415871143455,0.10952671896774861
13.003968,10.184538229651169,0.10945723245369693
13.006351999999998,10.19138314965158,0.10938215024857864
13.008748,10.20516553745102,0.10925493449287899
13.011136,10.223743522676212,0.10909628132923531
13.013532,10.253123407566408,0.10885817031246439
13.015928,10.282922601337184,0.10860628397714762
13.018316,10.31165085992132,0.10836616093867928
13.0207,10.3373060825724,0.1081525345237768
13.023096,10.36296130522348,0.10793977764710871
13.02548,10.393831434180894,0.10768110048899229
13.02786,10.42963693019092,0.10738974090829005
13.03026,10.46521010877547,0.10708158106205987
13.032644,10.504927258479713,0.10674056553102029
13.035028,10.542409990012061,0.10639632748609758
13.037432,10.58315274893257,0.1059985401090579
13.03982,10.619379449681043,0.10562568207126695
13.0422,10.65272010595157,0.10524741221371232
13.044596,10.692393825543308,0.1047892654628176
13.046984,10.73118360140351,0.10431048820044433
13.049364,10.767878728718678,0.10382694272138956
13.05176,10.799406171555757,0.10336300886376322
13.054148,10.826697095474525,0.10291091284347201
13.056532,10.851613831594541,0.10246221149649845
13.058928,10.873364983982885,0.1020162209904648
13.061312,10.896234293386108,0.1015402516778327
13.063691999999998,10.919103602789331,0.10106520757360901
13.066088,10.9395987243938,0.10059069438314477
13.068476,10.961444320438625,0.10009861327779858
13.070872,10.98557155648359,0.09958676806336285
13.073271999999998,11.009978331782278,0.09906882413723626
13.075656,11.024142285923404,0.09859966505718283
13.078036,11.037095535251028,0.09814407728887758
13.080443999999998,11.042459690473569,0.09772726688895218
