Time,Force,Position
14.479236,0.006960692753264471,0.0
14.481635999999998,0.010972635897510038,0.0
14.484023999999998,0.014193183108837494,0.0
14.486404,0.019415831066581804,0.0
14.488799999999998,0.021705212718130938,0.0
14.491187999999998,0.023203198436761968,0.0
14.493568,0.025632349715171313,0.0
14.495964,0.030203371366857724,0.0
14.498352,0.03291206189898749,0.0
14.500732,0.0374830835506739,0.0
14.503132,0.04326481001585905,0.0
14.50552,0.04783583166754546,0.0
14.507915999999998,0.05226708369237166,0.0
14.510312,0.05641879646347744,0.0
14.5127,0.05949957404794468,0.0
14.515079999999998,0.06136964681891319,0.0
14.51748,0.06136964681891319,0.0
14.519863999999998,0.06136964681891319,0.0
14.522244,0.060290969980862794,0.0
14.524644,0.05842089720989429,0.0
14.527031999999998,0.05440895406564872,0.0
14.529412,0.05039701092140315,0.0
14.531812,0.047176463710075695,0.0
14.534199999999998,0.04195381575233138,0.0
14.53658,0.03966443410078225,0.0
14.538984,0.03816644838215122,0.0
14.541372,0.03639666506121164,0.0
14.543751999999998,0.031825643409525234,0.0
14.546148,0.029776320834865228,0.0
14.548536,0.025864667140648584,0.0
14.550916,0.020082940675463436,0.0
14.553316,0.016311056608107003,0.0
14.555699999999998,0.011879804583280805,0.0
14.558084,0.009737934210003742,0.0
14.560488,0.00880676865022542,0.0
14.562876,0.017234480516473454,0.0
14.565255999999998,0.02874296996718874,0.0
14.567652,0.04104285535082213,0.0
14.570044,0.05548461110773258,0.0
14.572423999999998,0.07099730205128156,0.0
14.57482,0.08557882743505223,0.0
14.577208,0.10016035281882289,0.0
14.579587999999998,0.11059790708289965,0.0
14.581988,0.12382895802631136,0.0
14.584376,0.1342665122903881,0.0
14.586755999999998,0.14363313136782632,0.0
14.589156,0.1501985121145177,0.0
14.591544,0.1594253615650957,0.0
14.593923999999998,0.16505957675200877,0.0
14.596324,0.168691691192505,0.0
14.598712,0.1739143391502493,0.0
14.601091999999998,0.17712714471016489,0.0
14.603488,0.18127885748127068,0.0
14.605876,0.1814186271081309,0.0
14.608256,0.18435189341432603,0.0
14.610651999999998,0.1740541087771095,0.0
14.613039999999998,0.16254561932639428,0.0
14.615424,0.15024573394276092,0.0
14.617819999999998,0.1358039781858505,0.0
14.620203999999998,0.12029128724230147,0.0
14.622604,0.10650889944286078,0.0
14.625,0.09192737405909011,0.0
14.627388,0.0852222236855385,0.0
14.629772,0.07479241107287361,0.0
14.632168,0.06929796551282075,0.0
14.634556,0.06594539032604495,0.0
14.636936,0.0679474910724618,0.0
14.639336,0.06315189364670998,0.0
14.64172,0.07008936144573885,0.0
14.644099999999998,0.07237100144587612,0.0
14.646496,0.07637520293870982,0.0
14.648884,0.07893638219256752,0.0
14.651263999999998,0.08508245405867829,0.0
14.653668,0.09430156185784441,0.0
14.656056,0.10044763372395517,0.0
14.658435999999998,0.11102495761489213,0.0
14.660836,0.12225390781188701,0.0
14.663224,0.12910656946371069,0.0
14.665603999999998,0.13460875667517544,0.0
14.668,0.13838838239394372,0.0
14.670388,0.14202049683443996,0.0
14.672771999999998,0.14873338885940343,0.0
14.675168,0.14500098496887828,0.0
14.677556,0.1438375019836227,0.0
14.679939999999998,0.1388943932795988,0.0
14.682336,0.1328803493889364,0.0
14.684724,0.12365349993835836,0.0
14.687103999999998,0.11922224791353217,0.0
14.6895,0.10599119697012047,0.0
14.691888,0.0994180745720172,0.0
14.694271999999998,0.09019122512143918,0.0
14.696668,0.08361810272333593,0.0
14.699056,0.07332031808611938,0.0
14.701439999999998,0.06195159826226431,0.0
14.703836,0.050722648065269445,0.0
14.706224,0.04014532417433248,0.0
14.708607999999998,0.02891637397733762,0.0
14.711004,0.022063712325513938,0.0
14.713392,0.016561525114049205,0.0
14.715775999999998,0.012781899395280908,0.0
14.718172,0.008350647370454708,0.0
14.72056,0.0016377553454912373,0.0
14.722943999999998,0.002995971437262054,0.0
14.72534,0.0013582160917708166,0.0
14.727728,0.0013582160917708166,0.0
14.730111999999998,0.0013582160917708168,0.0
14.732508,0.0013582160917708168,0.0
14.734896,0.0013582160917708168,0.0
14.737279999999998,0.0013582160917708168,0.0
14.739676,0.0013582160917708168,0.0
14.742068,0.001598275168659952,0.0
14.744447999999998,0.0015982751686599518,0.0
14.746844,0.004771600551744258,0.0
14.749232,0.007013760375050245,0.0
14.751616,0.007013760375050245,0.0
14.754016,0.00790544575799728,0.0
14.756404,0.00790544575799728,0.0
14.758784,0.00790544575799728,0.0
14.76118,0.007905445757997282,0.0
14.763572,0.007905445757997282,0.0
14.765952,0.007905445757997282,0.0
14.768352,0.007905445757997282,0.0
14.77074,0.006547229666226464,0.0
14.773124,0.006547229666226464,0.0
14.77552,0.006547229666226464,0.0
14.777908,0.006547229666226464,0.0
14.780292,0.006547229666226464,0.0
14.782692,0.0065472296662264645,0.0
14.78508,0.006547229666226465,0.0
14.787464,0.006547229666226465,0.0
14.78986,0.0071855849671996555,0.0
14.792248,0.024726744048846994,0.0
14.794628,0.06060014170518998,0.0
14.79702,0.11737469884149812,0.012232660773332463
14.799408,0.18583904931001727,0.02427248416699887
14.801787999999998,0.26998191130075716,0.03558719224018839
14.804188,0.3778252752443398,0.04596364667845039
14.806572,0.5083849079592012,0.055640735881654205
14.808951999999998,0.6541189371684977,0.06509284266582208
14.811367999999998,0.810651074327058,0.07452839825641701
14.813752,0.9803555072336365,0.08388741611372531
14.816132,1.170122481859019,0.09297363689143844
14.818528,1.379672458949485,0.10186736178642235
14.820916,1.6081214947734994,0.11056369163156027
14.823296,1.8541663367189463,0.11909203828550026
14.825692,2.1115211432928547,0.12766071010050645
14.82808,2.3913599012125646,0.13601844384261497
14.830476,2.6901449396940658,0.14421032735817035
14.832871999999998,3.0063879105280087,0.15217931214388364
14.835259999999998,3.330731832146236,0.16002175807322078
14.83764,3.661042259387013,0.16769613863976326
14.840035999999998,3.9736662285656106,0.1753497361854759
14.842427999999998,4.259709497106955,0.18310424197930636
14.844808,4.52764510284767,0.1785955764524775
14.847203999999998,4.7884147150796155,0.17422421476019045
14.849591999999998,5.024280862196632,0.17067024801309275
14.851972,5.229004924533992,0.16815173500549543
14.854371999999998,5.406217120674321,0.1664243023233155
14.856756,5.57076887774583,0.16489004672693833
14.85914,5.724894613920411,0.16339204783681152
14.861535999999996,5.865708284720114,0.1619796622686555
14.86392,5.981244507494682,0.16096162788205545
14.866304,6.075507483736945,0.16019081188474535
14.8687,6.150684409790558,0.15967476922607243
14.871088,6.209429012707995,0.1593381664034852
14.873483999999998,6.260076456556885,0.15888089598359656
14.87588,6.281070163835468,0.1587571426367923
14.878267999999998,6.281255259432701,0.15883559242791218
14.880648,6.267427545662886,0.15908356077637265
14.883043999999998,6.251085874467457,0.159352516242153
14.885431999999998,6.2281788225253365,0.15977109658613564
14.887812,6.205923396889272,0.16019079016935578
14.890211999999998,6.190884978305959,0.16045718618649527
14.892595999999998,6.1727263019613465,0.1608365687138884
14.89498,6.157965526773885,0.16120744000966428
14.897384,6.158056178714633,0.16137147787892533
14.899772,6.171135926664036,0.16135929914520386
14.902151999999996,6.189243589464664,0.1612828811232502
14.904547999999998,6.206233095250414,0.1612773686293547
14.906935999999998,6.22960099032775,0.16117130453569162
14.909319999999996,6.25725262615164,0.16097145097949517
14.911715999999998,6.28774498048311,0.16066960059972255
14.914103999999998,6.31893618294888,0.16031960840761125
14.916484,6.348452045750196,0.1599422845338523
14.918883999999998,6.378387217432093,0.15954015843797972
14.921271999999998,6.408554706539468,0.15917553577581803
14.923652,6.445752211244489,0.15869659216710807
14.926047999999998,6.4856034430019855,0.15817481548381043
14.928435999999998,6.524243969945982,0.1576953364751047
14.930816,6.563256583942318,0.15725327800728045
14.933211999999996,6.607157343163022,0.15676972309845463
14.9356,6.6525011246227015,0.15628425317543126
14.93798,6.694771870149326,0.15586488880677135
14.940388,6.743096139743445,0.15528744960550825
14.942776,6.7876031992998325,0.1547474525293244
14.945156,6.82745443105733,0.15429568119917947
14.947551999999998,6.864000309456291,0.15388707465742468
14.949939999999998,6.900872948937217,0.15342068849388382
14.952324,6.936908866514853,0.1528849915814332
14.954728,6.966334077375421,0.15242260263986016
14.957112,6.994269044168772,0.1520144774315223
14.959492,7.028442630626849,0.1515296644889872
14.961887999999998,7.063687152271567,0.15102354323169598
14.964275999999998,7.104518667274955,0.15043888412363815
14.966659999999996,7.148562987838258,0.14980114519200363
14.969055999999998,7.189953581349086,0.14920171823299108
14.971439999999998,7.23562791560647,0.14852676108259977
14.973824,7.285213903558067,0.14776475606098805
14.976219999999998,7.331401990352516,0.14700122970841983
14.978607999999998,7.365392377071228,0.14637003190078046
14.981004,7.393703222632654,0.14578889811217025
14.9834,7.419080801887885,0.14525212328595385
14.985788,7.446879790770113,0.14466188275607467
14.988172,7.467508994427835,0.14416000380105415
14.990568,7.486695175846581,0.14366338407396134
14.992956,7.502016925399353,0.14322303379950788
14.995335999999998,7.514777495698267,0.1428444021709645
14.997732,7.526327361183686,0.14249326681144817
15.00012,7.538808392228879,0.14213211610948112
15.002499999999998,7.550637796968015,0.14176846257430759
15.004896,7.560744640214457,0.14142385535037041
15.007284,7.5672665908486465,0.1411221086004511
15.009667999999998,7.572065979990136,0.14083636902321586
15.012072,7.57118582797434,0.1405902648397188
15.014456,7.56141332924134,0.14043921404782508
15.016839999999998,7.551268743456002,0.14027086765058686
15.019236,7.535397394685133,0.1401783922380771
15.021624,7.510446707741958,0.14022345960901997
15.024007999999998,7.483074611171786,0.14032160902473226
15.026404,7.464083004639618,0.14031661515059127
15.028792,7.446534420346427,0.14030960243935311
15.031176,7.434572829411907,0.14023285257399495
15.033576,7.420329598477251,0.14020016438583244
15.03596,7.407157302729233,0.14014866289889724
15.038344,7.391051740675018,0.14013897752347773
15.04074,7.379090149740499,0.14006110388623466
15.043128,7.370620903619618,0.13991226325723125
15.045512,7.363502131939091,0.13972981145098173
15.047908,7.3506565972730336,0.13962292873107027
15.0503,7.333387552233567,0.13959968524603936
15.05268,7.311322909768344,0.13964363893609946
15.055076,7.290049663236041,0.13968211989044946
15.057464,7.268496877450016,0.13973605337269335
15.059843999999998,7.244103373156412,0.1398684750428695
15.062248,7.222456143713901,0.14000822027722415
15.064636,7.19983052688337,0.14020100864903431
15.067016,7.181441428971151,0.14035479462577277
15.069416,7.167288849977241,0.1404723151320977
15.071804,7.159142573222582,0.1404934051155094
15.074184,7.149645822027566,0.1405486984816212
15.07658,7.1380072004592705,0.14064368396399837
15.078968,7.120921355159166,0.14080303456808635
15.081347999999998,7.10518598429942,0.14092716245172585
15.083755999999996,7.089962470118871,0.1410621480958302
15.08614,7.079627101162693,0.141162304449395
15.088524,7.071014293699211,0.14124393463852603
15.09092,7.065334752541921,0.14128096499473508
15.093308,7.06067892474303,0.141338438805977
15.095688,7.062121946982006,0.14133740365986092
15.098088,7.07543780407262,0.1411620065032174
15.100476,7.096482524895183,0.14087995870810746
15.102856,7.120460512023943,0.14056085533153978
15.105252,7.149234096578454,0.1401797501498679
15.107644,7.187738645611328,0.13966420997237947
15.110024,7.2286646042711995,0.13909589459661603
15.112424,7.274573151811928,0.13842331530789656
15.114808,7.317176345994124,0.13777752945731608
15.117192,7.362061180176457,0.13709135974823242
15.119588,7.403453669545154,0.13647741518441642
15.121976,7.443263367048014,0.13587123606921406
15.124356,7.487636344551148,0.13518198918140567
15.126756,7.533871653173839,0.1344687538035199
15.129144,7.57847694810245,0.13380251912157473
15.131524,7.62480480452376,0.1331219734432122
15.13392,7.668246616467116,0.1324454864625922
15.136308,7.708894931731139,0.13180975287220256
15.138687999999998,7.739532743263077,0.13131797714359056
15.141088,7.7687275325560385,0.13082884627310892
15.143476,7.797550234796664,0.1303267647949165
15.145855999999998,7.816781742185784,0.1299474431634087
15.148252,7.83349929214929,0.1295894482780409
15.15064,7.845421244687042,0.1292911194481669
15.153036,7.85468947017232,0.12901811322026752
15.155431999999998,7.858230932672067,0.12881274554582825
15.157819999999996,7.864845431104873,0.1285668484938211
15.1602,7.865174088044705,0.12841260886445044
15.162599999999998,7.86908763759679,0.12822757879764618
15.164987999999996,7.87113885602932,0.12806210673622045
15.167368,7.876402880021764,0.12784913585045324
15.169767999999998,7.885531335880181,0.12759334946684828
15.172155999999998,7.891307216551824,0.1273928304832459
15.174536,7.900295902783383,0.12714699513798072
15.176935999999998,7.913708099388354,0.12683401953419252
15.17932,7.927399835247045,0.12650954428441413
15.1817,7.942814132598435,0.12617448733235093
15.1841,7.952361897337432,0.12590401973255316
15.186484,7.969498756181516,0.12555377700910325
15.188868,7.9874270109585215,0.12520218521607554
15.191264,7.99958128092175,0.12494589311489246
15.193652,8.012247407564177,0.12469766810985315
15.196032,8.023283520512527,0.1244917415311941
15.198432,8.03618196458043,0.12426783149798673
15.20082,8.049452495700674,0.12406152994955005
15.203204,8.062443487567196,0.1238674723705997
15.2056,8.06835724200783,0.12376361601195834
15.207988,8.072920522008104,0.12368747185556113
15.210368,8.073898909396124,0.12364178442358642
15.212768,8.073387052716928,0.12363133361371066
15.215152,8.069802160104674,0.1236612813492077
15.217536,8.063004461932504,0.12373758111987383
15.219932,8.058208864506753,0.12378901941192873
15.22232,8.048849987080727,0.1239145760281574
15.224704,8.036929930400843,0.12408854741450731
15.2271,8.022728233720823,0.12429926220622316
15.229492,8.007967458533361,0.12453473846346061
15.231872,8.002937647824263,0.12466318101836191
15.234272,7.996325045249328,0.12479534337394133
15.23666,7.986499637114479,0.12497297365388077
15.239044,7.9848224015921545,0.12504931480651527
15.24144,7.992084734615279,0.12502225089433974
15.243828,8.003770578011816,0.12493011062287092
15.246212,8.015456421408354,0.12483863264288181
15.248611999999998,8.025279933685335,0.12476394670774507
15.250999999999998,8.040969978574706,0.1246269821599729
15.253384,8.062386786449606,0.12443298954451781
15.255788,8.091300140630977,0.12413703822785696
15.258171999999998,8.124589783357521,0.12381408199910916
15.260552,8.1601610660842,0.12345542722955953
15.262943999999996,8.200527946236631,0.12305155223482102
15.265332,8.243176466389198,0.12261465559159267
15.267712,8.281960554675795,0.12221745186053762
15.270108,8.323957448522306,0.12177742076552141
15.272496,8.36208991050284,0.12137392851497086
15.274891999999998,8.403155638789574,0.12093977174661656
15.277288,8.44478044558375,0.12048275416652286
15.279675999999998,8.48268059013881,0.12006532638710735
15.282056,8.51815932506687,0.11968857014622358
15.284451999999998,8.561134606301403,0.11921608069408406
15.286839999999998,8.603598030856737,0.11874184532202595
15.28922,8.637820735000927,0.11833804469427264
15.291624,8.666037136905866,0.11800064195021609
15.294007999999998,8.695044934743724,0.11766360320852634
15.296392,8.730478343701412,0.11724954352655778
15.298787999999998,8.76381710411407,0.11683598423052206
15.301171999999998,8.794641907101111,0.11643558212501627
15.303556,8.823185070088014,0.11607210942240094
15.305951999999998,8.845349843783328,0.11575390525735901
15.308339999999998,8.866071595239667,0.11543380826296394
15.31072,8.882417058150837,0.11513981793791848
15.313123999999998,8.894106693263113,0.11488110433108673
15.315511999999998,8.909009133935307,0.11458432055290953
15.317892,8.922608321995382,0.11428055516548578
15.320287999999998,8.940119163749674,0.11390988685544537
15.322672,8.957397688078489,0.11352037641796534
15.325052,8.972674111660886,0.11315073452372551
15.327455999999998,8.987019369683507,0.11278903482665456
15.329843999999998,9.005555820654065,0.11235246017317312
15.332228,9.014361307146258,0.11200109708520832
15.334628,9.019162592145618,0.11168892212174643
15.337015999999998,9.026897143451173,0.11135156800160244
15.339396,9.036261708450807,0.11097907367404558
15.3418,9.04274022897249,0.11060027729853651
15.344188,9.04335221688178,0.110273817991265
15.346567999999998,9.038609528857876,0.11000703553465394
15.348964,9.033354984154778,0.10972999701581794
15.351352,9.024003690160228,0.109462610885439
15.353732,9.020007072098872,0.10913582257615469
15.356127999999998,9.015730914783793,0.10881955483211415
15.358515999999998,9.010383822282076,0.10851433262481124
15.360896,9.008901161646333,0.10817785774261224
15.363291999999998,9.003414299517756,0.10787716339497713
15.365679999999998,8.994574862202406,0.10761675474032559
15.36806,8.987038677499168,0.107366177464407
15.370476,8.975358521676238,0.1071564717070161
15.37286,8.965168609920527,0.10691823238008884
15.375239999999998,8.953116367045261,0.10669189975635915
15.377636,8.93529013935622,0.10653977110148431
15.380024,8.925984171332045,0.1063265917502241
15.382407999999998,8.917749138494507,0.10610154326852814
15.384804,8.907372235283693,0.10589948508462409
15.387187999999998,8.900440455058272,0.10568442582802366
15.389571999999998,8.89267005707169,0.10550142078386088
15.391976,8.885551285391168,0.10532315958274842
15.394364,8.883367880763254,0.10510392420378056
15.396748,8.884350059867014,0.10488340554463142
15.399144,8.887287117888949,0.1046773446761576
15.401528,8.885660895910608,0.10452777896447482
15.403911999999998,8.886828170611603,0.10436090040682569
15.406308,8.89078894199193,0.10417650075398008
15.408696,8.894470174118537,0.10400357538494476
15.411075999999998,8.904017938857535,0.1037855266050262
15.413476,8.920503171395564,0.10351205333733102
15.415864,8.936848634306735,0.10324590627147487
15.418243999999998,8.959852025763212,0.10293620838053379
15.420644,8.982436108339106,0.10264381991886931
15.423028,9.008093226848056,0.10232475371598773
15.425411999999998,9.040687813156035,0.1019521342057877
15.427808,9.067276097224763,0.10163023100039358
15.430196,9.093724611666632,0.1013146518396796
15.432579999999998,9.118682882041282,0.10102438894895586
15.434984,9.139636950923098,0.10076807277386586
15.437368,9.162593120551332,0.1004949559494977
15.439752,9.185828829433285,0.10021193054164083
15.442156,9.2079936031286,0.09994169889855281
15.44454,9.225642318651882,0.09969369741633842
15.44692,9.2479940838023,0.09939017945165635
15.449316,9.271416784139358,0.09907499920889624
15.451704,9.294048088543496,0.09876206799352105
15.454083999999998,9.317750328134274,0.09844098753041032
15.45648,9.341871876605632,0.09810617871957446
15.458868,9.360266662091458,0.09780788027881322
15.461247999999998,9.375588411644232,0.09753763986010847
15.463644,9.38732526858475,0.09728247582062312
15.466031999999998,9.391473031420182,0.09707232949140543
15.468428,9.396412190188533,0.09686278822731628
15.47082,9.400140644143384,0.09666886079239023
15.473208,9.398282104739566,0.0965044146009061
15.475587999999998,9.400847075709162,0.09629566771267267
15.477992,9.403551816305619,0.09608208974562783
15.48038,9.41002844096943,0.09581883642201248
15.482764,9.415713669700327,0.09555459753498505
15.48516,9.424891243244858,0.09525247592990636
15.487548,9.43313765122961,0.09495522674533485
15.489928,9.43658846178861,0.09468559396859982
15.492324,9.443112308280668,0.09439202658759183
15.494712,9.443350313279753,0.09415224018789538
15.497096,9.447732289398532,0.0938799727573717
15.499492,9.455187301450366,0.09358638026600333
15.501876,9.460640212755782,0.09330758776139553
15.50426,9.462880318501284,0.09305682139192321
15.506656,9.473640683911652,0.09276318643824617
15.509044,9.48454081894888,0.09246580137536482
15.511423999999998,9.498374220292302,0.09215085982283137
