Time,Force,Position
14.40624,0.06233167105113812,0.0
14.408639999999998,0.06060910955844169,0.0
14.411023999999998,0.062099353625660846,0.0
14.413408,0.06674865104397613,0.0
14.415803999999998,0.07266240548460962,0.0
14.418191999999998,0.07917403402248155,0.0
14.420576,0.08661682812013179,0.0
14.422971999999998,0.09191775184450496,0.0
14.425359999999998,0.09405962221778202,0.0
14.42774,0.09721867556887816,0.0
14.430135999999996,0.09606172296419889,0.0
14.432524,0.09304243923996298,0.0
14.434919999999998,0.08587918439603316,0.0
14.437316,0.0776449943654648,0.0
14.439704,0.0715526747081735,0.0
14.442087999999998,0.065320585424022,0.0
14.444484,0.05801756095323196,0.0
14.446872,0.052716637228858776,0.0
14.449251999999998,0.05085430610930214,0.0
14.451652,0.04885220536288529,0.0
14.45404,0.05057476685558172,0.0
14.456419999999998,0.047136174250765175,0.0
14.458824,0.0426266464593101,0.0
14.461212,0.03797734904099482,0.0
14.463591999999998,0.031325950876262686,0.0
14.465988,0.02481432233839076,0.0
14.468376,0.017371528240740515,0.0
14.47076,0.01207060451636733,0.0
14.473156,0.009842716725049529,0.0
14.475544,0.006683663373953405,0.0
14.477923999999998,0.007421307098052046,0.0
14.48032,0.010021281941707327,0.0
14.482708,0.012341717531642187,0.0
14.485091999999998,0.012341717531642187,0.0
14.487488,0.012341717531642187,0.0
14.489876,0.012341717531642187,0.0
14.492255999999998,0.012341717531642187,0.0
14.494652,0.012341717531642187,0.0
14.497039999999998,0.010905225673242498,0.0
14.49942,0.008677337881924695,0.0
14.50182,0.005658054157688783,0.0
14.504203999999998,0.005658054157688783,0.0
14.506588,0.005976389001206794,0.0
14.508983999999998,0.007505428658223544,0.0
14.511371999999998,0.007505428658223543,0.0
14.513752,0.008754929061519874,0.0
14.51616,0.013636543905312427,0.0
14.518548,0.01702791468188582,0.0
14.520927999999998,0.020838594339039843,0.0
14.523328,0.026092296235169874,0.0
14.525712,0.025354652511071232,0.0
14.528095999999998,0.024004178070712277,0.0
14.530492,0.02168374248077742,0.0
14.53288,0.02414394769757249,0.0
14.535263999999998,0.024143947697572492,0.0
14.53766,0.0244622825410905,0.0
14.540048,0.0244622825410905,0.0
14.542431999999998,0.0244622825410905,0.0
14.544828,0.0244622825410905,0.0
14.547216,0.0244622825410905,0.0
14.549595999999998,0.0244622825410905,0.0
14.551996,0.0244622825410905,0.0
14.554384,0.024143947697572492,0.0
14.556763999999998,0.022614908040555742,0.0
14.559164,0.022614908040555742,0.0
14.561552,0.021365407637259415,0.0
14.563935999999998,0.01648379279346686,0.0
14.566332,0.013092422016893469,0.0
14.568724,0.009281742359739446,0.0
14.571103999999998,0.004028040463609412,0.0
14.573504,0.004206605680267212,0.0
14.575892,0.002957105276970881,0.0
14.578276,0.002957105276970881,0.0
14.580672,0.0004969000601758096,0.0
14.58306,0.0004969000601758096,0.0
14.585444,0.00017856521665779972,0.0
14.58784,0.0024990008065926606,0.0
14.590228,0.004447349344190042,0.0
14.592612,0.009701051240320073,0.0
14.595008,0.017236393136587376,0.0
14.5974,0.02649429652555111,0.0
14.59978,0.036031739168235266,0.0
14.60218,0.043567081064502564,0.0
14.604568,0.05389591964010484,0.0
14.606952,0.058637764857037186,0.0
14.609351999999998,0.0631000708202491,0.0
14.611739999999998,0.0631000708202491,0.0
14.61412,0.06355817529062732,0.0
14.616523999999998,0.06355817529062732,0.0
14.618911999999998,0.06355817529062732,0.0
14.621292,0.06337961007396953,0.0
14.623696,0.06337961007396953,0.0
14.626079999999998,0.06337961007396953,0.0
14.62846,0.06337961007396953,0.0
14.630855999999998,0.06337961007396953,0.0
14.633243999999998,0.06337961007396953,0.0
14.635628,0.06105917448403467,0.0
14.638032,0.05911082594643729,0.0
14.640415999999998,0.05385712405030726,0.0
14.642796,0.046321782154039946,0.0
14.645191999999998,0.03706387876507622,0.0
14.647579999999998,0.02840384947335091,0.0
14.649964,0.025750122420876157,0.0
14.652359999999998,0.01923196350242791,0.0
14.654747999999998,0.021094294621984554,0.0
14.657128,0.02337593462212182,0.0
14.659523999999998,0.029980110958610803,0.0
14.661911999999996,0.03147035502582997,0.0
14.664292,0.03421009949634545,0.0
14.666695999999998,0.03601867840708262,0.0
14.669083999999998,0.03875842287759812,0.0
14.671464,0.042569102534752136,0.0
14.673859999999998,0.04610024293818574,0.0
14.676247999999998,0.04856044815498081,0.0
14.678628,0.05181204930469399,0.0
14.681024,0.056134585641045696,0.0
14.683412,0.060457121977397416,0.0
14.685792,0.060457121977397416,0.0
14.688188,0.060457121977397416,0.0
14.690576,0.060457121977397416,0.0
14.692956,0.060457121977397416,0.0
14.695359999999996,0.05957970862643858,0.0
14.697748,0.05469809378264602,0.0
14.700128,0.050887414125492,0.0
14.702524,0.04428323778900302,0.0
14.704908,0.037539291825653825,0.0
14.707292,0.03093511548916484,0.0
14.709688,0.042518931797739086,0.0
14.712076,0.07216318907870042,0.0
14.714468,0.1255474284893358,0.009383348211861728
14.716863999999998,0.1982953614844741,0.0181883316603776
14.719251999999996,0.2870090869069655,0.02665301843326883
14.721636,0.3931788488240293,0.03485717847894653
14.724031999999998,0.5147553246610054,0.04311531935021572
14.726419999999996,0.6536933933360676,0.05134403351556886
14.7288,0.8130660907822712,0.059381091214027994
14.731196,0.9952022788279965,0.06713529839866753
14.733584,1.1981858741448677,0.07480588299781361
14.735968,1.4120601252096197,0.08260935686425484
14.738364,1.640642242059983,0.09049421934539598
14.740752,1.8870052606290129,0.09836470465854205
14.743132,2.149194301998536,0.10621668540770351
14.745539999999998,2.426977048743075,0.1140200267209496
14.747927999999998,2.722727688661384,0.12175758875353444
14.750308,3.03709784805952,0.1294389623864655
14.752703999999998,3.371717540631564,0.13701439771142793
14.755091999999998,3.723236087048609,0.1444514102927501
14.757476,4.063596656418237,0.15187194385796365
14.759871999999998,4.379006538844691,0.1593629206822032
14.762259999999998,4.667510855409801,0.1575074682091015
14.76464,4.9377224135770446,0.1561947589343638
14.767035999999996,5.193131662302191,0.15521312875076096
14.769424,5.432295579346264,0.15447845275066885
14.771808,5.6594053576572,0.15363938155879855
14.774203999999996,5.868781456077714,0.1528063076087263
14.776592,6.056092912033005,0.15219614185041214
14.778972,6.222316217053228,0.15189130016396774
14.781375999999998,6.3809069978558615,0.15156281016126452
14.783763999999998,6.536056447388837,0.1510016275659674
14.786144,6.680362463002178,0.1503033717730334
14.788539999999998,6.808190829508965,0.14962466381818418
14.790927999999996,6.926524340678607,0.1489276719317206
14.793308,7.0320104213243235,0.14828256341068147
14.795704,7.120180235102328,0.14770580214830226
14.798092,7.19308310458728,0.14712288825620698
14.800487999999998,7.2450848145922695,0.1466432618902969
14.802884,7.28284139780473,0.14627528365686235
14.805272,7.322600081763608,0.14588224053817112
14.807651999999996,7.372042508372607,0.14538212063361677
14.810052,7.422648417966861,0.14488443176582755
14.81244,7.470832917934118,0.1444428627552663
14.814819999999996,7.5196690442074345,0.14400757640073533
14.817215999999998,7.570180510145203,0.14359645790691078
14.819603999999998,7.617991027202254,0.14325602100502932
14.821984,7.658444767579697,0.14303748578832054
14.824383999999998,7.696384550531525,0.1428359676154916
14.826771999999998,7.728505022699205,0.14267989625826308
14.829155999999998,7.748520342589768,0.14268838012475057
14.831552,7.758292841322768,0.14283319057585148
14.833939999999998,7.761035324458122,0.14305396548441832
14.83632,7.759960597555748,0.14329236550692537
14.838715999999998,7.749761206510693,0.14360551338752853
14.841103999999998,7.7394692676670225,0.14388482362921118
14.843488,7.730667572890569,0.14412189392214142
14.845883999999998,7.714928410315087,0.1444640468172246
14.848271999999998,7.695976442179688,0.14486740994321373
14.850656,7.6726009636708765,0.14535573620156778
14.853051999999998,7.643358952549674,0.14592914022986905
14.855439999999998,7.612534149562635,0.1465051709420318
14.85782,7.590137058441844,0.14693251444860642
14.860219999999998,7.565785088402877,0.14735527321949785
14.862607999999998,7.537755677953042,0.14778631697624453
14.864988,7.510332567838889,0.14814639452064504
14.867387999999998,7.480814809179704,0.14850930280638602
14.869775999999998,7.4609354672002635,0.14870418042862338
14.872156,7.440823807795347,0.14887873937009893
14.87456,7.426997989883402,0.14894548016363263
14.876943999999998,7.421040805330264,0.14889343464405125
14.879327999999996,7.419599678949157,0.14878791232757568
14.881723999999998,7.42211553223264,0.14865729473921538
14.884107999999998,7.429007674061296,0.14847997197072377
14.886492,7.437482607755787,0.14829099803675785
14.888887999999998,7.444374749584441,0.14811347638534378
14.891275999999998,7.45420015771929,0.14789559741382657
14.893672,7.468821163279893,0.14760939832414172
14.896068,7.490659175893245,0.14720271135289592
14.898456,7.513243258469141,0.14671863937359803
14.900835999999998,7.537736893992836,0.14617022626118104
14.903232,7.558785406531139,0.14565732933083006
14.90562,7.57275668164355,0.14526227398004524
14.908003999999998,7.587659122315742,0.1448528638790817
14.910396,7.600187375189179,0.14445540151608793
14.912783999999998,7.607128634703945,0.1441314730767539
14.915164,7.618725722017604,0.14374731903202037
14.917564,7.629903500450683,0.1433889932330623
14.919952,7.646947811496152,0.14294559895317227
14.922332,7.659615833996448,0.14254734180089948
14.924727999999998,7.662460344219765,0.1422566984637767
14.927115999999998,7.664141371457826,0.14195463991134682
14.929499999999996,7.66572985089727,0.1416220532846327
14.931895999999998,7.662430185112344,0.14132276350182554
14.934283999999998,7.659876589289964,0.14094846807362338
14.93668,7.656299280109188,0.14055472704534305
14.939076,7.640709366449911,0.14034154168136903
14.941464,7.625259222417492,0.14012075042332614
14.943848,7.601288818720211,0.14000923373518243
14.946244,7.5793205157693455,0.13986564412846436
14.948632,7.5548382553928635,0.13974086632656443
14.951012,7.531799017255359,0.13961457918557407
14.953408,7.5091318661701925,0.13950614115379925
14.955796,7.489397981391221,0.13935511040168694
14.958175999999998,7.473668298105085,0.13914287513534204
14.960576,7.459800945938503,0.13890694859657332
14.962964,7.444862658585283,0.1386895185462635
14.965343999999998,7.432066241605339,0.13843520739664228
14.967744,7.414334457572783,0.1382494853070067
14.970132,7.398604774286646,0.1380335084973759
14.972511999999998,7.386459983612759,0.1377790463432919
14.974912,7.372964718498514,0.13755679094886067
14.9773,7.3609124756232465,0.13733336756156286
14.979679999999998,7.352305355733369,0.13707897524286297
14.982076,7.348446611441002,0.13680184795975406
14.984464,7.344680414947252,0.13655623419630428
14.986847999999998,7.350924722185586,0.1361646625431248
14.989248,7.35796042535684,0.13577176817185854
14.991632,7.373795927446677,0.13525991800105017
14.994015999999998,7.389863746961992,0.13477576949836262
14.996412,7.4097487765150385,0.13428079284310734
14.9988,7.430844510881582,0.1337625420556894
15.001179999999998,7.453989567822788,0.1331774897821259
15.003576,7.473270192898019,0.1326420555797967
15.005968,7.4925035961450055,0.13214765494003458
15.008347999999998,7.513319791257831,0.13164744785250704
15.010748,7.533344590437737,0.1311524180929801
15.013136,7.545221217005116,0.1307764432890695
15.015515999999998,7.561474132117667,0.13036292371034666
15.017912,7.5799614654021115,0.12994861559068405
15.0203,7.599891820925531,0.12953339573873315
15.022683999999998,7.618611471635454,0.12914018615909653
15.02508,7.63425808641232,0.12879312207895882
15.027468,7.649764931562328,0.1284540863360457
15.029847999999998,7.657123604099805,0.1282321850436617
15.032248,7.662340406264008,0.12804401002168858
15.034636,7.665043251002594,0.12787369302925394
15.037028,7.662159102382511,0.1277638035114997
15.039427999999996,7.654432134508434,0.12774953110157888
15.041816,7.6421418866340804,0.1278176345408153
15.0442,7.628129077267032,0.12789856159233848
15.046595999999996,7.614767894206041,0.12798216756581401
15.048984,7.600288554130169,0.12812029208270956
15.051368,7.591908064092165,0.12820908453584004
15.053763999999996,7.5839468829347405,0.12827683018519676
15.056151999999996,7.573843831404038,0.12837787752066204
15.058536,7.565323571739173,0.12847234801034296
15.060931999999998,7.56117960061948,0.12853221963893924
15.063319999999996,7.5571753991266455,0.12858464232101258
15.0657,7.550098161700757,0.1286795831156182
15.068099999999998,7.545162794648145,0.12874129883484156
15.070487999999996,7.546093960207924,0.1287317113786447
15.072868,7.5495390831933165,0.12870686793562103
15.075267999999998,7.5533562932310465,0.1286994837176149
15.077655999999998,7.566485158866561,0.12859676754271518
15.080036,7.583478456368048,0.1284489747841932
15.082432,7.603357798347487,0.1283053937009572
15.084816,7.631058551857489,0.12810404811978424
15.0872,7.660621636487049,0.12788264116551637
15.0896,7.698612432982857,0.12753973254574558
15.091988,7.738605330225081,0.12717343244222507
15.094368,7.779389623400224,0.12680858250022303
15.096771999999998,7.82431788769506,0.1263901739088651
15.099159999999998,7.864450554564145,0.12602693677728746
15.10154,7.90430368217951,0.12567933942385595
15.103935999999996,7.948300780914568,0.12527797062490664
15.106324,7.9924376492764875,0.12487441121873841
15.108704,8.04085825838496,0.12441534804454904
15.1111,8.086066061933517,0.12400363390808475
15.113488,8.132624339922433,0.12356324433865616
15.115872,8.177040747538072,0.12315534374796562
15.118268,8.220386219967075,0.12276947009294059
15.120656,8.266432641276793,0.12233499085764794
15.123036,8.317321881840508,0.12182454898597435
15.125439999999998,8.360110171619937,0.12138002547431495
15.127824,8.403969396586007,0.1209261220094483
15.130208,8.44694467782054,0.1204524861355146
15.132604,8.485823209763621,0.11999928779434108
15.134992,8.52246732353481,0.11954500637999593
15.137372,8.554176070253385,0.11914769920437439
15.139775999999998,8.584953651412183,0.11876095383604837
15.14216,8.61056354809289,0.1184033080803398
15.14454,8.633659487347982,0.11806085829733531
15.146936,8.659037066603211,0.11768552821837162
15.149324,8.683483480298664,0.11731847832133556
15.151708,8.7059277932477,0.11697554614034626
15.154104,8.726649544704038,0.1166435008771919
15.156492,8.741644533174846,0.11636441028407644
15.158887999999996,8.757710456832294,0.11607149370753526
15.161283999999998,8.776430107542216,0.11576412309906246
15.163667999999998,8.79570883675958,0.11543390449878652
15.166052,8.814895018178326,0.11508003453220349
15.168447999999998,8.827283501424901,0.11478937399335336
15.170835999999998,8.835248474298062,0.11455844961792437
15.173216,8.847077879037199,0.11429340814908472
15.17562,8.854530995231164,0.11405276173800932
15.178007999999998,8.855418730678434,0.11389337220983997
15.180388,8.858308566872124,0.11371500184036178
15.182783999999998,8.869858432357539,0.11346548843673591
15.185171999999998,8.881687837096674,0.11320521718350281
15.187552,8.896730047395726,0.11291059383972334
15.189956,8.913494819187475,0.11260685946272561
15.192344,8.928909116538867,0.11232741727062615
15.194724,8.944602953143976,0.11203852327972483
15.197124,8.961647264189445,0.11172728257975484
15.199507999999998,8.972825042622523,0.11146516659857283
15.201891999999996,8.982931885868963,0.11121521093693285
15.204287999999998,8.993178498742264,0.1109593203799548
15.206671999999998,9.004915355682781,0.11067537007790644
15.209056,9.01106521926463,0.11043109855913263
15.211451999999998,9.01572483877926,0.1102154727395787
15.213839999999998,9.014750243106976,0.11007151468259686
15.21622,9.01656914411403,0.10990750897616067
15.218616,9.013452678068466,0.109787133579075
15.221004,9.008054572022768,0.10969670247965935
15.223384,9.003028553029411,0.10962185458223439
15.225783999999996,9.004288375529022,0.10947896814397706
15.228172,8.999541895789383,0.1093926292974611
15.230567999999998,8.98427305563846,0.10938979231034456
15.232964,8.96644303623368,0.10942829274654885
15.235352,8.941675549029874,0.10952863852418153
15.237731999999998,8.921843428878677,0.10958391185625518
15.240128,8.89749525055545,0.10966717931665433
15.242515999999998,8.870446123351504,0.10979674707534334
15.244896,8.84311745689384,0.10993603647192915
15.247291999999998,8.82458858935476,0.11000040788750713
15.249679999999998,8.806851117748598,0.11006395334055448
15.25206,8.787902941328937,0.11014555521012034
15.254464,8.767604290468917,0.11024948674546575
15.256852,8.754243107407927,0.11029083772504909
15.259232,8.747447305093628,0.11025454090656117
15.261632,8.744795473899023,0.110176240086493
15.26402,8.744937139383751,0.11007928542839308
15.266399999999996,8.751224876734591,0.10992232808730541
15.268804,8.756209361473315,0.10975513169894963
15.271192,8.76268409027926,0.10955930591199921
15.273571999999998,8.769158819085202,0.10936490358664651
15.275968,8.780429145316898,0.1091329358694389
15.278356,8.797006925653543,0.10887389234997903
15.280735999999996,8.816285654870907,0.10856841224824275
15.283131999999998,8.838357880767605,0.10824288280518198
15.285519999999998,8.854703343678771,0.10796249351893862
15.2879,8.878777670321886,0.10762055753773536
15.290299999999998,8.903690614726163,0.10724454822980829
15.292683999999998,8.92809170245124,0.10685977287417947
15.295068,8.951329307191065,0.10646504678075144
15.297463999999998,8.97433459450541,0.1060493821223527
15.299851999999998,9.00097199626025,0.10558320716735588
15.302248,9.028959872455449,0.10509641339572015
15.304644,9.0509414464114,0.10466438771814324
15.307032,9.06663717887438,0.10429834229086252
15.309411999999998,9.080750119471523,0.10393401862254138
15.311808,9.084480469284243,0.10363751814719406
15.314196,9.085417322417628,0.10335912867201295
15.316575999999998,9.093012104096323,0.10303584248204059
15.31898,9.10461108726785,0.10268155904039007
15.321368,9.112345638573405,0.10235567444674823
15.323752,9.12250159950596,0.10199958052337932
15.326148,9.130283372639758,0.10164483237187984
15.328536,9.134992109840498,0.10131654014409881
15.33092,9.137838515921686,0.10099866748875101
15.333316,9.141616087562648,0.10067452262958447
15.335704,9.142320623270558,0.10037867294095561
15.338088,9.144607950844302,0.10008289764826651
15.340484,9.143682472858131,0.09981860998394776
15.342868,9.138053945244828,0.09961307956598658
15.345252,9.132797504683857,0.09942319368020645
15.347648,9.12577128080195,0.09927040086927934
15.350036,9.117534352106548,0.09913337869235127
15.352415999999998,9.113301624903974,0.09896488481212198
15.354812,9.111350537701536,0.09877029367199444
15.3572,9.1087006023648,0.09860164515768965
15.359583999999998,9.116293488185626,0.09837468783353344
15.36198,9.124398230685648,0.09815831227716251
15.364363999999998,9.128498771692836,0.0979745591359461
15.366747999999998,9.124311370460639,0.09786340102762271
15.369148,9.11970466034786,0.09776766613260851
15.371536,9.108812108742109,0.09772888361102927
15.373915999999998,9.098710953069277,0.09768998991183177
15.376312,9.094057021128256,0.0976256864232852
15.378699999999998,9.091405189933651,0.09754582415746677
15.381096,9.092617790605017,0.09744070451533988
15.383495999999996,9.0958324920228,0.0973206681930068
15.385884,9.099186963067448,0.09719589411455837
15.388264,9.107057492284124,0.0970514579439373
15.39066,9.117861287806996,0.09688681728823877
15.393048,9.128525313703008,0.09672747066532993
15.395428,9.142262375532074,0.09654384219520014
15.397828,9.155719898107423,0.09637079198700098
15.400216,9.16782694624241,0.0962191187179639
15.402596,9.179235146243096,0.09609386864985726
15.404992,9.194507778109752,0.09594456969814676
15.40738,9.208849244416635,0.09580136314196723
15.40976,9.223050941096657,0.09566315997199507
15.412164,9.236833328896097,0.0955403608497528
15.414548,9.25420060930779,0.09540244044048701
15.416932,9.277713961585595,0.09521611725849205
15.419328,9.305883141662292,0.09500555888474309
