Time,Force,Position
14.428224,0.013577152939043598,0.0
14.430608,0.009451647020001484,0.0
14.433004,0.0074680114742364315,0.0
14.435392,0.005763915182191798,0.0
14.437772,0.0029888837035086345,0.0
14.440172,0.0014245570383242122,0.0
14.442556,0.001052469985986732,0.0
14.44494,0.0021049399719734636,0.0
14.447336,0.0032971795848204056,0.0
14.449724,0.007282915877002309,0.0
14.452104000000002,0.011548191422904633,0.0
14.4545,0.016744632528585275,0.0
14.456888,0.023012008820904453,0.0
14.459268000000002,0.030070781046141738,0.0
14.461664,0.03712955327137902,0.0
14.464052,0.04097551993670072,0.0
14.466448,0.04333124253480325,0.0
14.468844,0.04582673475976599,0.0
14.471232,0.05004478847742517,0.0
14.473616,0.0524005110755277,0.0
14.476012,0.0524005110755277,0.0
14.4784,0.0524005110755277,0.0
14.48078,0.0524005110755277,0.0
14.483176,0.0524005110755277,0.0
14.485564,0.0524005110755277,0.0
14.487944,0.0524005110755277,0.0
14.49034,0.05134804108954097,0.0
14.492728,0.052418976276179495,0.0
14.495108000000002,0.055724329634712154,0.0
14.497508,0.05665549519449047,0.0
14.499892,0.05688781261996775,0.0
14.502288,0.0601931659785004,0.0
14.504688000000002,0.06401037601623075,0.0
14.507076,0.06331152788192969,0.0
14.509456,0.05860847825479492,0.0
14.511856000000002,0.062193370867047994,0.0
14.51424,0.060470809374351564,0.0
14.516624,0.062193370867047994,0.0
14.51902,0.057975317149388826,0.0
14.521408,0.05983764826894546,0.0
14.523792,0.062472910120768416,0.0
14.526188,0.06869306458484445,0.0
14.528576,0.0713283264366674,0.0
14.530956,0.0731249705273291,0.0
14.533352,0.07361836200587497,0.0
14.53574,0.07662571091003541,0.0
14.53812,0.07662571091003542,0.0
14.540516,0.07450230573741015,0.0
14.542904,0.07000471276603057,0.0
14.545284,0.06508781091407034,0.0
14.547684,0.060590217942690754,0.0
14.550072,0.052088423478477454,0.0
14.552468,0.04200383714842793,0.0
14.554864000000002,0.0356439130574917,0.0
14.557252000000002,0.03328819045938917,0.0
14.559632,0.0258573311818144,0.0
14.562032000000002,0.0252241700764083,0.0
14.564416,0.021006116358749126,0.0
14.5668,0.021359738210434808,0.0
14.569196000000002,0.01714168449277563,0.0
14.571584,0.014506422640952676,0.0
14.573964,0.008286268176876652,0.0
14.576364000000002,0.0056510063250536985,0.0
14.578752,0.003854362234392006,0.0
14.581132,0.0033609707558461144,0.0
14.583532000000002,0.0003536218516856813,0.0
14.585920000000002,0.0025695748229280038,0.0
14.5883,0.003854362234392005,0.0
14.590704,0.004068214459217476,0.0
14.593092,0.006423937057320008,0.0
14.595472,0.007848494095644221,0.0
14.597868000000002,0.00784849409564422,0.0
14.600256000000002,0.00784849409564422,0.0
14.60264,0.007848494095644221,0.0
14.605036000000002,0.007848494095644221,0.0
14.607424000000002,0.007848494095644221,0.0
14.609804,0.007848494095644221,0.0
14.612204000000002,0.007848494095644221,0.0
14.614592000000002,0.007494872243958539,0.0
14.616976,0.007494872243958539,0.0
14.619372000000002,0.007494872243958539,0.0
14.621760000000002,0.008262115402617117,0.0
14.62414,0.019223062032724832,0.0
14.626536000000002,0.04242513885107245,0.0
14.628924,0.07977600294759048,0.0
14.631308,0.13965614436028384,0.010084819082927549
14.633708,0.21538077377412193,0.019542291969155925
14.636096000000002,0.30627979968239505,0.02875154819923447
14.638476,0.4102113517118262,0.03798314059741848
14.640876,0.5265691295267314,0.047219773767019
14.643264000000002,0.6623831487247565,0.056337520812989095
14.645644,0.8243400944788013,0.06497234245735925
14.648040000000002,1.0024026022870596,0.07347923554183118
14.650432,1.1973620680824495,0.08186554175195926
14.652812,1.407308938917171,0.09027218667755722
14.655212,1.6364797337095351,0.0986118131963176
14.6576,1.8895775020866765,0.10672891308822519
14.65998,2.1630645732645855,0.11467373600027378
14.66238,2.4477690612723393,0.12263692030080532
14.664768,2.7409900172292194,0.13071031508863223
14.667152000000002,3.0485939737476166,0.138764188233756
14.669548,3.373073715057031,0.14668093146451364
14.671936,3.695785568903375,0.15453794835170204
14.674320000000002,4.005185357374841,0.16241868753377
14.676716,4.303277077075714,0.1702103445995532
14.679104,4.573532065355464,0.16799151142580465
14.681488000000002,4.8234449726626885,0.1664567799852516
14.683884,5.058974879408395,0.16517885826147768
14.686272,5.283893669659942,0.16383725828821957
14.688656000000002,5.489356218528368,0.1625419045314494
14.691052,5.673407647095503,0.16137706106264366
14.69344,5.826874173532549,0.16081141680670538
14.695824000000002,5.967028634594719,0.16032391660173764
14.69822,6.089634511363698,0.1599556657677568
14.700608,6.194227168988533,0.15958864963564723
14.702992000000002,6.278152880416751,0.1592950693702029
14.705392,6.334659273446553,0.15932073326055265
14.70778,6.36872704110093,0.15961011736792619
14.710164,6.397304154910991,0.15976793149877813
14.71256,6.420577606331841,0.15973806660140946
14.714952,6.427605726071619,0.15976113937034161
14.717328000000002,6.413917781928666,0.15999047569453476
14.719732,6.395528684016446,0.16021163295374444
14.72212,6.384868449836173,0.1602852512486941
14.7245,6.366339582297093,0.1605103065554509
14.726904,6.351675146623984,0.16066729735772906
14.729292,6.343017013190128,0.16070189585371097
14.731672,6.337384693861083,0.16071616177474632
14.734076000000002,6.33570935419663,0.16069432178433585
14.73646,6.341575886809021,0.16058340489741274
14.73884,6.34990915501878,0.1604863761718431
14.74124,6.365412208453048,0.16027628460372018
14.743624,6.379797104872434,0.1601376309062839
14.746008,6.401863643195526,0.1599048827080854
14.748404,6.4344053201016544,0.15953493562465576
14.750792,6.471183515926094,0.15911648091143013
14.753172,6.513316387683728,0.15857361997847189
14.755568,6.561083474628273,0.15789258577892704
14.757956,6.605358216759185,0.1573154100861011
14.76034,6.648562023703456,0.15677369733844787
14.762736,6.695909801767419,0.15614945920803444
14.765124,6.748332716510856,0.15542266870880345
14.767508,6.794749329015044,0.15481241033631737
14.769912,6.836882200772677,0.15430974894739435
14.7723,6.887627879993791,0.15370101584537252
14.77468,6.944751948506494,0.1530086861325861
14.777076,6.9980115851532245,0.15238933181331987
14.779464,7.053041005120893,0.15172072833254208
14.781844,7.108349964342284,0.15105834525146944
14.78424,7.166080333190673,0.15035501664326112
14.786624,7.226791190173499,0.14956896530216732
14.789008,7.28768903861143,0.1487410693519473
14.791404,7.346539460332569,0.14787503887975662
14.793788,7.397568470523144,0.14710856092940203
14.796172000000002,7.438354659556157,0.14649098820082906
14.798576,7.477558056723334,0.14589051721126872
14.80096,7.515178662024671,0.14530391274490145
14.803344,7.550425079527259,0.14473926552949973
14.80574,7.581574747738392,0.14420596184369053
14.808124,7.6124448766958075,0.143692670305361
14.810508,7.640102200093308,0.14323945857005904
14.812904,7.664314400505413,0.14282097508669228
14.815292,7.6928103416640745,0.1423250100204568
14.817672000000002,7.719351403904562,0.1418246573798173
14.820076,7.746451544652491,0.1413046909626519
14.822464,7.765962591295332,0.1408872317977955
14.824848,7.785381090139555,0.14043903244209494
14.827244,7.796186781520298,0.14007129582381153
14.829632,7.79488732062392,0.13985188410541396
14.832012,7.787581557488293,0.13972243736945075
14.834412,7.78106719028558,0.13958872475486528
14.8368,7.773342118269371,0.1394797006218877
14.83918,7.766128902932362,0.13938019267869206
14.841576,7.757844752408709,0.13929856458953951
14.843964,7.756218530430369,0.13913294977503268
14.846344000000002,7.750588106959196,0.1390250226479098
14.848744,7.743374891622185,0.1389249426509378
14.851128,7.729783286993586,0.13889526510770275
14.853524,7.719404487924903,0.13881110668152147
14.85592,7.7082342929233025,0.13873077238196238
14.858304,7.698414572362061,0.13861834490823272
14.860684,7.689526017360597,0.1384945002156245
14.863084,7.675190238627323,0.1384296881794349
14.865472,7.657362115080413,0.13843361901405782
14.867852,7.631106279667254,0.1385760424737259
14.870252,7.6064332361199325,0.13871235529873846
14.872636,7.581992509998089,0.13887206969087496
14.875016,7.560437828354194,0.139031485823593
14.877412,7.546332471188528,0.13910196362194432
14.8798,7.532087344396,0.13918041644319248
14.882196,7.511416606483644,0.13937118801359138
14.884592,7.4888835374517315,0.13958529997289335
14.88698,7.46462790692712,0.1398158547514896
14.88936,7.4422346075220664,0.14002440915832592
14.891756,7.418910142557231,0.14023966549584463
14.894144,7.402523145391429,0.1403524149403425
14.896524,7.38771894009146,0.14045648512008985
14.89892,7.382086620762415,0.14045410844138947
14.901308,7.377897323672347,0.14045018379370372
14.903692,7.3734284873285585,0.14046032982611129
14.906084,7.371892917290965,0.14042992468062715
14.908476,7.369146642439874,0.14042459527253662
14.910856,7.372778756880371,0.14034912395765953
14.913252,7.38148600800034,0.14019689165775706
14.91564,7.399691906173196,0.1398889533224093
14.918036,7.420458983599908,0.13952428962098684
14.920436,7.43698954210831,0.1391909555124618
14.922820000000002,7.45473080543021,0.13883155312579964
14.925204,7.472751608005829,0.13845983644351653
14.927600000000002,7.49212288502181,0.1380552060242717
14.929988000000002,7.517919773157621,0.1375418786231982
14.932368,7.543716661293428,0.13702582804566005
14.934764,7.5720275068548535,0.13649017444859435
14.937152,7.604342553909115,0.13590110829722007
14.939536,7.632001773164485,0.13536915509197336
14.941932,7.652071898314764,0.13493357528043168
14.94432,7.671862484211328,0.13451264977108787
14.946704,7.686717703055275,0.13416266399330562
14.9491,7.6981277989138315,0.13384322395714623
14.951488,7.708374411787132,0.13351071920199137
14.953872,7.712335183167459,0.13327737177304327
14.956268,7.718158285667345,0.1330221667494802
14.958656,7.720396495554975,0.13280341825252845
14.96104,7.7230540143231865,0.13256544575494494
14.963436000000002,7.718913834919231,0.13241457232039508
14.965824,7.712631785141998,0.13229777759424227
14.968208,7.712588355029492,0.13212258350224146
14.970608,7.713615860103625,0.13193064414930217
14.972996000000002,7.714503595550898,0.13174614509857335
14.97538,7.7192557628641465,0.13151609343440876
14.977776,7.720003728684558,0.13134016763432296
14.98016,7.726338687863642,0.13110610128242187
14.982544,7.733092955923307,0.13085300550505077
14.984940000000002,7.731187194691246,0.13070053683523508
14.987328000000002,7.732354469392239,0.13050549741161405
14.989708,7.7381775718921215,0.13026123720993985
14.992104,7.741486716966391,0.13003196666530736
14.994492,7.7450754012943825,0.12978872166854127
14.996872,7.747453380808874,0.12956800217577175
14.999268,7.750343217002563,0.1293577442061107
15.001656,7.75537492356953,0.12911285329628558
15.004036,7.761477565323134,0.1288519248827115
15.006436,7.7674404374498796,0.1285973104703355
15.008824,7.769910964762989,0.1284068017340892
15.011220000000002,7.775035219128573,0.1281934816382482
15.013616,7.7818820349868565,0.127967577116125
15.016004,7.788868620471996,0.12773667463495433
15.018388000000002,7.795994975583999,0.1275003097758654
15.020784,7.799396668456887,0.12730186184040834
15.023172,7.798794159836939,0.1271560314164119
15.025552,7.79977444308283,0.12700464007213
15.027948000000002,7.796098898529829,0.12690073254839465
15.030336000000002,7.79149218841705,0.12680610388146984
15.03272,7.7946143420362155,0.12662369554503097
15.035116,7.798248352334581,0.12645273912602684
15.037504000000002,7.80560702487206,0.12624730602346512
15.039884,7.820694561141485,0.12595851744151673
15.042280000000002,7.836433723716969,0.12567358076330754
15.044668,7.857108253345065,0.12533192519726533
15.047048,7.882857919652633,0.12493131131369134
15.049448000000002,7.913682722639673,0.12447164478961181
15.051836000000002,7.943436590440076,0.124028841878447
15.054216,7.975052789360034,0.1235693816120264
15.056612,8.006948527533712,0.1230954012509777
15.059,8.039775431267168,0.12261614126864516
15.061396000000002,8.072602335000626,0.1221393575229156
15.063792,8.098491770935055,0.12173943962997434
15.06618,8.122751193175404,0.12138079311400367
15.068564000000002,8.156182501386674,0.12094664233511504
15.070964,8.19133637109064,0.12050392687614632
15.073348,8.226909549675192,0.12004517014237574
15.075732,8.263925750498716,0.11958882877171954
15.078128,8.300894729493997,0.1191685069903141
15.080512,8.337072312556362,0.11875619303871718
15.082896000000002,8.368454298192972,0.11839012740970165
15.085292,8.392898816030556,0.11810221838962534
15.08768,8.410917722748309,0.11790221888039969
15.09006,8.433080600585754,0.1176541619095109
15.092456,8.453101608049922,0.11743633165439847
15.094844000000002,8.469909809954174,0.1172634925640602
15.097228,8.483365436671653,0.11713951067274997
15.099624,8.497472689695188,0.11702010203921369
15.102012000000002,8.510648777158945,0.11690872119788806
15.104396,8.527968835742394,0.11675077382723828
15.106792,8.543426563206287,0.11660860211312844
15.109180000000002,8.55981545622996,0.11646019183705902
15.11156,8.587006248918636,0.11620827466013968
15.11396,8.617829156047808,0.11590147695105942
15.116348,8.64162204757933,0.11563894472282635
15.118732,8.66369237761816,0.11538604568288682
15.121128,8.68348106765685,0.11516516185054243
15.123516,8.702757901016344,0.11493467883474058
15.1259,8.72329266101758,0.11465360320803739
15.128296,8.742337176951594,0.11440406143930104
15.130684,8.766596599191944,0.11409669154469909
15.133064,8.794208596619068,0.11374539121971618
15.135460000000002,8.825452708486688,0.1133400155364091
15.137848000000002,8.850830287741921,0.1129898767852178
15.140232,8.87769811106437,0.11261286108153644
15.142628000000002,8.899490797707347,0.11228625142073356
15.145016000000002,8.918629757297849,0.11197421388760258
15.147412,8.938467565022654,0.11163542038550527
15.149812,8.961238639053652,0.11127283968674431
15.1522,8.980657137897875,0.11095508931087207
15.15458,9.002357276742234,0.11060922231384863
15.15698,9.023126250026818,0.11027184209469813
15.159368,9.03788892107215,0.10999317065560736
15.161748,9.047296916184289,0.1097747524775346
15.164148,9.060289803908681,0.10953743820111743
15.166532,9.07435362681971,0.10928903333738238
15.168916,9.092421651223571,0.10900558012599285
15.171316,9.111700380440938,0.10870637364092225
15.173704,9.128417930404442,0.10844742373350645
15.176084,9.145694558875388,0.10816792408535093
15.17848,9.160969086599918,0.10790752068848795
15.180868,9.174893139884087,0.10767002281756508
15.183244000000002,9.184253913167984,0.1074891162864259
15.185648,9.193195377571296,0.10732329449155928
15.188036,9.196502626787698,0.10722559206212742
15.190416,9.20116035044446,0.10710479858282673
15.19282,9.208611570780556,0.10696540538184253
15.195208,9.216574647795849,0.10683700155028555
15.197588,9.217600257012116,0.10676748616294708
15.199992000000002,9.218625866228377,0.10669797077560861
15.202376,9.215367734698088,0.10667445212066806
15.204756,9.208384940928687,0.10667529436009941
15.207152,9.20368378715942,0.10664764556980236
15.20954,9.201124503763431,0.10659704370593132
15.21192,9.19376962294169,0.10658208255052891
15.214324,9.1816191446942,0.10660283526868351
15.216712,9.163881673088037,0.10665954501757768
15.219092,9.145724892601296,0.10673147166696338
15.221488,9.12970998248783,0.10678046422481265
15.223876,9.10955110125467,0.1068695317621569
15.226256,9.089252450394651,0.10696357980933201
15.228652,9.065229137295518,0.10708260627586291
15.23104,9.04469816901002,0.10715664620030733
15.23342,9.029801415911438,0.10716238269138006
15.235824,9.019467942813128,0.10711186148821367
15.238208,9.01542031120779,0.10699841828014309
15.240588,9.010721053296392,0.10688019612854707
15.242992,9.00443900351916,0.10676310910400154
15.24538,9.005373960794676,0.10657825148418987
15.24776,9.005797061390995,0.10638307532231928
15.250164000000002,9.007291097173955,0.10617609092490471
15.252552,9.012789334449744,0.1059346199767494
15.254932,9.01656501023284,0.10570043564118757
15.257328,9.021830930083155,0.10543976923492614
15.259716,9.02723661956033,0.10517275863097965
15.262096,9.038788380903615,0.104849552282926
15.264500000000002,9.053925034859153,0.10450817239629472
15.266888000000002,9.067618666575715,0.10416289866965411
15.269268,9.082802542359495,0.10379302750406519
15.271664,9.103480863703329,0.10336341392538569
15.274052,9.124858033181464,0.10290851457391946
15.276432,9.15401128821979,0.1023680366947869
15.278832,9.18051081620564,0.10183988849751394
15.281216,9.205008243445073,0.10133273444738337
15.2836,9.22899381400531,0.10081780874868859
15.286004000000002,9.245902147139658,0.1003632169813027
15.288388,9.264021185087502,0.09989484889662748
15.290772,9.280557431169512,0.09942671160042461
15.293168,9.29350878463927,0.09897648883291373
15.295556,9.309672943668943,0.09849738667635882
15.29794,9.327327346765832,0.09799302426943068
15.300336,9.346332224303081,0.09747167546173353
15.30272,9.36026196516086,0.09698844598810696
15.305104,9.371258439712443,0.09652592506721158
15.3075,9.381463518331108,0.0960612280139318
15.309884,9.389666496203356,0.09561358123592353
15.312268,9.39535551664999,0.09517019604663995
15.314664,9.40169616340268,0.094732351382719
15.317052,9.402682134222177,0.09434431912385588
15.319436,9.398313429108484,0.09400570904888386
15.321832,9.393245875860487,0.09369281153312453
15.32422,9.383987129664556,0.09344560131243386
15.3266,9.37645094496132,0.09319373594428976
15.328996,9.368635221004363,0.09295239029564024
15.331384,9.361191584099744,0.09272683818449226
15.33378,9.354399573501183,0.09250590973698718
15.336176000000002,9.344115218088987,0.09232366080132738
15.338564000000002,9.333923410475409,0.09216680867567084
15.340948,9.323963920287307,0.0920305345193136
15.343344000000002,9.309441150098927,0.09194234017874295
15.345732000000002,9.293288366216471,0.09188356254238395
15.348112,9.27257230233374,0.09187233017342078
15.350508,9.258374397369456,0.09183005318586783
15.352900000000002,9.245339975390428,0.09180409757588702
15.35528,9.240686043449406,0.09173821859959683
15.357676,9.235053724120363,0.09170763472790913
15.36006,9.235008398149986,0.09165096978435036
15.36244,9.231610496992838,0.09162734472309918
15.36484,9.235661920313916,0.09156914500301197
15.367224,9.24609173292658,0.09148592236470093
15.36962,9.25437967516597,0.0914211496333827
15.372016,9.265089027032355,0.09132802923426026
15.374404000000002,9.280314437070771,0.09121981007797768
15.376784,9.291535645616353,0.09113834715853657
15.379180000000002,9.302617084535076,0.09106233499345108
15.381568,9.31956505606619,0.09095175330103496
15.383948,9.343310725769474,0.09080305980557006
15.386352,9.369198265846032,0.09063618826718166
15.38874,9.397087906669006,0.09045684732722473
15.39112,9.429773144917732,0.09025247518882318
15.393516000000002,9.466462584659293,0.09002298240357534
15.395904000000002,9.50687668663997,0.08977710213024957
15.398284,9.546359623060864,0.0895370111452502
15.40068,9.589986530601458,0.0892680063694377
15.403068,9.626815739969878,0.08903970559437209
15.405448,9.664483567099461,0.08878234505230202
15.407844,9.697076257549572,0.08856095348317033
15.410232,9.73781712061221,0.08828514148362776
15.412628000000002,9.772831220689318,0.08803930358977477
15.415024,9.80668183778117,0.08778056505328992
15.417412,9.846538757112272,0.0874858548007702
15.419796000000002,9.884253806070097,0.08720989871858925
15.422192,9.916102322415533,0.0869676448441182
15.42458,9.95181527062694,0.08670530513573187
15.42696,9.986736822905433,0.08644296409822592
15.429364,10.017793943317951,0.08620201453818471
15.431748,10.0432640703718,0.08598473593088292
15.434132000000002,10.070876067798922,0.08575287039268277
15.436528,10.09662573410649,0.08552901053094013
15.438916,10.12065283892136,0.08530917292128712
15.441296,10.140955281497117,0.08510428431272642
15.443692,10.161816802580317,0.08488270473669704
15.446080000000002,10.184959963663653,0.08464252916870804
15.44846,10.205449397694517,0.0844099335920529
15.450856000000002,10.228872098031573,0.08416362027605212
