Time,Force,Position
16.537804,0.13332320571165326,0.0
16.540183999999996,0.12979088405623027,0.0
16.542583999999998,0.12913925775017238,0.0
16.544972,0.13122855716661938,0.0
16.547351999999997,0.12797577476491678,0.0
16.549748,0.12630578422905042,0.0
16.552135999999997,0.12277346257362742,0.0
16.554519999999997,0.12110347203776106,0.0
16.556911999999997,0.11556904963592123,0.0
16.5593,0.11003462723408138,0.0
16.561679999999996,0.10291741296640532,0.0
16.564071999999996,0.0952411201912884,0.0
16.56646,0.07997573331108472,0.0
16.568855999999997,0.06550174236379915,0.0
16.571252,0.05223845623001231,0.0
16.573636,0.0406977315889219,0.0
16.576015999999996,0.03129887732110855,0.0
16.578412,0.02068931823979647,0.0
16.580799999999996,0.013239993761569905,0.0
16.583196,0.005284161732732573,0.0
16.585592,0.0033346319431457943,0.0
16.587975999999998,0.004772305053534882,0.0
16.590356,0.009475354680669637,0.0
16.592751999999997,0.011896764307667115,0.0
16.59514,0.019061200403586335,0.0
16.597519999999996,0.026365406126365766,0.0
16.599916,0.03539217334184163,0.0
16.6023,0.042416839810900636,0.0
16.604695999999997,0.04823080146646091,0.0
16.607099999999996,0.055115698308659714,0.0
16.609488,0.06307153033749706,0.0
16.611868,0.0680940960601392,0.0
16.614272,0.06897269066308745,0.0
16.616656,0.06897269066308745,0.0
16.61904,0.06897269066308745,0.0
16.621443999999997,0.06905988933311759,0.0
16.623827999999996,0.07100941912270438,0.0
16.626208,0.07402988409892967,0.0
16.628611999999997,0.0794771078307394,0.0
16.631,0.0871534006058563,0.0
16.633379999999995,0.09375875819433468,0.0
16.635784,0.09878667304556377,0.0
16.638171999999997,0.09552664565740503,0.0
16.640552,0.09440848864252335,0.0
16.642955999999998,0.08724405254660413,0.0
16.645344,0.07993984682382468,0.0
16.647723999999997,0.07091307960834883,0.0
16.65012,0.06397561180931995,0.0
16.652507999999997,0.05824884882378982,0.0
16.654888,0.052522085838259694,0.0
16.657283999999997,0.04558461803923081,0.0
16.659672,0.043442747665953754,0.0
16.662051999999996,0.04744694915878746,0.0
16.664448,0.05111904044107066,0.0
16.666835999999996,0.05171809579029849,0.0
16.669216,0.05163089712026835,0.0
16.671611999999996,0.04968136733068159,0.0
16.674,0.04666090235445627,0.0
16.67638,0.04084694069889599,0.0
16.678776,0.03317064792377908,0.0
16.681163999999995,0.026565290335300706,0.0
16.683543999999998,0.020099702373682537,0.0
16.685940000000002,0.017778085531758275,0.0
16.688328,0.014385533503195486,0.0
16.690708,0.015124358479283522,0.0
16.693103999999998,0.015124358479283524,0.0
16.695492,0.015124358479283524,0.0
16.697871999999997,0.015037159809253384,0.0
16.700268,0.014949961139223249,0.0
16.702655999999998,0.01379182728255458,0.0
16.705052000000002,0.012773463052746122,0.0
16.707451999999996,0.009892767703381024,0.0
16.709835999999996,0.005009971607599074,0.0
16.712220000000002,0.0013378803253158646,0.0
16.714616,0.0011055628998385952,0.0
16.717003999999996,0.005616271943283065,0.0
16.719383999999998,0.0056162719432830644,0.0
16.721779999999995,0.006122779493893832,0.0
16.724168,0.006122779493893833,0.0
16.726548,0.006122779493893833,0.0
16.728944,0.006122779493893833,0.0
16.731332000000002,0.006122779493893833,0.0
16.733716,0.006122779493893833,0.0
16.73612,0.006122779493893833,0.0
16.738507999999996,0.0053839545178057955,0.0
16.740887999999998,0.0053839545178057955,0.0
16.743283999999996,0.0053839545178057955,0.0
16.745672,0.0053839545178057955,0.0
16.748052,0.0053839545178057955,0.0
16.750456,0.0053839545178057955,0.0
16.752843999999996,0.005383954517805796,0.0
16.755224,0.005383954517805796,0.0
16.757619999999996,0.01510009057823651,0.0
16.760008,0.03780153093158204,0.0
16.762388,0.08057086213231845,0.01105537522436032
16.764784,0.1331126920660541,0.021682775547802485
16.767172000000002,0.21134592977691985,0.03099657055651759
16.769551999999997,0.3021051860583328,0.0402186067832564
16.771948000000002,0.4102206860492448,0.04924674022543596
16.774335999999998,0.5359773181319634,0.058108681025023444
16.776716,0.6808653263737076,0.06672369804387267
16.779116000000002,0.8427900622294434,0.07516425536083984
16.7815,1.0206805905125322,0.08351058559679855
16.783896,1.2136982934618132,0.09186724606176325
16.786291999999996,1.4232861933162622,0.10022090483575001
16.78868,1.6482808070906232,0.10855736529118266
16.791064,1.8895207525460578,0.11680740600078668
16.793459999999996,2.1431415978165926,0.12507800701504754
16.795848,2.4143110273803168,0.13327759750069124
16.798228,2.7025171845580327,0.14140372726411374
16.800624,3.011159866364759,0.1493293750718326
16.803011999999995,3.3265983504857854,0.1572525671693366
16.805391999999998,3.6324132463449974,0.1652130042218377
16.807788000000002,3.9265933123516543,0.17313038574512976
16.810179999999995,4.197964561788416,0.17001456097221448
16.812559999999998,4.455838650253062,0.16729986281548892
16.814956000000002,4.687596672931414,0.16599975537604117
16.81734,4.905391003928828,0.16480832604393134
16.819736,5.102890475781961,0.16386091841406464
16.822131999999996,5.279163922931035,0.16314038580246693
16.82452,5.431650166122192,0.16275669762405742
16.826900000000002,5.566308285766438,0.16255614312614497
16.829299999999996,5.686211317796831,0.16241233793438947
16.831683999999996,5.791406484041612,0.16222947971783655
16.834063999999998,5.880962618941004,0.16203164462357653
16.836460000000002,5.957905536599818,0.16179773748569232
16.838848,6.0201859144433945,0.16163397018925163
16.841228,6.072459580270624,0.16142553862111467
16.843624,6.108255596991303,0.16126169837149157
16.846012,6.121008583858741,0.1613042052233681
16.848408,6.109320844604334,0.1616387713958952
16.850803999999997,6.0937705693418245,0.16191163881267276
16.853192,6.078779372586753,0.16214829150089546
16.855572000000002,6.062297931764464,0.16243750174496388
16.857968,6.048050909114069,0.16271405393380528
16.860355999999996,6.037109239822206,0.16294616706109874
16.862735999999998,6.034548060568349,0.16302619193494072
16.865131999999996,6.036363169859662,0.1630393272774141
16.86752,6.045068525121762,0.16295346889786458
16.869904,6.0601522696754495,0.16275762505415506
16.872299999999996,6.08347673464028,0.1624162215345973
16.874688,6.1068937474037295,0.16211007338526018
16.877083999999996,6.131334473525574,0.16182838830839244
16.87948,6.156938682632673,0.16156105474259563
16.881864,6.183613826926413,0.16127157844569429
16.884243999999995,6.209218036033513,0.16101285446888486
16.886643999999997,6.235893180327253,0.1607328334659076
16.889032,6.25698133126232,0.160548807526695
16.891411999999995,6.275648072570392,0.1604327580088769
16.893808,6.304045778356829,0.1601213783401138
16.896195999999996,6.340312117502071,0.15964897612279202
16.898579999999995,6.375227982206954,0.15922745759063903
16.900976,6.412145947658253,0.15876868545910458
16.903363999999996,6.45106601385597,0.15827110167375485
16.905747999999996,6.492919346359884,0.15772064088722643
16.908144,6.5307684773709616,0.15725773340311922
16.910531999999996,6.565684342075846,0.1568559392915526
16.912915999999996,6.597806710101395,0.15650597585321957
16.915312,6.626344185514689,0.1562130073839744
16.917696,6.65301932980843,0.15595497632557948
16.92008,6.679974013355889,0.15568790858894516
16.922475999999996,6.712562912090263,0.15529218361191666
16.924864,6.742637853399022,0.15492515448670868
16.927259999999997,6.771921398774862,0.15456672954126208
16.929656,6.800413548217783,0.15421929083560437
16.932043999999998,6.8285336106083685,0.15385768580486245
16.934424,6.856141816319754,0.1534917984308537
16.936819999999997,6.890967029083891,0.15298691748199858
16.939208,6.9308673785275,0.15238978346178797
16.941587999999996,6.97025587129191,0.15179555848425244
16.943992,7.003777831443932,0.15130291033582452
16.946379999999998,7.0337148989837,0.15085601736134502
16.94876,7.061789635403911,0.15044026645014752
16.951155999999997,7.088933206264345,0.15004131222060293
16.953544,7.111700488579605,0.1496958285667309
16.955923999999996,7.132233352722974,0.14935694586214182
16.95832,7.1557467050007775,0.1489329173111514
16.960707999999997,7.182472862838499,0.14845059955400883
16.963091999999996,7.212970904743578,0.1478804892792704
16.965496,7.244819421089014,0.14727966843803109
16.96788,7.269218612956224,0.1467832071277601
16.970259999999996,7.28975337295746,0.14635242470331947
16.972659999999998,7.314571873705249,0.14584512037702257
16.975048,7.338878517773843,0.14532930895872775
16.977427999999996,7.362533535536377,0.1448141475486411
16.979824,7.382324121432938,0.14435562181635792
16.982211999999997,7.397039570650028,0.14398086498877552
16.984592,7.409752919120699,0.1436428016774997
16.986992,7.418229748673059,0.14334538612607367
16.989379999999997,7.42111958486675,0.1431205664128981
16.99176,7.425779204381381,0.1428390018661756
16.994155999999997,7.433651629455926,0.1424989854684326
16.996544,7.442874528970831,0.14212691136346822
16.998928,7.454518838112732,0.14170536282327112
17.001323999999997,7.467234082441273,0.14126355832890103
17.003712,7.481671888262509,0.1408028725855756
17.006107999999998,7.491406644456612,0.14044266045502185
17.008504000000002,7.498487673598239,0.14011353877538346
17.010892,7.501145192366453,0.13986809188229993
17.013275999999998,7.498075948149137,0.13969825243916814
17.015672000000002,7.498079739864875,0.1394784655350502
17.018056,7.495150265274416,0.13930040879635014
17.020435999999997,7.485423092511789,0.13921764568493492
17.022844,7.477698020495582,0.13910439154157958
17.025231999999995,7.464618272546179,0.13908464109261565
17.027611999999998,7.455123417209029,0.13902593403601374
17.030008000000002,7.449632763364712,0.13890642296085842
17.032399999999996,7.4450732750801745,0.1387757367814792
17.034779999999998,7.443447053101831,0.13860384097879475
17.037176000000002,7.442472457429547,0.13843407447451841
17.039564,7.439867848063183,0.13831149544404348
17.041944,7.438194404256598,0.13817792071163934
17.04434,7.435450025263375,0.13806316302900487
17.046728,7.426559574404042,0.1380439682104607
17.049107999999997,7.419251915410543,0.13801647358311292
17.051504,7.413806587536601,0.13796664840442371
17.053891999999998,7.408501029289518,0.13790982983259323
17.056275999999997,7.401844996602077,0.137885552727054
17.058672,7.39863408690003,0.13783100786877833
17.061056,7.400079004996874,0.13772065002473521
17.06344,7.402966945332693,0.13760960749105075
17.06584,7.408368843094128,0.13747913788482816
17.068224,7.417635172721536,0.13729627695335586
17.070608,7.42396823604275,0.1371549053447014
17.073003999999997,7.438309702349631,0.1368952429203565
17.075392,7.4514404638430145,0.13666157245811353
17.077787999999998,7.467224952388872,0.13640463487678017
17.080183999999996,7.476491282016281,0.13622445620315127
17.082572,7.483755510897273,0.13607460612398167
17.084952,7.493021840524682,0.1358956385495193
17.087351999999996,7.506943997950983,0.13566277332617488
17.089736000000002,7.519515680936925,0.13546340970081544
17.09212,7.52957340649725,0.13528239628738786
17.094516,7.5417730024308565,0.13506436234244354
17.096899999999998,7.552110267244903,0.13486825322022647
17.099283999999997,7.562727071312672,0.13465938704777444
17.10168,7.578838320940493,0.13435735353045028
17.104067999999998,7.596859123516114,0.1339975995976251
17.106451999999997,7.6098520112405055,0.13367345050529938
17.108848000000002,7.622984668591758,0.1333444096877766
17.111235999999998,7.638259196316286,0.13298371551527968
17.113619999999997,7.656234672921532,0.13256460758388286
17.116016000000002,7.673558523220723,0.13214363767266304
17.118403999999998,7.6906028342661905,0.131735329394905
17.120784,7.706436440498161,0.13135499415416638
17.123179999999998,7.725622621916907,0.1309204455042047
17.125568,7.740432514790481,0.13052416711198586
17.127964,7.760969170649586,0.13006162063139554
17.130359999999996,7.781877913561027,0.129617472132231
17.132748,7.805580153151804,0.12914772585820233
17.135128,7.824626564943691,0.12872701779273624
17.137524,7.841159019309964,0.12832119431810796
17.139911999999995,7.861276366288487,0.12788467093825232
17.142296,7.883767901065764,0.12744036095860342
17.144692,7.909984098082155,0.1269600920167094
17.147079999999995,7.938714252524162,0.12647041520422408
17.149459999999998,7.95901669509992,0.12610239398254233
17.151856000000002,7.978480519914517,0.12577624897170556
17.154244,8.002972259580343,0.12542133514911566
17.156627999999998,8.028907021485145,0.12507120342399375
17.159024000000002,8.050977351523972,0.12476587442053723
17.161408,8.06704137932355,0.12453488918478757
17.163787999999997,8.084688198988964,0.1243004967918518
17.166188,8.109412256080267,0.12398231456201808
17.168571999999998,8.131203046865375,0.12369759169187308
17.170972,8.150851967277207,0.12344582305586392
17.173364,8.172223449181734,0.12318374611897925
17.175751999999996,8.191592830339843,0.12294667457172512
17.178136000000002,8.209239650005259,0.12272020926322907
17.180532,8.223673664110757,0.12253937293369534
17.182916,8.242111879709089,0.12231253561783835
17.185299999999998,8.263203822359896,0.1220662876174005
17.187695999999995,8.280663650570208,0.12188299375418421
17.190084,8.299613722847736,0.12166879892517285
17.192467999999998,8.312697262512877,0.12151706666799601
17.194868,8.317120772886293,0.12145264036388007
17.197252,8.32661941993918,0.12132702291588844
17.199632,8.332113865499233,0.12124714463365806
17.202036,8.335373892887391,0.12116812299348499
17.20442,8.333046926916879,0.12113949059514115
17.2068,8.332582292065926,0.12109407072839751
17.209204,8.337704650573642,0.12099847008411702
17.211588,8.33989374277516,0.12093430144183612
17.213972,8.331141165684818,0.12099248338934218
17.216367999999996,8.323319754154253,0.12104250511323171
17.218752000000002,8.312565076317496,0.12112377406135982
17.221148,8.296735261801265,0.121266410188894
17.223551999999998,8.281836612844813,0.12140007592432388
17.225935999999997,8.268008899074996,0.12151931242060983
17.228316,8.252598393439346,0.12164342840613009
17.230711999999997,8.23411485187064,0.1218045574803888
17.2331,8.216050619182514,0.12194581836774773
17.235479999999995,8.201106644255686,0.12201445806430322
17.237884,8.181227302276248,0.12213599782614701
17.240271999999997,8.168425197722698,0.12217467301817886
17.242652,8.163351956901094,0.1221353624045771
17.245047999999997,8.15841848570635,0.12208977780780615
17.247436,8.156837589698384,0.12199470928961852
17.249815999999996,8.157770651116032,0.12188781101542426
17.25222,8.163359540332571,0.12173995155852818
17.254607999999998,8.165735623989194,0.12163491942394353
17.256988,8.164387045406704,0.12156279525383763
17.259388,8.165180337197492,0.12146212526829003
17.261775999999998,8.171560622346949,0.12131164180404655
17.264156,8.180082777869684,0.121133103338597
17.266551999999997,8.191538199698615,0.12092367031484912
17.26894,8.210210628580292,0.12062573419615807
17.271319999999996,8.228883057461971,0.12032921740395851
17.273716,8.24648455115701,0.12004669827516587
17.276103999999997,8.27088374302422,0.11969758222983716
17.278484,8.298495740451346,0.11930730438262198
17.280884,8.325828198624748,0.11893171501023447
17.283268,8.35353274385049,0.11857613291409416
17.285648000000002,8.38202868500915,0.11821701280017745
17.288044,8.402655992809002,0.11794001262768367
17.290431999999996,8.420629573556381,0.11768244037502394
17.292828,8.439813859117256,0.11740752409602152
17.295223999999997,8.460069079864772,0.11712035805310778
17.297612,8.475948012067116,0.11686045204083062
17.299996,8.491594626843982,0.1165803675335641
17.302391999999998,8.507008924195372,0.11627585578307757
17.304775999999997,8.521631825613841,0.11597199869086101
17.307159999999996,8.534392395912757,0.11568389794691328
17.309556,8.549062519159472,0.11534858601237127
17.311943999999997,8.559076814607295,0.11505073318696543
17.314327999999996,8.568579253375919,0.11474347986402014
17.316724,8.575288195465207,0.11446011168126888
17.319111999999997,8.579343410502023,0.11419264915998813
17.321495999999996,8.584888869606058,0.11389424016515665
17.323887999999997,8.583636630537926,0.11365948087559435
17.326276,8.581732765163732,0.11342111632459592
17.328656000000002,8.578385877550565,0.11317951552433804
17.331052,8.57359596769842,0.1129350368767864
17.333439999999996,8.568154431540218,0.1126852711173492
17.335836,8.56806757131521,0.11237053343535854
17.338231999999998,8.564256048851087,0.11208286659646183
17.340615999999997,8.557371490453908,0.11182827400851998
17.342996,8.55062670168359,0.11156827745164655
17.345399999999998,8.547466805525525,0.11128655253774801
17.347788,8.540023168620909,0.11105507703822376
17.350167999999996,8.539377229888458,0.11076460356943317
17.352564,8.54352688858176,0.11043517841083919
17.354951999999997,8.548747482461698,0.11009328537894145
17.357332,8.549544565968224,0.10980745108577473
17.359735999999998,8.554345850967584,0.10948317204073468
17.362124,8.558867596713224,0.10917088455122285
17.364503999999997,8.561247472085585,0.10888289370464663
17.3669,8.56763154895078,0.10855753178021026
17.369284,8.57680912249531,0.10821471086708499
17.371668,8.586126465666702,0.1078647542454022
17.374063999999997,8.591020298464679,0.1075691313361742
17.376447999999996,8.596705527195574,0.10727298182942284
17.378831999999996,8.600248885553192,0.10700095887106441
17.381236,8.608727610963422,0.10668631642280774
17.38362,8.619720293799269,0.10636705234330796
17.386004,8.63737090518042,0.1059985902464698
17.388399999999997,8.65553337324077,0.10564051707217464
17.390783999999996,8.668341165367927,0.10534119197267894
17.39318,8.674211489696056,0.10510193892408927
17.395576,8.682875310703519,0.10484296083345379
17.397964,8.683111419844735,0.10467464776202201
17.400343999999997,8.676270291560064,0.10457312631876804
17.40274,8.669149624021669,0.10448289849034792
17.405127999999998,8.66389128760283,0.1043799545706504
17.407508,8.657002937489914,0.10431178683646097
17.409903999999997,8.649695278496417,0.10426068719936812
17.412287999999997,8.645181116182254,0.10419079489266889
17.414684,8.639176709800871,0.10414982693404062
17.41708,8.628609023419216,0.10416725414592116
17.419468000000002,8.619624128903398,0.10418378067191914
17.421847999999997,8.61543483181333,0.10416392307013499
17.424244,8.61175739140246,0.10415485490685038
17.426631999999998,8.611385304350122,0.10413832416373585
17.429012,8.610733678044065,0.10413309681752748
17.431407999999998,8.605006915058533,0.10417422603433951
17.433796,8.596998512072867,0.10424324867623513
17.436175999999996,8.589269648340919,0.10430117704998602
17.438572,8.588618022034861,0.10429593009014952
17.440959999999997,8.594903863527833,0.10423278400514714
17.443356,8.602912266513501,0.10416375459032326
17.445752,8.619720468417752,0.10402548885237502
17.448140000000002,8.644676842934535,0.10381317114144535
17.450519999999997,8.670284843757372,0.10360649939720644
17.452923999999996,8.697755175699768,0.10338940551168557
17.455312,8.72843831320208,0.10313996759293322
17.457692,8.761542860331387,0.10285851052046696
17.460088,8.795718342647334,0.10256818879180442
17.462476000000002,8.83003359459014,0.10227371396486974
17.464855999999997,8.866770256159944,0.10194614243726849
17.467252000000002,8.90364668735661,0.10161339581866591
17.46964,8.93758985224708,0.10130380770754589
17.47202,8.968459981204493,0.10102098331969121
17.474415999999998,8.996816152736292,0.10074463181144841
17.476804,9.023030453894812,0.10049251219311536
17.479188,9.049104985426476,0.10024476542033864
17.481583999999998,9.076390221771637,0.09998232561635619
17.483972,9.104886162930296,0.09970486211788684
17.486351999999997,9.132031629648598,0.09945182125094074
17.488756000000002,9.161318966740176,0.09918123251093534
17.491144,9.188883742339057,0.09891705288255857
17.493524,9.212211999019628,0.09866629243970364
17.495919999999998,9.233538154953782,0.09843442719216458
17.498308,9.254352454208737,0.09819256896781417
17.500687999999997,9.274515127157635,0.09794708089415209
17.503084,9.292955238613835,0.0977085263899811
17.505471999999997,9.308322314136984,0.0974958705577951
