Time,Force,Position
16.508744,0.13448720299604786,0.0
16.511131999999996,0.13294973710058555,0.0
16.513512,0.13169181045884362,0.0
16.515912,0.13057365344396196,0.0
16.518296,0.12959526605594046,0.0
16.52068,0.12875664829477923,0.0
16.523083999999997,0.12647500829464195,0.0
16.525472,0.128616878667919,0.0
16.527851999999996,0.13690482090730682,0.0
16.530248,0.14733463351997172,0.0
16.532635999999997,0.15683328057285825,0.0
16.535019999999996,0.16339866131954967,0.0
16.537424,0.16917264613332297,0.0
16.539811999999998,0.17080265982740234,0.0
16.542195999999997,0.16823388666856773,0.0
16.544592,0.1679467535098704,0.0
16.546979999999998,0.16272425329856102,0.0
16.54936,0.1547082564079167,0.0
16.551755999999997,0.1468320291441326,0.0
16.554144,0.1408181329999051,0.0
16.556523999999996,0.13373330166903907,0.0
16.558928,0.12250449921847915,0.0
16.561315999999998,0.11113592714105902,0.0
16.563696,0.0997673550636389,0.0
16.566091999999998,0.09026111410577542,0.0
16.56848,0.0798237075881336,0.0
16.570864,0.0701776970034099,0.0
16.573259999999998,0.05825004641854893,0.0
16.575648,0.04418052546041089,0.0
16.578027999999996,0.031042170062051178,0.0
16.580427999999998,0.018974749850329993,0.0
16.582816,0.011051300758302726,0.0
16.585195999999996,0.003919247599193567,0.0
16.587600000000002,0.0,0.0
16.589987999999998,0.0014052901735790255,0.0
16.592368,0.005883616280213433,0.0
16.594763999999998,0.01064148164056826,0.0
16.597152,0.015399347000923085,0.0
16.599531999999996,0.022019543480834555,0.0
16.601928,0.025846243281411066,0.0
16.60432,0.031395504574684,0.0
16.606699999999996,0.036013600308178614,0.0
16.609096,0.039420991228174496,0.0
16.611483999999997,0.04375954770794869,0.0
16.613867999999997,0.05075183124019764,0.0
16.616267999999998,0.06081715070550197,0.0
16.618651999999997,0.07353619722328104,0.0
16.621035999999997,0.08681432224850098,0.0
16.623432,0.09781080727358363,0.0
16.625816,0.10894706192552649,0.0
16.628211999999998,0.1180812158310525,0.0
16.630608000000002,0.13014863604277369,0.0
16.632992,0.1392827899482997,0.0
16.635376,0.15162974941374133,0.0
16.637772,0.16056931795918702,0.0
16.64016,0.16643585057157734,0.0
16.642539999999997,0.1698809735569702,0.0
16.644936,0.17639913247541844,0.0
16.647323999999998,0.18133449952803046,0.0
16.649707999999997,0.19479012624550757,0.0
16.652104,0.20279852923117497,0.0
16.654491999999998,0.2156025296425942,0.0
16.656875999999997,0.23003654374809276,0.0
16.659280000000003,0.24833498971956483,0.0
16.661668,0.26118621195922725,0.0
16.664051999999998,0.26402693046680537,0.0
16.666448000000003,0.2632827563621304,0.0
16.668836,0.26090856856337613,0.0
16.671216,0.25974508557812054,0.0
16.673612,0.2575106674062264,0.0
16.676000000000002,0.259280450727166,0.0
16.678384,0.25704603255527186,0.0
16.68078,0.2565341758760742,0.0
16.683163999999998,0.2508074128905441,0.0
16.685547999999997,0.24694298102457057,0.0
16.687944,0.23907434766576338,0.0
16.690331999999998,0.23507014617292968,0.0
16.692715999999997,0.22599080800062374,0.0
16.695112,0.21663193057459737,0.0
16.697496,0.19968395904348427,0.0
16.69988,0.18925414643081934,0.0
16.702275999999998,0.1738889667655424,0.0
16.704664,0.15604756174004797,0.0
16.707048,0.13341055928880166,0.0
16.709443999999998,0.11356705351689031,0.0
16.711832,0.10071583127722794,0.0
16.714228,0.08907531385106433,0.0
16.716623999999996,0.0814389979177344,0.0
16.719012,0.07687571791745987,0.0
16.721396,0.07217266829032512,0.0
16.723791999999996,0.06346541717035668,0.0
16.72618,0.055968870863886966,0.0
16.72856,0.05382700049060991,0.0
16.730959999999996,0.055549561983306336,0.0
16.733344000000002,0.05741189310286297,0.0
16.735728,0.06635146164830868,0.0
16.738124,0.07077497202172302,0.0
16.740512000000003,0.07333615127558071,0.0
16.742896000000002,0.07468662571593968,0.0
16.745295999999996,0.07775966164899506,0.0
16.747680000000003,0.07803920090271547,0.0
16.750064000000002,0.07952944496993464,0.0
16.752463999999996,0.08414754070342925,0.0
16.754852,0.08569260050386848,0.0
16.757232000000002,0.08569260050386847,0.0
16.759628,0.0856377847706484,0.0
16.762016000000003,0.08535824551692799,0.0
16.764395999999998,0.08209062422379232,0.0
16.766792000000002,0.0768209021842398,0.0
16.76918,0.07262211533132581,0.0
16.77156,0.07042542922482868,0.0
16.773964,0.06808897349147133,0.0
16.776351999999996,0.06160854663842009,0.0
16.778731999999998,0.053265788665812185,0.0
16.781135999999996,0.04576924235934247,0.0
16.783524,0.034353448453679186,0.0
16.785904000000002,0.026577362893489054,0.0
16.7883,0.024528040318829047,0.0
16.790687999999996,0.02275825699788947,0.0
16.793067999999998,0.020476616997752196,0.0
16.795464000000003,0.019265912184253452,0.0
16.797852,0.015718751637397367,0.0
16.800232,0.01110065590390275,0.0
16.802628,0.009555596103463515,0.0
16.805016000000002,0.009750181463543799,0.0
16.807412,0.009944766823624083,0.0
16.809812,0.009889951090404008,0.0
16.812199999999997,0.009889951090404008,0.0
16.81458,0.009889951090404008,0.0
16.81698,0.009889951090404008,0.0
16.819367999999997,0.009889951090404008,0.0
16.821748,0.009889951090404008,0.0
16.824143999999997,0.009889951090404008,0.0
16.826532,0.009889951090404008,0.0
16.828912000000003,0.009043739424265822,0.0
16.831308,0.009043739424265824,0.0
16.833695999999996,0.00819752775812764,0.0
16.836080000000003,0.005488984972432815,0.0
16.838476,0.005349215345572606,0.0
16.840863999999996,0.009725503890743786,0.0
16.843244,0.009818051689360846,0.0
16.845647999999997,0.01289868152739315,0.0
16.848036,0.015979311365425453,0.0
16.850416000000003,0.019199710830317972,0.0
16.852815999999997,0.022505064188850624,0.0
16.855204,0.025810417547383276,0.0
16.857584000000003,0.03131245701241306,0.0
16.859983999999997,0.040027302037358437,0.0
16.862372,0.05060447818186046,0.0
16.864751999999996,0.06439445988627807,0.0
16.867151999999997,0.07804467196383547,0.0
16.86954,0.0886218481083375,0.0
16.871924,0.10013018981261783,0.0
16.874316,0.10977620039734153,0.0
16.876703999999997,0.11755987986250857,0.0
16.879084,0.12334145858125878,0.0
16.881487999999997,0.12525860543403552,0.0
16.883871999999997,0.12525860543403552,0.0
16.886252,0.12362099783497921,0.0
16.888647999999996,0.11811895836994943,0.0
16.891036,0.11582972446483522,0.0
16.893416000000002,0.11274909462680294,0.0
16.895812,0.11158561164154734,0.0
16.898200000000003,0.11107375496234967,0.0
16.900596,0.11014258940257135,0.0
16.902991999999998,0.11014258940257135,0.0
16.905375999999997,0.10534699197681953,0.0
16.907759999999996,0.09663214695187415,0.0
16.910164,0.08605497080737214,0.0
16.912548,0.07226498910295452,0.0
16.914927999999996,0.0586147770253971,0.0
16.917332000000002,0.04874404292017305,0.0
16.919719999999998,0.03723570121589272,0.0
16.9221,0.030438003043724064,0.0
16.924495999999998,0.02657357117775057,0.0
16.926884,0.024851009685054135,0.0
16.929263999999996,0.029926146364526368,0.0
16.93166,0.038780761016331954,0.0
16.934047999999997,0.04828700197419544,0.0
16.936428,0.05416112849156271,0.0
16.938823999999997,0.05835801948660747,0.0
16.941212,0.06269278425064317,0.0
16.943592000000002,0.0685989552597997,0.0
16.945996,0.08125181089714324,0.0
16.948383999999997,0.10749437530521637,0.0
16.950764,0.15747692184296355,0.011017796656670204
16.953167999999998,0.22845317565929305,0.021073096408320977
16.955556,0.31503072875561516,0.030755338148925664
16.957935999999997,0.413802190211934,0.040490183185381175
16.960332,0.5305868708123967,0.04998594355186887
16.962719999999997,0.6625912738776684,0.0594530131183763
16.9651,0.8098550273310154,0.06869604306251854
16.967495999999997,0.9722082233851572,0.07779846722742087
16.969884,1.1408812012819287,0.08703109527340155
16.972264000000003,1.32533298015095,0.09615148543302396
16.97466,1.5259356470445584,0.1052361221881756
16.977047999999996,1.741153631925161,0.11416981605668934
16.979444,1.968240659941666,0.12302634008513771
16.981848,2.2059860262805744,0.1319098253115398
16.984236000000003,2.465703487286087,0.14066868384188105
16.986612,2.747068177734109,0.14924754002498164
16.989016,3.048359431989813,0.1575744374102147
16.991403999999996,3.3557061061708797,0.1657542225650459
16.993783999999998,3.6635231027765087,0.1737654383317958
16.996184,3.962081353186208,0.18164235738795032
16.998571999999996,4.2281470443758895,0.1786099985428259
17.000951999999998,4.473498567540708,0.1765715486550287
17.003348000000003,4.703303607158754,0.17490480903722777
17.005736,4.921613586551105,0.173140855676127
17.008116,5.114880331201666,0.17172256777062692
17.01052,5.294557367081497,0.1702704807861131
17.012907999999996,5.462133042399948,0.16896716660775943
17.015287999999998,5.617048278649579,0.16778081267859604
17.017684000000003,5.763167507696363,0.16648352928379404
17.020072,5.894671418756152,0.1652853626705542
17.022456,6.011886772910911,0.164082238785887
17.024852000000003,6.108620276466286,0.1630868964480739
17.02724,6.189061226512343,0.16224587454242928
17.02962,6.2607061693555535,0.16134642582446368
17.032016,6.3173637071594335,0.16048811883126737
17.034404000000002,6.352747998431012,0.15980668478001706
17.036783999999997,6.365693664327161,0.15939894687220843
17.039187999999996,6.368164191640271,0.1591545063685559
17.041576,6.357830718541962,0.15917004960486883
17.043956,6.342654426189656,0.1593185444083748
17.046352,6.340234912420525,0.15925805377043067
17.048740000000002,6.343914248689265,0.15911074508704384
17.051124,6.350619399062817,0.1589435555207887
17.05352,6.361933155407016,0.15874533808880464
17.055908000000002,6.386655316640451,0.15834424324798316
17.058287999999997,6.411609795299363,0.15797643761780095
17.060688,6.431349367651943,0.15772332923977994
17.063076000000002,6.449878235191022,0.15750406497288852
17.065455999999998,6.4729703827303755,0.15717677910493705
17.067859999999996,6.491453924299082,0.15688105011407286
17.070248,6.508494443628813,0.15659328451309548
17.072628,6.536197092996684,0.1561210441562361
17.075024,6.570045814230667,0.15552561341981117
17.077412000000002,6.603103139531733,0.15494287634690151
17.079796,6.629595084086104,0.1545072993008849
17.0822,6.659392381999009,0.15404010152350986
17.084584,6.69021339327031,0.1535881662073606
17.086968,6.723268822713505,0.15312451997714918
17.089363999999996,6.76749823887404,0.15248455319564427
17.091748000000003,6.813822303579612,0.15184295477963014
17.094127999999998,6.854279835672793,0.15131480613777543
17.096528,6.89008153996708,0.15086281215351444
17.098912,6.923369286835755,0.1504397506143691
17.101295999999998,6.947485147733506,0.15015323655740287
17.103692000000002,6.965641928220248,0.14993960054034225
17.10608,6.97942242016182,0.14977983486811608
17.108463999999998,6.993901760237692,0.14957843328370068
17.110860000000002,7.010662740313702,0.149326525022627
17.113248,7.025002310762715,0.14913914408496243
17.115628,7.044649335316678,0.14888646612661635
17.118028000000002,7.064668446922979,0.14865362715349706
17.120416,7.073094262931358,0.1486081938252184
17.122796,7.082591014126376,0.1485437942628743
17.125192,7.093158700508033,0.14845996450960294
17.127580000000002,7.111222933196159,0.1482327197472665
17.129959999999997,7.129706474764867,0.1479863439541471
17.132364000000003,7.150751195587432,0.14767629192115614
17.134752,7.1724947645442985,0.1473306944847913
17.137135999999998,7.187999713836435,0.14706274380583995
17.139532000000003,7.202760489023898,0.1467615542412126
17.14192,7.216078241972383,0.14646083634817078
17.1443,7.228884138241671,0.14614843573509273
17.146704,7.244343761563433,0.1458075003450407
17.149088,7.271396680483119,0.1452994621783369
17.151468,7.301243096082139,0.14476038129735583
17.153864,7.334162547614213,0.1441687030347425
17.156252000000002,7.3713185180646,0.14354284080509294
17.158631999999997,7.406332618141709,0.14296033297518757
17.161028,7.439763926352982,0.14239134487466587
17.163412,7.47110058601922,0.1418281277381483
17.165808,7.499411431580647,0.14127529684953283
17.168203999999996,7.530795313075129,0.1406664386165632
17.170592,7.556731970837799,0.14012634396818185
17.172976,7.582296541548133,0.1395758226638378
17.175371999999996,7.600132248526519,0.13913354485871318
17.17776,7.611170257332736,0.13878500608640768
17.180144,7.619926626138817,0.13848106571134677
17.182539999999996,7.631196952370511,0.13816108801912413
17.184928,7.645540314535263,0.13779592021129944
17.187308,7.661606238192711,0.13741888137351554
17.189707999999996,7.678184018529354,0.13704909084331215
17.192096,7.6991380874111695,0.1366392538615873
17.194476,7.719720069240649,0.13621637588459584
17.196872,7.730059229912566,0.1359166962910409
17.199260000000002,7.733880231666033,0.135692214197895
17.201639999999998,7.737002385285203,0.13550250414187734
17.204036000000002,7.73374614961278,0.13538055027688892
17.206424,7.731048992447801,0.13523127881531058
17.208804,7.7279797482304815,0.13506523722460403
17.211199999999998,7.722209555132444,0.13496110320445395
17.213588,7.719045867258642,0.1348697138706745
17.215987999999996,7.717325201623812,0.13477789271436816
17.218384,7.719468967854958,0.13463752574770674
17.220771999999997,7.718120389272469,0.13456291661397607
17.223155999999996,7.72142763848887,0.13443586549410208
17.225552,7.730693968116282,0.13426209873228312
17.227939999999997,7.740891463303469,0.13407718927116433
17.23032,7.748063144385846,0.13390219217378296
17.232728,7.751230623975388,0.13378299298706764
17.235112,7.748903658004878,0.1337560812405112
17.237496,7.7493701887137,0.13369819193580257
17.239891999999998,7.746903453116329,0.13367809254339186
17.24228,7.741643220839621,0.13368850561230602
17.244659999999996,7.738105550055609,0.13368537795390215
17.247059999999998,7.73973556374969,0.13364099602743595
17.249448,7.743367678190185,0.13356944761454825
17.251827999999996,7.751283533377235,0.13342953155509352
17.254227999999998,7.757337057444731,0.1333104301359288
17.256616,7.760969171885227,0.13323888367274236
17.258995999999996,7.7664636174452815,0.13314651992338558
17.261395999999998,7.770934349646938,0.1330337068552526
17.263784,7.774381368490201,0.1329005538203863
17.266163999999996,7.773172559534574,0.13281876490921476
17.26856,7.774664699459662,0.13267590928380843
17.270947999999997,7.776017069757891,0.13254032170152708
17.273331999999996,7.774064086697587,0.1324246950730202
17.275728,7.774812052518001,0.13224886510463
17.278115999999997,7.771416047218722,0.13213299763907063
17.280499999999996,7.768159811546301,0.13201015008569722
17.282896,7.7674647551277385,0.13183268022761357
17.285283999999997,7.769330877963034,0.1316025086497217
17.287664,7.7718958489326315,0.13133879865543388
17.290067999999998,7.777394086208424,0.13103951095647823
17.292456,7.783963258670854,0.1307235285302338
17.294835999999997,7.789229178521166,0.13040165920628782
17.297232,7.7911897450129475,0.13009895523780424
17.299619999999997,7.790728901877732,0.1298426174512289
17.302,7.792270159488931,0.12956054510229195
17.304408000000002,7.797024222660047,0.1292293970476761
17.306792,7.802337364338603,0.12887201161552436
17.309171999999997,7.808581671576938,0.12850522360145278
17.311576000000002,7.813195965121192,0.12818023629898592
17.313964,7.816599553851948,0.12787634861930103
17.316344,7.817581732955708,0.1276190599570659
17.318744000000002,7.817912285753408,0.127358513900543
17.321132,7.824388910417219,0.12701544019508848
17.323512,7.830446226200449,0.12669490404641418
17.325916,7.838645412356956,0.12634098713097008
17.328303999999996,7.84884669925988,0.12596245793217975
17.330683999999998,7.8627726484019185,0.12554904932215402
17.333087999999996,7.871483691237625,0.12520943664907574
17.335471999999996,7.87977542519275,0.12489012878300484
17.337856000000002,7.884202727281902,0.12461418867495996
17.340252,7.886627928624638,0.12436242405860627
17.342636,7.886491950713516,0.12416114098242606
17.345019999999998,7.891011800601286,0.12391530543067734
17.347423999999997,7.900746556795388,0.12360029866784149
17.349807999999996,7.908339442616215,0.12331655121244431
17.352192000000002,7.915001162877262,0.12304268332659211
17.354588,7.922966135750424,0.1227783384261433
17.35698,7.931442965302785,0.12252532348725617
17.359360000000002,7.946205636348116,0.12218978607039474
17.361756,7.96590367444606,0.12179815035487766
17.364143999999996,7.984530777357365,0.12141983479377166
17.366528000000002,7.999945074708753,0.12108569481426763
17.368924,8.008002595380534,0.12085188577620513
17.371311999999996,8.014058015305897,0.12064264136122435
17.373696000000002,8.023418788589792,0.12041942673271429
17.376092,8.028216281873412,0.12026801957599985
17.378479999999996,8.031151444037478,0.12013470179867604
17.380864000000003,8.038882203627292,0.11995360044209243
17.38326,8.048754833590387,0.11974425870994816
17.385652,8.060350025046178,0.11952429339275811
17.388032000000003,8.07580964836794,0.11926529674984733
17.390423999999996,8.095553012436257,0.11894832266088197
17.392812,8.11115240538488,0.11868477660219696
17.395192,8.124609927960227,0.1184534672602184
17.397588,8.138998616095353,0.11821401277027732
17.399976000000002,8.154038930536535,0.11798001199816117
17.402355999999997,8.166565287552103,0.11775817674565735
17.404752000000002,8.18030234938117,0.11751751647832544
17.40714,8.185891238597709,0.11737084588483156
17.40952,8.192411293374025,0.11721781001989076
17.411924,8.204937650389594,0.11700121325852457
17.414308,8.224401475204191,0.11671371822388768
17.416688,8.24987160225804,0.1163623802296033
17.419092,8.275341729311886,0.11601153350254191
17.421480000000003,8.296156028566843,0.11569932571266693
17.423859999999998,8.32353570856849,0.11529929387431535
17.426263999999996,8.347562813383362,0.11494617770674945
17.428652,8.36665455114562,0.1146440506852724
17.431032000000002,8.381462548161327,0.11439663170339134
17.433431999999996,8.396130775550171,0.11415540574291606
17.435816000000003,8.412661334058573,0.1139023671796191
17.438195999999998,8.425839317380198,0.11369605717596905
17.440599999999996,8.438086135142045,0.11349611518512502
17.442988,8.4461889817842,0.11334386350526772
17.445372,8.454291828426353,0.11319177871895396
17.447767999999996,8.460252804695228,0.11306642979428916
17.450151999999996,8.471009378389859,0.11289956473388406
17.452531999999998,8.48004339059179,0.11274227712982675
17.454935999999996,8.498948136898946,0.11249023946393974
17.457324,8.515990552086544,0.11225480986792152
17.459704000000002,8.530891096900866,0.11204795248626254
17.4621,8.543649771341912,0.11186891245342846
17.464487999999996,8.550402143543707,0.11174827175525526
17.466867999999998,8.560087782051697,0.11160234400756784
17.469271999999997,8.576710888358717,0.11139331686649308
17.471655999999996,8.5910523546656,0.11121665353572127
17.474040000000002,8.606324986532256,0.11103218290857683
17.476436,8.621457848772058,0.110852048529711
17.478823999999996,8.638453042131415,0.11065747632064613
17.481203999999998,8.655588005117632,0.11045729848193463
17.483600000000003,8.66578550030482,0.11032205202835096
17.485988,8.677193700305505,0.11016833027325834
17.488368,8.692326562545302,0.10998757126677416
17.490772,8.70839059034488,0.10979878620420827
17.493159999999996,8.726177179637155,0.10960298771321511
17.49554,8.747828200795405,0.10937492937408402
17.497935999999996,8.763984776393599,0.10921605813570637
17.500324,8.782515539790548,0.10905558955188203
17.502704,8.796110936134886,0.108941770780827
17.5051,8.806074218038727,0.10888105287060365
17.507488000000002,8.813104233636373,0.10884576471377719
17.509867999999997,8.817992378860742,0.10883489859443576
17.512271999999996,8.82981799188414,0.10876192062664755
17.514656000000002,8.8393619649074,0.10871927522766965
17.517035999999997,8.841037304571854,0.10874470186988514
17.519439999999996,8.839639608303251,0.10880043239849271
17.521828,8.843317048714121,0.10880761713891915
17.524208,8.85393195692402,0.10875427120654264
17.526604,8.868690836253611,0.10866008402275855
17.528992000000002,8.88596367300882,0.1085588734941153
17.531376,8.907892337562922,0.10842607203365792
17.533772,8.930612398049938,0.10829299345520435
