Time,Force,Position
19.051384,0.1777490926166385,0.0
19.053772,0.16672022465474579,0.0
19.056152,0.15414854166880382,0.0
19.058548,0.14004663777385573,0.0
19.060936,0.12687589943868594,0.0
19.06332,0.11170306035709929,0.0
19.065716,0.0983925523950693,0.0
19.0681,0.08629274924653806,0.0
19.070484,0.0732617805382285,0.0
19.07288,0.06516617888253096,0.0
19.075268,0.05786197315975153,0.0
19.077652,0.050697537063832315,0.0
19.080048,0.04125146096777582,0.0
19.082436,0.03380748561813618,0.0
19.084816,0.02789373117750268,0.0
19.087216,0.018587424708306394,0.0
19.089604,0.01281343989453311,0.0
19.091984,0.00793064379875116,0.0
19.094384,0.0021166821431908888,0.0
19.096772,0.005701574755443959,0.0
19.099152,0.009094126784006746,0.0
19.101548,0.010624347693012895,0.0
19.103936,0.010025292343785068,0.0
19.10632,0.011555513252791215,0.0
19.108716,0.014016899721575682,0.0
19.111104,0.019271782869695112,0.0
19.113488,0.02559760120445307,0.0
19.115884,0.03099225397943271,0.0
19.118272,0.039971799366665416,0.0
19.120668,0.04774063994039939,0.0
19.123064,0.05578901976785378,0.0
19.125452,0.06490833478194671,0.0
19.127832,0.07495881535581796,0.0
19.130227999999995,0.08808233186274458,0.0
19.132616,0.10102610190102401,0.0
19.134996,0.11428938803481084,0.0
19.137392,0.12923525881950712,0.0
19.13978,0.14557158088634933,0.0
19.14216,0.1599058022067747,0.0
19.14456,0.16763466593872167,0.0
19.146944,0.17736563041708547,0.0
19.149328,0.18788799082836743,0.0
19.151724,0.20008034177551573,0.0
19.154112,0.2068780399476844,0.0
19.156508,0.21395527737357345,0.0
19.158904,0.21330365106751556,0.0
19.161292,0.21172085920167935,0.0
19.163675999999995,0.21307133364203829,0.0
19.166072,0.20990574991036587,0.0
19.168456,0.20995297173860902,0.0
19.17084,0.20757878393985474,0.0
19.173236,0.20413366095446187,0.0
19.175624,0.20082830759592923,0.0
19.178004,0.19351875274456293,0.0
19.1804,0.18592965863947616,0.0
19.182788,0.17633846378797252,0.0
19.185172,0.16260329781677496,0.0
19.187568,0.15087023259199428,0.0
19.189956,0.14528323923332437,0.0
19.192336,0.13983601550151464,0.0
19.194732,0.13345762620992657,0.0
19.19712,0.13043181210511434,0.0
19.199516,0.12819739393322022,0.0
19.201912,0.13276067393349478,0.0
19.2043,0.1339713787469935,0.0
19.206684,0.1411883857997428,0.0
19.20908,0.14812585359877167,0.0
19.211464,0.1519902854647452,0.0
19.213848,0.15585471733071868,0.0
19.216244,0.15492355177094033,0.0
19.218632,0.15827612695771615,0.0
19.221012,0.157484731024798,0.0
19.223412,0.15469123434546306,0.0
19.2258,0.1509665721063498,0.0
19.22818,0.14529238007764972,0.0
19.23058,0.14162028879536653,0.0
19.232968,0.1400900678863604,0.0
19.235348,0.13548681104429885,0.0
19.237748,0.12673958308254338,0.0
19.240132,0.1199944558672048,0.0
19.242516,0.11324932865186622,0.0
19.244912,0.10422256143639035,0.0
19.2473,0.09426462866113616,0.0
19.24968,0.08137342957968681,0.0
19.25208,0.07062410087151452,0.0
19.254468,0.059682431579651946,0.0
19.256848,0.04902030154150979,0.0
19.259248,0.040500041876644695,0.0
19.261632,0.03412165258505666,0.0
19.264016,0.03440119183877708,0.0
19.266411999999995,0.0314679255325819,0.0
19.2688,0.03668283183891434,0.0
19.271184,0.039755867771969725,0.0
19.273579999999995,0.046413796317278176,0.0
19.275968,0.05516102427903362,0.0
19.278348,0.06483941780056739,0.0
19.280756,0.07344687613546261,0.0
19.28314,0.08484783114969283,0.0
19.285523999999995,0.0914531887381712,0.0
19.28792,0.09912948151328811,0.0
19.290308,0.10508321279570859,0.0
19.292688,0.10610157702551705,0.0
19.295096,0.10618877569554719,0.0
19.29748,0.10618877569554719,0.0
19.299864,0.10618877569554719,0.0
19.30226,0.10531018109259895,0.0
19.304648,0.10429181686279049,0.0
19.307032,0.1022025174463435,0.0
19.309432,0.09890251321639776,0.0
19.31182,0.09173807712047855,0.0
19.3142,0.08564457621119785,0.0
19.3166,0.07554687380908347,0.0
19.318988,0.06852220734002445,0.0
19.321368,0.059774979378269,0.0
19.323768,0.051027751416513556,0.0
19.326156,0.041349357894979795,0.0
19.32854,0.03274189956008456,0.0
19.330936,0.021340944545854366,0.0
19.333324,0.014735586957375988,0.0
19.335704,0.007059294182259077,0.0
19.338104,0.0011055628998385954,0.0
19.340492,8.719867003013737e-05,0.0
19.342876,0.01418876411995743,0.0
19.345272,0.03833701842801747,0.0
19.34766,0.07570289445446964,0.0
19.350044,0.1297315151847068,0.010142247970213972
19.35244,0.2052656998727239,0.019324336324228787
19.354832,0.3020731310930437,0.02788127175687194
19.357212,0.4097239962330012,0.036748159581726864
19.359612,0.5318031879048497,0.04568761903525003
19.362,0.6754804913330951,0.05438347465021254
19.364384,0.8421063809580964,0.06281301135924772
19.366784,1.0285152730481815,0.07109584731297096
19.369172,1.2312620446179567,0.07933795220078038
19.371552,1.451789717906399,0.08753519154187218
19.373944,1.691401545525624,0.09569704600952895
19.376332,1.9463728652365178,0.10391249427378048
19.378712,2.2187057777854977,0.11212482433372943
19.381116,2.507376569814168,0.12031253750995562
19.3835,2.8101508231506354,0.12849383343562173
19.38588,3.126888768168039,0.13667828569017956
19.388284,3.457218317814041,0.14484739926632295
19.390672,3.783040950132339,0.1529964504617484
19.393052,4.109798539726154,0.16097860155620047
19.395448,4.424596434243318,0.16888857229055773
19.397832,4.718914374018967,0.16668149088358886
19.400212,4.9863720739036435,0.16555080759761248
19.402616,5.2337200102412735,0.16505585912982104
19.405004,5.471714756726484,0.1642028854255087
19.407384,5.692954210709291,0.16325587061096414
19.409784,5.884402054352801,0.16264044654486953
19.412172,6.043729425828632,0.1624449654829447
19.414552,6.178710514839106,0.16251720514882742
19.416956,6.302521408847977,0.16255468419257788
19.419343999999995,6.409622336324821,0.162611565128704
19.421724,6.491680029059874,0.16278690152086261
19.424128,6.554513797837285,0.1629872938483038
19.426516,6.595003384895756,0.16334545788094187
19.4289,6.621621828071907,0.16373829030021955
19.431296,6.640515199231849,0.16402130046986982
19.433684,6.645212561285377,0.1642737456787005
19.43606,6.634503209418993,0.1645310609206299
19.438464,6.609176643707745,0.1649159747779556
19.440852,6.572908408704633,0.16551418149840325
19.443232,6.53947899635123,0.1661307562254775
19.445628,6.51321936922233,0.16663296118316925
19.448016,6.4914304742950915,0.16699100529874866
19.4504,6.466755534889897,0.16736448202173743
19.452792,6.4410549862684405,0.16784114606732245
19.45518,6.428528629252874,0.16819510419766648
19.45756,6.4282925201116585,0.16841272092172346
19.459964,6.444165764740395,0.16833903350618673
19.462352,6.468606490862239,0.16806578698815464
19.464732,6.491045116237667,0.1678399030356019
19.467127999999995,6.514227915717769,0.16765100327463062
19.469516,6.5505395808333855,0.16727694757767453
19.471896,6.596210123375027,0.16670637912686848
19.4743,6.653987714051657,0.16581577354025145
19.476688,6.705573906891801,0.16496873973244316
19.479068,6.751014027865835,0.16426240657657698
19.481463999999995,6.801993920370298,0.16351807176479985
19.483852,6.858793123658906,0.16271702506779442
19.486232,6.921226542134428,0.16177165656461417
19.488628,6.983846952065052,0.16077255453932812
19.491012,7.042463160502845,0.15985849202225377
19.493396,7.1015440037915925,0.15901355634982317
19.495792,7.166956014543685,0.15812864316076006
19.49818,7.2353012916019726,0.15719117153101256
19.50056,7.306534508996081,0.15613397688083944
19.502956,7.36226467295592,0.15528161036731253
19.505344,7.416551814676784,0.1544481014863397
19.50774,7.464181027852339,0.15373813999439392
19.510136,7.503709290243608,0.15313921387793814
19.512524,7.53304195330556,0.15264669520790355
19.514908,7.562189520770277,0.15209361024742937
19.517304,7.584027533383629,0.15164987376355357
19.519692,7.600231330810068,0.15133126877234102
19.522072,7.605725776370121,0.15122149835821472
19.524468,7.6184372289829225,0.15098359722905577
19.526856,7.631847529730026,0.15070876070947914
19.529236,7.639251528237878,0.15053559673685127
19.531632,7.6473071530517895,0.15036759595698915
19.53402,7.656805800104676,0.15019777873288065
19.5364,7.66285932417217,0.1500626002860235
19.538796,7.670450314135127,0.14984827116876354
19.541184,7.67529502924699,0.14963482223673213
19.54358,7.67189902394771,0.14952558198184246
19.545976,7.664778356409316,0.14946527933235068
19.548364,7.6527223218183105,0.14947984297351596
19.550744,7.644670488720138,0.1494316477304371
19.553144,7.634616554875549,0.14941505549560477
19.555532,7.626797039202854,0.14939004179800908
19.557912,7.623865668754528,0.14932747275605746
19.560308,7.628895479463626,0.14917442643128748
19.562695999999995,7.627080370172312,0.14916113906907022
19.56508,7.626196426440777,0.1491353294500079
19.567476,7.627966209761716,0.1490793853839191
19.56986,7.635322986441326,0.14894817438762736
19.572244,7.638535792001242,0.14888937310996891
19.57464,7.637372309015986,0.14887803019253104
19.577028,7.6383979182322514,0.14878910468007148
19.579412,7.6307634981567904,0.1488265170578728
19.581807999999995,7.618333480655578,0.14893321528223752
19.584196,7.611630226139895,0.14895794032075502
19.586576,7.59957229569102,0.149081259614858
19.588975999999995,7.585232725242008,0.14925143336971478
19.59136,7.578342479271222,0.14932157028614376
19.593744,7.5794134144578615,0.14930207977992196
19.59614,7.584209011883613,0.14923367672423282
19.598528,7.595522768227814,0.149081917543866
19.600924,7.606604207146535,0.14890707704802944
19.60332,7.614380292706725,0.14875944953466358
19.605708,7.622855226401217,0.14857736363170382
19.608088,7.6329601737897885,0.14834999740022256
19.610488,7.654985177858243,0.147910919322563
19.612876,7.676917634128079,0.14744348022638507
19.615256,7.695172649987046,0.14698681145400197
19.617652,7.712496500286235,0.14654452415301958
19.62004,7.729680580958565,0.14610832325265524
19.62242,7.752311885362704,0.1456091306153434
19.62482,7.772661549766705,0.14515518758330542
19.627208,7.7983658901039,0.1446063317384015
19.629588,7.828726058239986,0.14399923232742068
19.631984,7.85852714786863,0.14342609412458962
19.634372,7.897128036415859,0.14273188691570715
19.636752,7.937638477910889,0.14197768918307468
19.639148,7.973121004554692,0.14127133965561933
19.641536,7.999850954108149,0.14065266232033535
19.643932,8.025789507728689,0.1400431765048238
19.646328,8.043627110564945,0.1395230619123508
19.648716,8.064537749334255,0.1389618920302219
19.6511,8.086659092917065,0.1383767684046107
19.653496,8.108221357992436,0.13782146695262626
19.655884,8.127874070120004,0.1373267809700743
19.658264,8.140542092620302,0.13696589876187348
19.66066,8.15265103661316,0.136632231970149
19.663048,8.16685462915105,0.13630099967436574
19.665428,8.18212915687558,0.13595531823769821
19.667828,8.20191974277214,0.1355679121920394
19.670216,8.22399196866884,0.13514665398394063
19.672596,8.247414669005897,0.13469674415287364
19.674996,8.270977138969814,0.13424380103127503
19.677384,8.291606342627535,0.13382738585874487
19.679764,8.30944204960592,0.13344069222867314
19.68216,8.321550993598779,0.13312107369635745
19.684548,8.333520167964773,0.13280906629718794
19.686928,8.34520980307705,0.13250957170776462
19.689328,8.363929453786973,0.13215405477894102
19.691711999999995,8.381019090802814,0.13184022460295908
19.694096,8.40099477229661,0.13152586094517604
19.696492,8.41668671304385,0.13127627001616696
19.69888,8.431028179350731,0.13105486044742154
19.70126,8.44616104159053,0.13083151744129337
19.70366,8.462784147897548,0.13057528283165365
19.706044,8.475822361592316,0.1303476272582683
19.70844,8.486998244167523,0.13013809962577927
19.710836,8.492587133384063,0.1299835698982864
19.713224,8.491890181107632,0.12991689371132223
19.715608,8.487608336218948,0.12988162605264622
19.718004,8.476249253904374,0.12993651117450872
19.720388,8.462468761962802,0.13003519440638836
19.722772,8.444124990020956,0.13020938593636713
19.725168,8.427364009944945,0.13037780667975077
19.727556,8.414327692108051,0.13050819626234136
19.729936,8.401011835017433,0.1306515396249606
19.732332,8.387136899419376,0.1308195748280521
19.73472,8.373494281246796,0.13101028842608825
19.737116,8.35598723120824,0.13124303184035357
19.739512,8.340110194863765,0.13143457875934747
19.7419,8.323069675534034,0.13161311357128838
19.74428,8.30309588989811,0.1318277252802208
19.746676,8.284053269821962,0.1320334505049889
19.749064,8.26235692269334,0.13226062059053006
19.751444,8.237587539631663,0.13252740734740798
19.753844,8.21803306287632,0.1327234322227855
19.756232,8.201132313173447,0.13289797251474056
19.758612,8.192472283881724,0.132994983762113
19.761016,8.190470183135307,0.13302020471829257
19.763404,8.18911970869495,0.13304864053502588
19.765784,8.1939153061207,0.13299540725759648
19.76818,8.201504400225788,0.13291385180190296
19.770572,8.214960026943265,0.132762919619952
19.772952,8.23204776810124,0.13254811632054642
19.775348,8.246761321460458,0.13234394592728835
19.777736,8.262825349260035,0.1321117904243968
19.78012,8.282102182619528,0.13183528747905196
19.782524,8.301006928926682,0.13154204578829368
19.784908,8.320470753741281,0.1312241839170092
19.787288,8.338723873742378,0.1309292448699754
19.789692,8.357488850422675,0.1306439424578376
19.79208,8.382632216394558,0.1303002571878041
19.79446,8.40870674792622,0.12994810741296983
19.796864,8.43585221464452,0.12958015436746267
19.799252,8.465139551736097,0.12918199579307235
19.801632,8.496289219947235,0.12877055385598765
19.804027999999995,8.528789362598728,0.12833491398972138
19.806416,8.558263691145408,0.12790804359635483
19.8088,8.58806478077405,0.12744034714943886
19.811195999999995,8.617913092230943,0.12694107139472782
19.813584,8.642546497381497,0.12651079496594253
19.815964,8.667599211412632,0.12606459641366238
19.818363999999995,8.689346572085237,0.12563632446998899
19.820748,8.70429623458567,0.12528050630790732
19.823128,8.716964257085968,0.12495879693447874
19.825524,8.729073201078824,0.12466128870130114
19.827912,8.73517584283243,0.12443200210546584
19.830296,8.743420354959314,0.1241745321557394
19.832692,8.751245558205616,0.1239352364712534
19.83508,8.759210531078779,0.12369026396199369
19.837456,8.770667848765578,0.12339271334902081
19.839856,8.779378891601286,0.12308766683153058
19.842244,8.786786681824875,0.12277558504956952
19.844624,8.795684716115685,0.1224330348137974
19.847024,8.804070893727298,0.12208209235247977
19.849412,8.808732409099797,0.12176405185281178
19.851792,8.8104606581661,0.12147593609246986
19.854188,8.812049137605547,0.12119401257262741
19.856576,8.809865732977634,0.12097616522829821
19.858972,8.80698348021542,0.12078725899936564
19.861368,8.804380766706927,0.12058610564912033
19.863756,8.800707118011797,0.12039858681861149
19.866136,8.796893699689804,0.1202165382449769
19.868536,8.797736109166703,0.11999642061381093
19.87092,8.802070863457239,0.11972469968866295
19.873304,8.808966797001633,0.11941003967083041
19.8757,8.818935766479083,0.11906019417614983
19.878088,8.831186375956666,0.1186811964812151
19.880472,8.842133732822136,0.11829367261208538
19.882868,8.855222960060882,0.11788179807263878
19.885252,8.85923284912732,0.11756392700822448
19.887632,8.86133318524596,0.11729283070708041
19.890036,8.865016313230434,0.11701886784336149
19.892424,8.866929657893971,0.11678701738024942
19.894808,8.86600228404993,0.11660938414437738
19.897204,8.862793270205755,0.11646296994999941
19.899592,8.860655191548215,0.11630339532993324
19.901972,8.858889199943013,0.11615962453385428
19.904368,8.859404848337947,0.11598421233994784
19.906756,8.856847460799827,0.11584162122366469
19.909136,8.85908567068746,0.1156572102513957
19.911536,8.862255046134868,0.11546597912448275
19.913924,8.866215817515197,0.11527318512339564
19.916304,8.868314257775967,0.1150953708180405
19.9187,8.870645015462216,0.11493962326953776
19.921088,8.87255646426788,0.11480167122020933
19.923472,8.87418837381983,0.11467503045283992
19.925864,8.870046298558005,0.11462807440362213
19.928252,8.870140742214492,0.11456350742262937
19.930652,8.864740740310927,0.11456678363764562
19.933052,8.86986309881864,0.11448333566190061
19.93544,8.884064795498663,0.11431185924014861
19.93782,8.9002685929251,0.11412317173431497
19.940216,8.918102404045618,0.1139009456361139
19.942604,8.940219955912687,0.1136299993063206
19.944988,8.96741264445923,0.11330925932115714
19.947384,8.995256959311831,0.11299429618145933
19.949772,9.022729187112095,0.11266490197968547
19.952156,9.050201414912358,0.11233787470973347
19.954552,9.083959484205593,0.11194500613373004
19.95694,9.114364978312052,0.11159579351745028
19.95932,9.142908141298957,0.11126039767094617
19.96172,9.173732944285995,0.1108981591264953
19.964104,9.206420078392593,0.11052535880272701
19.966488,9.235242780633216,0.11018306611092651
19.968884,9.261551525448226,0.10985030858761961
19.971276,9.288139809516956,0.10950719112127291
19.973656,9.320082769518876,0.10910658295875142
19.976052,9.34951177209518,0.10871672789666803
19.97844,9.384435220231543,0.10826354199708266
19.980824,9.414702840569012,0.10784548393383712
19.983224,9.434308330868339,0.10751279670980485
19.985612,9.447907518928414,0.10723251928349446
19.987995999999995,9.463229268481184,0.10694792750909818
19.990392,9.475897290981484,0.10667675745265001
19.99278,9.4881460046012,0.10642290461250832
19.99516,9.499603322287998,0.10617028342591706
19.99756,9.512783201467492,0.10591250597527531
19.999944,9.526894246206767,0.10565071404035366
20.002328,9.539934355759403,0.10540207695408985
20.004724,9.555535644565895,0.10511788427525978
20.007112,9.573139034118805,0.10481822246319368
20.009496,9.59139404997777,0.10452598990586834
20.011892,9.608066273970902,0.10423601813487104
20.01428,9.630512482777807,0.1038804799627474
20.01666,9.65388985714449,0.10352017770750754
20.019056,9.68034026744423,0.10313662107005683
20.021448,9.705068116251269,0.10276178517085001
20.023828,9.72965619543145,0.10239278824867791
20.026228,9.751822864984632,0.10205535666244497
20.028616,9.774920700097596,0.10171393417565121
20.030996,9.801882967076532,0.10134595050957132
20.033392,9.832849435548303,0.10094707115136609
20.035779999999995,9.859951472154098,0.10057547563824913
20.03816,9.892780271745425,0.1001723776445426
20.04056,9.92216394835136,0.09977980989326159
20.042944,9.950336920143794,0.09940188616011675
20.045328,9.976787330443532,0.0990308789034128
20.047723999999995,9.998162604063799,0.09869911300743772
20.050108,10.014462741004593,0.09840649438220017
20.052508,10.028760777198968,0.09812996571722467
20.054904,10.043989978953121,0.0978502967116938
20.057292,10.052561252161968,0.09760884393451236
20.059676,10.056569245370541,0.09741473022795613
20.062072,10.053872088205562,0.09728816677254798
20.06446,10.050615852533141,0.097180967242744
20.066844,10.043215645741027,0.09710720185666195
20.06924,10.032323094135279,0.09707152295420082
20.071628,10.022361708089308,0.09703096998026452
20.074008,10.011748695737278,0.09698537438498302
20.076404,9.998202417079053,0.09695843750625445
20.078792,9.987449635100162,0.09691730999818776
20.081172,9.974834522001714,0.096885178244914
20.083568,9.962731265582466,0.09686280628225423
20.08596,9.940617505431131,0.0969100210960282
20.088339999999995,9.920226306772495,0.09695281888791613
20.090736,9.900906043300498,0.09698625868223497
20.093124,9.881026701321058,0.09703869655920205
20.095507999999995,9.863801086394092,0.09708265559773856
20.097904,9.852302234452658,0.09709410899343368
20.100292,9.838381972884228,0.09713407129490802
20.102672,9.819107035382604,0.09722124993482736
20.105068,9.808352357545845,0.0972618321518736
20.107456,9.803743751575198,0.0972556747364445
20.109836,9.804210282284021,0.09721199818983996
20.112236,9.805235891500283,0.0971490365134758
20.114624,9.809194767022746,0.09706764961755303
20.117008,9.817577152918618,0.09694406418531541
20.119404,9.829032574747547,0.09679857865973518
20.121792,9.846494298815728,0.09661359658184873
20.124176,9.866097893257185,0.09641020211522396
20.126572,9.885049861392584,0.09620380423371107
20.128964,9.905072764714623,0.09598866878219418
