Time,Force,Position
17.72898,0.0,0.0
17.73136,0.0,0.0
17.733764,0.0,0.0
17.736148,0.0,0.0
17.738528,0.0,0.0
17.740932,0.0,0.0
17.74332,0.0,0.0
17.7457,0.0,0.0
17.7481,0.0,0.0
17.750488,0.0,0.0
17.752868,0.00025892106781906385,0.0
17.755264,0.007455309934667003,0.0
17.757648,0.01651402992107158,0.0
17.760044,0.025852289161196577,0.0
17.762439999999998,0.03719264914773843,0.0
17.764824,0.052676980253974194,0.0
17.767204,0.06909247691998828,0.0
17.769607999999998,0.08150377209316866,0.0
17.771992,0.09712787282626462,0.0
17.774372,0.10753706725302815,0.0
17.776768,0.12087952798598685,0.0
17.779156,0.13408221909208534,0.0
17.781536,0.14486350057118633,0.0
17.78394,0.157507113169844,0.0
17.786328,0.17029049539536184,0.0
17.788708,0.18414481280751824,0.0
17.7911,0.19399492872684093,0.0
17.793488,0.20277410945952512,0.0
17.79588,0.20941141981893222,0.0
17.798275999999998,0.21297569424528395,0.0
17.80066,0.21441871648425995,0.0
17.80304,0.20722232761741202,0.0
17.805436,0.19816360763100743,0.0
17.807824,0.18882534839088244,0.0
17.81022,0.1774849884043406,0.0
17.812611999999998,0.1620006572981048,0.0
17.815,0.14558516063209073,0.0
17.81738,0.13317386545891036,0.0
17.819776,0.11754976472581438,0.0
17.82216,0.11005321841934466,0.0
17.824544,0.10069434099331831,0.0
17.82694,0.09254616838079069,0.0
17.829324,0.08789034058189908,0.0
17.83172,0.08044101610367252,0.0
17.834115999999998,0.07257238274486533,0.0
17.836503999999998,0.0636328141994196,0.0
17.838884,0.05841790789308715,0.0
17.841276,0.0524116056538366,0.0
17.843664,0.048686943414723315,0.0
17.846059999999998,0.049106252295303944,0.0
17.848456,0.050316957108802685,0.0
17.850839999999998,0.054021001162014616,0.0
17.85322,0.05865621077500486,0.0
17.855616,0.059147449268301185,0.0
17.858,0.05963868776159752,0.0
17.860395999999998,0.05963868776159753,0.0
17.862792,0.06227179662817092,0.0
17.86518,0.06611561030824308,0.0
17.86756,0.06823686249561876,0.0
17.869956,0.06744546656270066,0.0
17.872344,0.06346188325576829,0.0
17.87472,0.0594576817629346,0.0
17.877124,0.056524415456739426,0.0
17.879512,0.052520213963905736,0.0
17.881892,0.047605465097195064,0.0
17.884296,0.04388080285808178,0.0
17.886684,0.041646384686187664,0.0
17.889064,0.0422054631936285,0.0
17.89146,0.04369570726084766,0.0
17.893843999999998,0.046117116887845144,0.0
17.896224,0.05068039688811969,0.0
17.898628,0.053381345768837594,0.0
17.901016,0.053009258716500106,0.0
17.903396,0.05771230834363487,0.0
17.905788,0.05920255241085404,0.0
17.908176,0.05920255241085403,0.0
17.910572,0.05656944354428064,0.0
17.912976,0.0527256298642085,0.0
17.91536,0.0506043776768328,0.0
17.91774,0.048483125489457095,0.0
17.920144,0.048483125489457095,0.0
17.922532,0.04743280848871992,0.0
17.924912,0.04424062111470568,0.0
17.927316,0.0430505344871083,0.0
17.929704,0.0430505344871083,0.0
17.932084,0.041860447859510916,0.0
17.93448,0.03945965641841479,0.0
17.936868,0.03612769941754034,0.0
17.939248,0.031724807230027366,0.0
17.94164,0.02531981429609754,0.0
17.944028,0.017843886175529178,0.0
17.946407999999998,0.011438893241599348,0.0
17.948804,0.007175770680946582,0.0
17.951192,0.0019814825605154953,0.0
17.953572,0.0,0.0
17.955968,0.0,0.0
17.958351999999998,0.0,0.0
17.960732,0.0,0.0
17.96314,0.0,0.0
17.965524,0.0015621736799348643,0.0
17.967904,0.0032641169867299383,0.0
17.970299999999998,0.004174664360606902,0.0
17.972687999999998,0.007227082107760927,0.0
17.975084,0.011490204668413693,0.0
17.97748,0.01482216166928814,0.0
17.979864,0.019085284229940904,0.0
17.982243999999998,0.02013560123067808,0.0
17.98464,0.021977314164333364,0.0
17.987028,0.027031832657904237,0.0
17.989408,0.030084250405058265,0.0
17.991804,0.031274337032655655,0.0
17.994191999999998,0.03367512847375178,0.0
17.996588,0.03367512847375177,0.0
17.99898,0.03407381916843105,0.0
18.001368,0.034073819168431045,0.0
18.003747999999998,0.03407381916843105,0.0
18.006144,0.0375455457961657,0.0
18.008532,0.03754554579616571,0.0
18.010912,0.03754554579616571,0.0
18.013316,0.03638206281091012,0.0
18.015704,0.03493904057193411,0.0
18.01808,0.03402849319805714,0.0
18.020484,0.030976075450903123,0.0
18.022872,0.026712952890250358,0.0
18.025252,0.023919456210915395,0.0
18.027648,0.019656333650262627,0.0
18.030036,0.02035518178456368,0.0
18.032416,0.020402403612806833,0.0
18.034812,0.018307755067772914,0.0
18.037196,0.01914637282893418,0.0
18.039592,0.02156778245593166,0.0
18.041988,0.021707552082791872,0.0
18.044376,0.026250213897165055,0.0
18.046756,0.03160488983035771,0.0
18.049152,0.03521638608495258,0.0
18.05154,0.035216386084952575,0.0
18.05392,0.031744659457217925,0.0
18.056316,0.031744659457217925,0.0
18.058704,0.031744659457217925,0.0
18.0611,0.03134596876253865,0.0
18.063504,0.031087047694719587,0.0
18.065892,0.031087047694719587,0.0
18.068272,0.031087047694719587,0.0
18.070668,0.031087047694719587,0.0
18.073056,0.030548587373180103,0.0
18.075436,0.030548587373180103,0.0
18.077832,0.028799422238141876,0.0
18.08022,0.02691048747624344,0.0
18.0826,0.023950617527706473,0.0
18.084996,0.020059582019391186,0.0
18.087384,0.01644808576479632,0.0
18.089768,0.018302833452875984,0.0
18.092164,0.0309084672619764,0.0
18.094552,0.05682427058808595,0.0
18.096928,0.11113588384276119,0.01032237868069545
18.099324,0.18670012544383774,0.020066020947254338
18.101712,0.2796731817112435,0.029357541875490643
18.104104,0.38749387339112074,0.03859073084353406
18.106508,0.5121170794016431,0.04777158693493915
18.108896,0.6581986275417023,0.056697639154222705
18.111272,0.8264373659455994,0.06534708470681741
18.113676,1.013016084575604,0.07384213151942558
18.116064,1.215141286752381,0.0822929289817289
18.118444,1.431602267662432,0.09075832428518371
18.120836,1.6628636621567112,0.09931266780931024
18.123224,1.9178650387806646,0.1076946345853393
18.125604,2.1933010441757594,0.11598141857252395
18.128008,2.486844712371484,0.1241625703830166
18.130396,2.792349971501729,0.13239159035068446
18.132776,3.1115393830591893,0.14063956793317345
18.13518,3.4463224999916653,0.1488287425083979
18.137564,3.7920263701472714,0.15686381427644633
18.139944,4.129633081234331,0.1648249054039
18.142344,4.448669390527676,0.17278612487261588
18.144728,4.731768017615611,0.1705589652780661
18.147108,5.000530865970273,0.1688736599645522
18.149512,5.258914915256251,0.16754467526234001
18.1519,5.507154378756892,0.1661603416916532
18.15428,5.7336106349039015,0.164841631751051
18.156684,5.931346215898252,0.16384558456891093
18.159072,6.099055973269957,0.1632739660142074
18.161452,6.245445262281117,0.16295669437953883
18.163848,6.374797823678286,0.16273432019956183
18.166236,6.48944251928984,0.16247920861384102
18.168616,6.589473792772273,0.16208251294147424
18.171012,6.65989855151264,0.1619745848786721
18.1734,6.709841459653623,0.16200666314105602
18.17578,6.752291613203875,0.1619816522566912
18.178184,6.786132751006383,0.16182779415592047
18.180568,6.799818799291468,0.16172235821992986
18.182952,6.789810191417254,0.16180642546414742
18.185348,6.764717838989352,0.16207183952661802
18.187732,6.735993372120953,0.16243031488519022
18.190116,6.717184965328153,0.16267167825784085
18.192508,6.708107523013714,0.16273511518699518
18.194896,6.693490309168851,0.16284967732744454
18.197288,6.6712840012189005,0.16309468727251483
18.199692,6.646701609612326,0.16347425515748454
18.20208,6.63813412811922,0.16365867084115093
18.20446,6.640972950768926,0.16369001661247135
18.206864,6.6519599460311625,0.1635572753803794
18.209248,6.668441386853451,0.16329637801945124
18.211628,6.694886109579583,0.16288844867381144
18.214032,6.725659899022642,0.1624676068369602
18.21642,6.75559507070454,0.16209781021672443
18.2188,6.791723536080789,0.1615558743211609
18.221196,6.825525035486529,0.16098730186012372
18.223584,6.845219281868735,0.16066273336447098
18.225964,6.866728637542252,0.16035832436245875
18.22836,6.899923836612311,0.1598876648836568
18.230748,6.9451316401608665,0.1591863533092085
18.233128,6.988012477738912,0.15845947775204297
18.235528,7.031172854570679,0.15771739611131916
18.237912,7.0752171751339805,0.1570264786714818
18.240292,7.1258722024143495,0.15628515969976253
18.242696,7.178110021560552,0.1555274584560737
18.245084,7.226251091415304,0.15479702235300366
18.247468,7.274067296045962,0.1540135107100929
18.249864,7.3107095139592815,0.15341911159595076
18.252248,7.344418465566404,0.1528830892806946
18.254632,7.3784069564272485,0.15233449118134146
18.257028,7.407786841317442,0.15181476246626943
18.259416,7.429112997251597,0.15136972261368128
18.261796,7.4491359005736335,0.1509265001408035
18.264192,7.4744662580006205,0.15042527101768752
18.26658,7.500540789532282,0.1499610114729913
18.26896,7.528477652183501,0.14946916469702168
18.271356,7.5609777948349945,0.14887736123002482
18.273744,7.588030713754678,0.14836040436774506
18.27614,7.611591287860726,0.14792609660452946
18.278536,7.6343132442056145,0.14754346068788735
18.28092,7.660340553909035,0.14713404150275242
18.283304,7.687625790254195,0.14666418358531833
18.2857,7.705506823202956,0.1462866902020486
18.288084,7.71593853167349,0.14600786139389374
18.290468,7.730653980890578,0.14565684885326208
18.292864,7.749001544548163,0.14522500157763155
18.295252,7.7619018844739385,0.14485575210090798
18.297632,7.7722882669740985,0.144505870659835
18.300024,7.779601613541203,0.14420542166052444
18.302412,7.789708456787643,0.14387237953202262
18.304808,7.805122754139032,0.14348510338881598
18.307204,7.822539152236838,0.1430707591263992
18.309592,7.839583463282308,0.14264418309847135
18.311976,7.847967745036051,0.142333397693875
18.314372,7.85313922122988,0.14207675966800593
18.316756,7.856820453356488,0.14185838557818187
18.319136,7.859058663244121,0.14164216953407782
18.321532,7.861344094959996,0.14138848987399252
18.32392,7.860975799623397,0.1411620405294488
18.326304,7.856603302793965,0.14099493277319705
18.3287,7.851159870777893,0.14084600318443372
18.331088,7.842503633201907,0.14075085537406812
18.333484,7.830914129319725,0.1406966103129501
18.33588,7.818253690250905,0.14066095195605433
18.338268,7.804894403047782,0.1406582803623008
18.340648,7.7930706858822525,0.14068428756737628
18.343044,7.787904897262034,0.14062525915305124
18.345432,7.788326102000482,0.14049962971505867
18.347812,7.794334300097602,0.1403080839714137
18.350212,7.799783419687282,0.1401460177298723
18.352592,7.8040218344634615,0.14000976874236587
18.354988,7.803324882187029,0.13994037435692383
18.35738,7.796109770992149,0.13994539208363943
18.359768,7.7953202709171,0.1398456660507303
18.362144,7.803470339387497,0.13962445548463623
18.36454,7.82055997640334,0.13928464925465267
18.366924,7.8370905349117415,0.13897120299802287
18.36932,7.851059914166286,0.13871099738637865
18.371716,7.8668916245403855,0.13842980269545027
18.3741,7.88616845789988,0.13812085792611778
18.37648,7.908378557565569,0.13777659504803128
18.378884,7.934173549843511,0.1373998702322401
18.381272,7.968908110666899,0.13690201775182798
18.383652,8.00629639854276,0.1363782086858382
18.386056,8.03926117604521,0.13593034376147214
18.38844,8.076277376868736,0.13539787025567404
18.39082,8.107566814706729,0.13493514566787493
18.393224,8.132477863253136,0.1345370603893136
18.395612,8.151662148814012,0.13420751585448673
18.397992,8.16884433362847,0.13390682052162706
18.400388,8.182162086576957,0.133652886584477
18.402776,8.198273336204776,0.13336807754278046
18.405156,8.220483435870467,0.13303138710882872
18.40756,8.239852817028577,0.13276232349241598
18.409948,8.25242450001452,0.13257937586590177
18.412324,8.25582429702954,0.13248914874289502
18.414724,8.259922942178859,0.1323665967961451
18.417108,8.269096724007651,0.1321762800593399
18.419492,8.279620980276803,0.13195839975151524
18.421888,8.287119422441142,0.1317475096417053
18.424276,8.289310410500534,0.1315812731590339
18.426656,8.28274882146958,0.13148388552542578
18.42906,8.27232280057265,0.13143030814371662
18.431444,8.262176318929445,0.13136389807625537
18.433828,8.2540791598609,0.1312372146090049
18.436224,8.240767094486023,0.1311818908141617
18.438608,8.230528065044199,0.1310858230557798
18.440992,8.226527655267104,0.13093749561990645
18.443388,8.225600281423063,0.13074850143476463
18.445772,8.224161050899825,0.13054997225874332
18.448168,8.226074395563364,0.13029825242594845
18.450564,8.223843769107209,0.13010173521671342
18.452952,8.215606840411803,0.12998025033064328
18.455332,8.209139695037337,0.12981112793033636
18.457728,8.204302563356949,0.12960088720994856
18.460116,8.200908453915538,0.12939040555126327
18.462496,8.195604791526328,0.12923360228440978
18.4649,8.188950654696754,0.12910552622953506
18.467288,8.178804173053548,0.12903708930097338
18.469668,8.171451188089675,0.12894067568235318
18.472064,8.164050981297558,0.1288795266762782
18.474452,8.164844273088347,0.1287762569802405
18.476836,8.168803148610808,0.12866173789545907
18.479228,8.173693189693044,0.12853863882688898
18.481616,8.17909508745448,0.12842592736341144
18.484012,8.183146510775558,0.12834101693029804
18.486408,8.186359316335473,0.12829439561934064
18.488796,8.187058164469772,0.1282627187562283
18.491176,8.186965616671154,0.12823384534487078
18.493572,8.185941903312758,0.1282139906769936
18.49596,8.182636549954227,0.12823102336943795
18.498344,8.187479369208221,0.12814473737307763
18.50074,8.200749900328466,0.1279427003876334
18.503128,8.21402043144871,0.1277422142640871
18.505508,8.223519078501594,0.1276122862187759
18.507904,8.235531682980096,0.12746860715758665
18.510292,8.253550589697847,0.12725372738126975
18.512672,8.273431827535159,0.1270230788572505
18.515076,8.295734474999465,0.1267500446999547
18.51746,8.314684547276997,0.12652894375625015
18.51984,8.338849525860862,0.12623955697674438
18.522236,8.363061726272967,0.12591871318664039
18.524624,8.384759969259457,0.12561305753801486
18.52702,8.405806585939892,0.12530614809236176
18.529416,8.424571562620187,0.12503428960802204
18.531804,8.449203071912873,0.12470061935994907
18.534184,8.473462494153225,0.12435039197456221
18.536588,8.495580046020295,0.12402855169492633
18.538972,8.519000850499483,0.12371536647402087
18.541352,8.544656073150565,0.12340184604714205
18.543756,8.574827353973676,0.12305459044089956
18.546144,8.601785829236873,0.12275478099110426
18.548524,8.628604534873212,0.12246716299798603
18.550928,8.655655557935027,0.12220303094068934
18.553316,8.686990321743394,0.12188333007406502
18.555696,8.715950897753007,0.12157067812360475
18.558092,8.739464250030812,0.12130143548693925
18.56048,8.758741083390305,0.12105492757197327
18.56286,8.78216188786949,0.12076397380492071
18.565256,8.808515958654873,0.12044445059590352
18.567644,8.833427007201282,0.12012618466268217
18.570024,8.85619618537441,0.11983679146123695
18.57242,8.880967464293956,0.11952832186764331
18.574808,8.905179664706063,0.11924413617950648
18.577188,8.933675605864723,0.11890863179957784
18.579588,8.955793157731792,0.11862019038908506
18.581976,8.981495602211115,0.11830973276499517
18.584356,9.010922708929554,0.11797006449251105
18.586752,9.040257267849375,0.11760607514469419
18.58914,9.070709983784079,0.11720066484531104
18.591524,9.093713375240554,0.11685252222290386
18.59392,9.116716766697031,0.1165058480400414
18.596308,9.135855726287534,0.11619587280983418
18.598692,9.153970972519637,0.11586793274209961
18.601088,9.16915295244555,0.11556725370852068
18.603476,9.187128429050798,0.11524686915127573
18.605856,9.210039272708658,0.11488269763233952
18.60826,9.234532908232353,0.11451550175287022
18.610648,9.251529997449579,0.11423631678501392
18.613028,9.268294769241326,0.11393858106917264
18.615432,9.285711167339134,0.11364715375282247
18.61782,9.302987795810077,0.11336156604492378
18.6202,9.322266525027441,0.11306077803133582
18.622596,9.343175267938886,0.11272863973114913
18.624984,9.360778657491792,0.11240817690495501
18.627364,9.384900205963152,0.11204438028748964
18.62976,9.40944106331509,0.11166886556986269
18.632148,9.432818437681773,0.1112815495534231
18.634528,9.456056042421594,0.1109018003250548
18.636928,9.4753819934672,0.1105831208069888
18.639312,9.50471844824489,0.11017989721788651
18.641692,9.530470010410328,0.10979512967895878
18.6441,9.55300876701585,0.10944273784506062
18.646484,9.576059380300569,0.10910125848133777
18.648868,9.6023227991452,0.10872766372275511
18.651264,9.625652951683639,0.10837820081919003
18.653652,9.646561694595082,0.10806366693184742
18.656036,9.669472538252938,0.10773367532802554
18.658428,9.694013395604875,0.1073709246809861
18.660816,9.716924239262733,0.10704103606859024
18.6632,9.737832982174174,0.10672924042624282
18.665596,9.758881494712474,0.10641280977167164
18.667984,9.77206137389197,0.10615808394360507
18.670368,9.782959613071327,0.10593113716224302
18.67276,9.795161104862801,0.10571369289670156
18.675148,9.80377770404202,0.10551511893648492
18.677544,9.807039627288049,0.10536988610498478
18.679936,9.81146503351933,0.10523919356739
18.682324,9.81654206605667,0.10511363637574071
18.684704,9.824459817101587,0.10494247670811152
18.687108,9.82236706441442,0.10485068772910712
18.689492,9.825581765832203,0.10473660159334616
18.691872,9.833080207996542,0.10458092893957609
18.694276,9.838064692735266,0.10443148099081075
18.696664,9.84276963822027,0.10429285867105044
18.699044,9.851618554824967,0.10411899862904862
18.70144,9.861957715496885,0.10392124134818656
18.703828,9.871365710609023,0.10372966519282144
18.706208,9.883427432773633,0.10352819951293796
18.708604,9.896699859751743,0.10331234308296075
18.710992,9.905176689304104,0.10312580474177653
18.713384,9.916447015535802,0.1029249254306922
18.715788,9.930510838446828,0.10270740151075837
18.718176,9.94485420061158,0.10248050955412463
18.720556,9.959337332403193,0.10224962618084832
18.72296,9.971538824194667,0.10204326826228588
18.725348,9.986021955986278,0.1018116360314316
18.727728,9.998130899979135,0.10158120244958715
18.730132,10.008517282479293,0.10135681278620175
18.73252,10.018344586472013,0.10115280108491144
18.7349,10.034178192703983,0.10090404532038971
18.7373,10.044564575204145,0.10068047528145133
18.739688,10.053880022517664,0.10046735649709038
18.742068,10.06664059281658,0.10024447821452494
18.744472,10.07032182494319,0.10008923499298787
18.74686,10.067717215576826,0.09998812568857816
18.749244,10.059106303971213,0.0999311333784455
18.751652,10.04462885975321,0.09991365048177865
18.754036,10.023353717363038,0.09994096277254334
18.75642,10.001426948666808,0.09996269856489555
18.758828,9.988439748516024,0.0999201222381205
18.761212,9.97079672056635,0.09990185733671378
18.763592,9.954364397430169,0.09986885154822457
18.765988,9.937512765413414,0.09985020126163013
18.768376,9.918519263023379,0.09985088204969586
18.770756,9.905671832499456,0.09980255324215966
18.773152,9.89375556753531,0.0997491686820915
18.77554,9.88421349036992,0.09969571695468105
18.77792,9.87332093876417,0.09966149443575932
18.78032,9.860426286412002,0.09964162950867532
18.782704,9.84310812368642,0.09966496883085538
18.785088,9.83165649357323,0.09964972919858284
18.787484,9.822067194579592,0.09962474432430155
18.789872,9.809544629279763,0.09961862825415009
18.792252,9.809034668458436,0.09952702972686142
18.79466,9.811877282823882,0.09940169098755207
18.797048,9.819096185734502,0.09926175460646497
18.799428,9.836977218683261,0.09905538325083359
18.801828,9.86258711536397,0.09880087233092949
18.804216,9.889779803910514,0.09854823309963555
18.806596,9.9156220180167,0.09831791510379587
18.808996,9.947982391041332,0.0980570673400554
18.811384,9.980482533692825,0.09779241380516653
18.813764,10.012750358918842,0.09750912494461018
18.81616,10.047439593771855,0.09719854973179846
18.818548,10.077333231199118,0.09691783082655608
18.820928,10.107506407880098,0.09662955302159854
18.823328,10.132511900082994,0.0963534576346208
18.825712,10.155422743740852,0.09606571802558575
18.828096,10.181174305906287,0.09573715241229384
18.830492,10.212839622512359,0.09534551021595203
18.832876,10.240920046506178,0.0949689421145289
18.83526,10.267557448261018,0.09458913774015229
18.837668,10.297966734083216,0.09416566850262952
