Time,Force,Position
21.74544,0.007488032735285891,0.0
21.747836,0.007488032735285892,0.0
21.750224,0.007488032735285892,0.0
21.752608,0.007488032735285892,0.0
21.755004,0.008426939946476078,0.0
21.757392,0.012438883090721645,0.0
21.759776,0.013649587904220387,0.0
21.762172,0.013789357531080595,0.0
21.76456,0.021525962914439447,0.0
21.766944,0.026461329967051465,0.0
21.76934,0.0361922944454153,0.0
21.771728,0.045923258923779145,0.0
21.774124,0.0537996339339982,0.0
21.77652,0.0627469441308558,0.0
21.778908,0.07248565026063149,0.0
21.781292,0.08036202527085055,0.0
21.783688,0.08837816990792982,0.0
21.786076,0.09746524973164762,0.0
21.78846,0.10669209918222564,0.0
21.790856,0.11619848788652408,0.0
21.793244,0.12570487659082252,0.0
21.795628,0.13241776861578597,0.0
21.798028,0.13605762470769406,0.0
21.800416,0.136764214493407,0.0
21.802796,0.13582530728221678,0.0
21.805192,0.13181336413797123,0.0
21.807584,0.12780142099372566,0.0
21.809964,0.12486041303611863,0.0
21.812364,0.11712380765275979,0.0
21.814752,0.11031836782917924,0.0
21.817132,0.10057966169940354,0.0
21.819536,0.09084095556962785,0.0
21.82192,0.08296458055940878,0.0
21.8243,0.0740172703625512,0.0
21.826696,0.06427856423277548,0.0
21.82908,0.05640218922255642,0.0
21.831464,0.048386044585477156,0.0
21.83386,0.039298964761759356,0.0
21.83624,0.030072115311181338,0.0
21.838636,0.020565726606882908,0.0
21.841028,0.011059337902584477,0.0
21.843412,0.004346445877621005,0.0
21.845792,0.001925036250623523,0.0
21.848188,0.004299224049377853,0.0
21.850572,0.0073800016338451,0.0
21.852964,0.010460779218312347,0.0
21.85536,0.012470621616141063,0.0
21.857748,0.013549298454191458,0.0
21.86014,0.014627975292241854,0.0
21.862532,0.017848522503569317,0.0
21.86492,0.02200023527467509,0.0
21.8673,0.023358451366445907,0.0
21.869692,0.026718768204633574,0.0
21.87208,0.03315212097587662,0.0
21.874472,0.044660610426591904,0.0
21.876868,0.05602933025044697,0.0
21.879252,0.0653959493278852,0.0
21.881632,0.07476256840532342,0.0
21.884036,0.083709878602181,0.0
21.886424,0.09158625361240007,0.0
21.888804,0.09746052787620227,0.0
21.8912,0.10240363658022616,0.0
21.893584,0.10505736363270092,0.0
21.89598,0.10491759400584072,0.0
21.898376,0.10277572363256364,0.0
21.900764,0.0996949460480964,0.0
21.903144,0.0976851036502677,0.0
21.905548,0.09833672995632559,0.0
21.907936,0.10099045700880034,0.0
21.910316,0.09828950812808245,0.0
21.91272,0.0977304296206416,0.0
21.915104,0.10075624372545383,0.0
21.917484,0.10177995708384921,0.0
21.91988,0.09534660431260615,0.0
21.922264,0.08383811486189087,0.0
21.924644,0.07246939503803582,0.0
21.927048,0.06310277596059759,0.0
21.929436,0.05373615688315936,0.0
21.931812,0.044788846686301766,0.0
21.93422,0.03691247167608271,0.0
21.936604,0.031038197412280505,0.0
21.938984,0.026095088708256612,0.0
21.94138,0.022222915190871256,0.0
21.943768,0.020592901496791886,0.0
21.946148,0.02175638448204747,0.0
21.948544,0.022927609118714932,0.0
21.950932,0.022927609118714932,0.0
21.953312,0.021197305974606635,0.0
21.955708,0.01746490208408149,0.0
21.958096,0.016945303753471936,0.0
21.960492,0.013352669489806996,0.0
21.962896,0.009348467996973293,0.0
21.96528,0.005344266504139588,0.0
21.96766,0.0074466567005853634,0.0
21.970064,0.013693018016725055,0.0
21.972452,0.01886844414622621,0.0
21.974832,0.021901999902450307,0.0
21.977228,0.028288130845450208,0.0
21.979612,0.03588496660194885,0.0
21.981992,0.042690406425529376,0.0
21.984388,0.04763351512955326,0.0
21.986776,0.04763351512955326,0.0
21.989156,0.04763351512955326,0.0
21.991552,0.0463225208660256,0.0
21.99394,0.04422013066957982,0.0
21.99632,0.043048906032912365,0.0
21.998712,0.061615674330824294,0.0
22.0011,0.10187310218375027,0.0
22.003492,0.16042328843454062,0.012660105117657621
22.005888,0.2331694837917446,0.024581949815363487
22.008276,0.31913330086734065,0.036275789679032173
22.010656,0.4238939913685869,0.04736277193206378
22.01306,0.5543495429176809,0.057618147033586635
22.015448,0.7066827454768922,0.0673477581537492
22.017828,0.8698593819557415,0.07698374204906767
22.02022,1.0535178690339755,0.08631948405620891
22.022608,1.253606783390517,0.09568037474804382
22.025004,1.4675177239432653,0.10502727131574596
22.027396,1.7067514384915237,0.11404121443475738
22.02978,1.9640455940121697,0.122955334134293
22.032164,2.241030204199282,0.1317401370591507
22.034556,2.5451623351824986,0.14033418400655012
22.036944,2.8714988782577966,0.14876343360369623
22.039336,3.2235794000670546,0.1569200337530154
22.041732,3.593676932736197,0.1648570453464459
22.04412,3.9729935732045054,0.17262710522700325
22.0465,4.3324874145910295,0.18035554408792415
22.048896,4.666054077504229,0.1881279893525159
22.05128,4.9814205298181795,0.18327179611301592
22.053676,5.288969362317306,0.17906856948383096
22.05608,5.584698269366641,0.17502031685940264
22.058464,5.856409550890452,0.17158124734371805
22.060844,6.093813163902934,0.1690688228722913
22.06324,6.303612362919766,0.1671521442161003
22.065628,6.497585539136106,0.1653753351412581
22.068008,6.672939195872619,0.1638925128477296
22.070412,6.83442360458468,0.1623614514803421
22.0728,6.976079684861285,0.16087856153288396
22.07518,7.084357366328469,0.15988578544052592
22.077576,7.181929487645006,0.15896425213579374
22.07996,7.266421861012142,0.1581330047731612
22.082344,7.328197965607999,0.15748352748260666
22.084748,7.365814779193602,0.15699494455734928
22.087132,7.375825282925687,0.15680751824188566
22.089516,7.368190862850226,0.1568565168884365
22.09192,7.352920126841438,0.15705940071325925
22.094304,7.338533334564179,0.15728712905867775
22.096684,7.325357247100423,0.1574891470407756
22.099088,7.310366050345354,0.1576807663917952
22.101476,7.290671803963148,0.15797701771382988
22.10386,7.27390892802927,0.15833007573967361
22.106252,7.26529232885005,0.15864718761705995
22.10864,7.264357371574533,0.15888337463756252
22.11102,7.267286846164991,0.15905727105833417
22.113416,7.274592609300618,0.15917569878465537
22.115804,7.2798490498615855,0.1593691703525558
22.118184,7.286548512661532,0.15955740238211097
22.120588,7.298742421021529,0.15963054767646004
22.122976,7.31675753602354,0.1595288632701684
22.125356,7.326905913524616,0.1594531246254089
22.127752,7.333748937667158,0.15941150845664456
22.130136,7.3457596462877905,0.1593109490250827
22.13252,7.360004773080314,0.1591994587821769
22.134916,7.372806877633864,0.15909099076961022
22.137304,7.3864003781203325,0.15897596058033356
22.139684,7.408886225324003,0.1587521174124869
22.142088,7.4371441614835785,0.15851304352674844
22.144476,7.473223509173717,0.15818622572873842
22.146856,7.5139586846627475,0.15779469706600646
22.149252,7.553018520487324,0.15738383024189612
22.15164,7.593336282953643,0.15691741507218185
22.154024,7.633281958367625,0.1564427180574966
22.156428,7.676859748222102,0.1558905874639824
22.158812,7.718482659158406,0.15533153498179636
22.161192,7.756195812258363,0.15476627350400898
22.163588,7.8007538853587315,0.15406455500670654
22.165972,7.849316159951933,0.15331231490523703
22.168352,7.8950377160375576,0.15264098424317696
22.170748,7.94127112880238,0.15197864282405568
22.173136,7.9894594204853755,0.15132113015515603
22.175532,8.032852114742619,0.1507272633963013
22.177928,8.07116967232039,0.15022101328752324
22.180316,8.112140956950638,0.14969015385125706
22.182692,8.158559465312694,0.1490931505117883
22.185092,8.204373569196937,0.14846004559698026
22.187476,8.234125541139468,0.14801377606404073
22.18986,8.261178460059153,0.14753862645725208
22.192256,8.27999065856769,0.14716324686616147
22.19464,8.290701906291947,0.1468779479661398
22.197036,8.299970131777224,0.14659501860614185
22.199432,8.303791133530693,0.14637718320697088
22.20182,8.305749804164606,0.14618342962142608
22.2042,8.30365705147744,0.14608417884795433
22.206596,8.306312674387785,0.14595733066173966
22.208984,8.311342485096883,0.14581723215854683
22.211364,8.31292717282059,0.14570984498468711
22.21376,8.310507659051462,0.14565972046132372
22.216148,8.311021411588527,0.14557111829990566
22.21854,8.31297818636457,0.14548063351543067
22.220932,8.313771478155358,0.14537918398210725
22.22332,8.323411790692974,0.14512888128313556
22.225696,8.335892821738168,0.1448134466720032
22.2281,8.34385779461133,0.14454502072718703
22.230488,8.351822767484494,0.14427857634203778
22.232864,8.359508201103935,0.1440254500678747
22.23526,8.375202037709045,0.14366273181941347
22.237644,8.388194925433439,0.14336090086173384
22.24004,8.408497368009197,0.14298378565884634
22.242436,8.442627524354767,0.14246342142707075
22.24482,8.482065134805291,0.14189820343644316
22.247204,8.518849018203337,0.14135506720543195
22.249608,8.555772671228244,0.1408087648602146
22.251992,8.60019287055962,0.14015421962843905
22.254372,8.643170047652022,0.13950611665755627
22.256768,8.686985842505585,0.13882897782810516
22.259156,8.725773722507919,0.13818646496060605
22.261536,8.760325083591942,0.13757401921453113
22.26394,8.79115178243685,0.13700289701374915
22.266324,8.825191286841678,0.13639057618961842
22.268704,8.857228690500085,0.13580107309055392
22.271108,8.882980252665522,0.13530446518728143
22.273496,8.903516908524628,0.13487925044195892
22.275876,8.927079378488543,0.13444663057522876
22.278272,8.949291374012102,0.13404380999628465
22.28066,8.974576405468715,0.13360459317766588
22.283052,8.996928170619134,0.13320118907861106
22.285448,9.016486439090217,0.13282338943546224
22.287836,9.033763067561162,0.13248502706633408
22.290216,9.041448501180605,0.13225203978567499
22.292612,9.0433146240159,0.1320523932102147
22.295,9.0434581853585,0.13186309356445183
22.29738,9.042391041887598,0.13169478071459073
22.299784,9.03289618655045,0.13163886159853522
22.302172,9.023261561586441,0.13158857417337388
22.304552,9.0089238869953,0.1316136866080226
22.306948,8.99640132169547,0.13165398918549753
22.309332,8.986764800873592,0.13169477196015705
22.311716,8.980293863783386,0.1317238291675057
22.314112,8.968747790013708,0.13181353767591117
22.316496,8.959203816990449,0.13188027006437775
22.31888,8.949008217661131,0.13194418335234262
22.321272,8.944259842063621,0.13196145070542858
22.32366,8.939279149040635,0.13195793356810312
22.326056,8.931132872285978,0.13196588845261173
22.328452,8.916328666986011,0.1320403955057127
22.330836,8.900173987245687,0.13214167025486215
22.33322,8.889326761610308,0.1322024292197485
22.335616,8.877688140042014,0.132265768857184
22.338004,8.868191388846997,0.13229976386529582
22.340384,8.861301142876211,0.13234594762717178
22.342788,8.861161373249352,0.1323518433905641
22.345172,8.859391589928414,0.13239611787864772
22.347552,8.861765777727168,0.1323874074268009
22.349948,8.864559274406503,0.13236116574270415
22.352336,8.86563020959314,0.13234637827538537
22.354732,8.868703245526195,0.13230792620823645
22.357136,8.874197691086248,0.1322284533070691
22.359524,8.878808192914766,0.13212584786817377
22.361904,8.887842205116696,0.13195989954905885
22.364308,8.901532045117522,0.13175246476040808
22.366692,8.918387468850018,0.1315343929559098
22.369076,8.934451496649597,0.1313207675719979
22.371472,8.951446690008952,0.13110040358276093
22.37386,8.97295794154034,0.13084429071433304
22.37624,8.997774546430263,0.13057053115192482
22.378632,9.024313712812878,0.13028441291588008
22.38102,9.047687295463822,0.13000994922563236
22.3834,9.072039265502788,0.12969709523394932
22.385796,9.091595638116,0.12943091782555666
22.388184,9.112130398117234,0.12912583719123985
22.390564,9.130430739946574,0.12882413918431215
22.39296,9.157066245843549,0.12839396939456915
22.395344,9.181607103195487,0.1279616119261075
22.39774,9.202935154987511,0.12757106036747864
22.400136,9.228779264951564,0.12714386946190492
22.402524,9.255694310102257,0.12670511228505513
22.404904,9.281026563387114,0.12627472900815617
22.407308,9.304077176671834,0.12587829035459866
22.409696,9.320702178836722,0.12556401394522743
22.412076,9.332903670628196,0.12531110934024745
22.41448,9.344453536113612,0.12505593408569787
22.416868,9.353489444173412,0.12481352758482211
22.419248,9.3588006899941,0.12460246648344325
22.421644,9.363320539881869,0.1243946219174566
22.424032,9.3679801593965,0.12418131068512553
22.426412,9.376271893351628,0.12391323252927203
22.428808,9.383772231373836,0.12364668701783899
22.431196,9.389782325328824,0.12341062999067284
22.433576,9.401519182269343,0.12312345433053014
22.435972,9.411486255888924,0.12287752608963205
22.43836,9.422524264695141,0.12261946706050823
22.44074,9.423132460888695,0.12248017884570522
22.443148,9.425323448948083,0.12233731182629047
22.445532,9.431099329619727,0.12217066178232328
22.447916,9.441158951037924,0.12195513373438856
22.450312,9.451917420590423,0.12171461623040544
22.4527,9.462815659769777,0.12147006476636683
22.45508,9.477857870068831,0.12118279384396255
22.457476,9.496112885927797,0.12085745437211391
22.459864,9.51348395805523,0.12050838229775586
22.462244,9.529412007943687,0.12015806501445572
22.464652,9.543337957085726,0.11982573659779298
22.467036,9.561779964399795,0.11946455414347239
22.46942,9.578871497273507,0.11912726567456026
22.471816,9.597033965333857,0.11877861320883319
22.474204,9.610912692647654,0.11848044828975152
22.476584,9.625163507013788,0.11819568226022771
22.478976,9.638203616566424,0.11792829010120504
22.481364,9.65031256055928,0.1176692286157637
22.483744,9.661118251940021,0.11740221624672084
22.486136,9.670853008134122,0.11714810820370579
22.488524,9.684452196194197,0.11686013606449273
22.490916,9.696840679440776,0.11659039888014411
22.49332,9.704061478209264,0.11634528465000239
22.495708,9.701411542872528,0.11618948935555745
22.498088,9.694338097162376,0.1160871054935252
22.500492,9.68498301145209,0.11601383487310442
22.502876,9.670692558689192,0.11598414681276413
22.505256,9.659754681113064,0.11591303525110266
22.507652,9.64904912096242,0.11586129343374635
22.51004,9.636853316744554,0.11583700814859373
22.51242,9.632665915512355,0.11573903656995876
22.514824,9.625312930548484,0.11564622111585177
22.517212,9.620521124838472,0.11551458759223464
22.519592,9.613075592075981,0.11539684687870043
22.521988,9.606840764126991,0.11526219152185682
22.524376,9.605448755431997,0.1150609984630364
22.526756,9.604755594871301,0.11483370573694823
22.52916,9.603550577631413,0.11459764833880198
22.531544,9.605418596324576,0.11433258408033897
22.533928,9.607426384644599,0.114062621455574
22.536332,9.609573942591485,0.11378767310190693
22.538716,9.612001039792093,0.11350267186384265
22.541096,9.620946295911146,0.11317465464813012
22.543492,9.63603762389631,0.11278787219315697
22.54588,9.652060117441252,0.11239374701130994
22.54826,9.667151445426414,0.11200468857579636
22.550656,9.683173938971358,0.11160851340071701
22.55304,9.696775022889303,0.11124831686835368
22.555436,9.713868451620884,0.11084516143222725
22.557832,9.733523059606323,0.11040383139664071
22.560216,9.744377868673176,0.1100340593240755
22.5626,9.75374243367281,0.10969025716862962
22.564996,9.759894193112528,0.10938085608010407
22.56738,9.76977061479136,0.10904809244511693
22.56976,9.778715870910412,0.10872148253629928
22.572168,9.78295807740233,0.10845531175865732
22.574552,9.790505637252782,0.10818207746946057
22.576932,9.795492017849375,0.10794554472859207
22.579336,9.796986053632333,0.10775170933440975
22.581724,9.798480089415289,0.10755808708344117
22.584104,9.800113894825106,0.10735959587112448
22.5865,9.802818635421561,0.10715086223969872
22.588888,9.802729879338685,0.1069598362090383
22.591268,9.80063902250939,0.1067851168602432
22.593672,9.797896539374037,0.10660555166489585
22.596056,9.797295926611959,0.10640455865682298
22.59844,9.796695313849877,0.10620329226536958
22.600836,9.791019564408328,0.1060445588056438
22.603224,9.78385357089956,0.10591169972924198
22.605608,9.779992930749323,0.10577218762101298
22.608,9.78092788802484,0.10560009026186426
22.610388,9.784656341979689,0.10541151929570178
22.612772,9.788384795934538,0.10522273185414235
22.615168,9.789040213956335,0.10506055224896503
22.617556,9.789416092724409,0.10490813573141168
22.619936,9.789791971492486,0.10475542471616452
22.622332,9.78537225283481,0.10463497861389594
22.62472,9.78244277824435,0.10448882629311666
22.627104,9.781655174027168,0.10432156570793609
22.629508,9.783661066489323,0.104138788058873
22.631892,9.781662757458644,0.10398695228276379
22.634276,9.77510116842769,0.10388648447712574
22.63668,9.769330975329654,0.10378561770643208
22.639064,9.765283343724311,0.10367900492210916
22.641444,9.76789364066428,0.10353080891741333
22.64384,9.77036416797739,0.10338773740474033
22.646228,9.775628191969835,0.10322933675914156
22.648608,9.783173855962417,0.10304447291936902
22.651012,9.787926023275663,0.10287529403895852
22.6534,9.78802236279002,0.10273288676160297
22.65578,9.789049867864154,0.10258586852119904
22.658184,9.79063645144573,0.10241965504441965
22.660568,9.791943495773582,0.10226300934312833
22.662952,9.795532180101572,0.10208163035580933
22.665348,9.800983195549122,0.10189021392964608
22.667732,9.809926555810307,0.10165971228676948
22.670112,9.821942952004548,0.10140440833732305
22.672516,9.836333535997541,0.10114958735569703
22.6749,9.855519717416287,0.10086742957411002
22.677284,9.86991030140928,0.10061552770814339
22.679688,9.891098583574443,0.10031998719554579
22.682072,9.917501772045936,0.09998025958221238
22.684456,9.94511566533093,0.0996284433706693
22.686852,9.973940263429421,0.09926472010699086
22.68924,9.995827393728884,0.09895071348129453
22.691624,10.01999616402849,0.09861492099701216
22.69402,10.041650976902476,0.09828488840262714
22.696404,10.069312092015714,0.0979150657905682
22.698784,10.101117178248646,0.09751375546117988
22.701184,10.130268537429101,0.09711987569503458
22.703568,10.155275925489864,0.09675899530415365
22.705952,10.180795170229821,0.09641025283729493
22.708348,10.207804659036999,0.09603841636233172
22.710736,10.232392738217182,0.09569503371344035
22.713132,10.256468960718164,0.09534322256446366
22.715528,10.27933447840565,0.09500765879607032
22.717912,10.300058125719858,0.09469070538573418
22.720292,10.321061312287787,0.0943665269944027
22.722688,10.335406570310408,0.09407847474551563
22.725076,10.351474389825723,0.09378623912144084
22.727456,10.365819647848344,0.0934998564063456
22.729856,10.378721883631988,0.09320934413937736
22.73224,10.387200609042218,0.09295841632256437
22.734636,10.39339769445231,0.09273016723869851
22.73704,10.402528046168596,0.09248511893546317
22.739428,10.409097218631025,0.0922717022802672
22.741808,10.418040578892208,0.09206039780292839
22.744212,10.423631363966617,0.09188039992447897
22.7466,10.427871674600668,0.09171851181552179
22.74898,10.437279669712808,0.09154655768807018
22.751376,10.448969304825082,0.09135316272451581
22.753764,10.454932176951827,0.0911873951134398
22.756144,10.460615509824853,0.09103089371822282
22.75854,10.469651417884656,0.09084530229645714
22.760928,10.481341052996934,0.09065384599310623
22.763308,10.49181998329571,0.09047556267036025
22.765704,10.505371949527545,0.09027765014438209
22.768092,10.514128318333624,0.090102980591516
22.770472,10.523815852699483,0.08992427176220366
22.772868,10.535785027065478,0.0897255923959783
22.775256,10.546263957364255,0.08954879792470176
22.77764,10.558046140275147,0.08938317270994531
22.780036,10.573460437626538,0.08918034802841499
22.782424,10.589805900537705,0.08897433433361723
22.784808,10.606291133075732,0.08876487870930842
22.787204,10.619982868934423,0.08856546127358748
22.789592,10.632091812927284,0.08836515405459697
22.791972,10.643409360987222,0.08816444815976866
22.794372,10.653283886808183,0.08795801482151631
22.796756,10.664648656696365,0.0877320563526156
22.799136,10.678946692890742,0.08749273730450823
22.80154,10.699902657630426,0.08722518956477512
22.803928,10.72407142793003,0.0869363216467725
22.806308,10.744096227109935,0.08667444230754442
22.808712,10.759185659237229,0.08643852403771686
22.8111,10.773763234685328,0.08619324196654952
22.81348,10.787549414200509,0.08594834419756162
22.815876,10.80613119114144,0.0856831060080494
22.818264,10.826994608082506,0.08539938253473353
