Time,Force,Position
20.166096,0.13407955727550533,0.0
20.168492,0.1254648539541539,0.0
20.170888,0.11484804988638568,0.0
20.173276,0.10409147619175724,0.0
20.175656,0.0903297065782179,0.0
20.178052,0.08609129180203769,0.0
20.18044,0.07864007146594187,0.0
20.18282,0.07253932557020502,0.0
20.185224,0.07193302523452101,0.0
20.187612,0.07719325751122735,0.0
20.189992,0.08927779160244417,0.0
20.192392,0.1008238653721215,0.0
20.194776,0.11292901764923965,0.0
20.19716,0.1263846443667168,0.0
20.199556,0.12903837141919153,0.0
20.201944,0.13220395515086397,0.0
20.204324,0.13108579813598228,0.0
20.206724,0.13103857630773913,0.0
20.209112,0.13248159854671515,0.0
20.211492,0.1352750952260501,0.0
20.213888,0.13662556966640904,0.0
20.216276,0.14239955448018232,0.0
20.21866,0.14845307854767606,0.0
20.221056,0.1555775378018083,0.0
20.223444,0.16342555297471414,0.0
20.225824,0.16482324924331626,0.0
20.22822,0.16850258551205563,0.0
20.230608,0.1726937784599927,0.0
20.232992,0.1755344969675708,0.0
20.235388,0.17465055323603568,0.0
20.237776,0.16333679689183558,0.0
20.240172,0.15004155798712002,0.0
20.242568,0.13753771501532258,0.0
20.24496,0.12303177129710827,0.0
20.24734,0.11530290756516129,0.0
20.249736,0.11092661901999012,0.0
20.252124,0.1080405745420381,0.0
20.254508,0.10264057263847154,0.0
20.256904,0.09961475853365932,0.0
20.259292,0.09537823961534833,0.0
20.261672,0.09514592218987107,0.0
20.264072,0.08783636733850468,0.0
20.26646,0.08103866916633602,0.0
20.268844,0.07305088436656997,0.0
20.271236,0.06520286919366414,0.0
20.273624,0.05921718514031495,0.0
20.276004,0.05309173146010555,0.0
20.2784,0.04617488184697802,0.0
20.280784,0.03832686667407218,0.0
20.283164,0.03127024743408446,0.0
20.285572,0.030499469687067703,0.0
20.287956,0.030499469687067703,0.0
20.29034,0.030499469687067703,0.0
20.292736,0.030499469687067703,0.0
20.29512,0.02958892231319074,0.0
20.297504,0.025605339006258394,0.0
20.2999,0.02134221644560563,0.0
20.302288,0.01866188575078908,0.0
20.304684,0.013327828003497785,0.0
20.307076,0.009064705442845017,0.0
20.309464,0.00265971250891519,0.0
20.311844,0.0011900866275973846,0.0
20.314248,0.0,0.0
20.316632,0.0,0.0
20.319012,0.0,0.0
20.321416,0.0,0.0
20.323804,0.001841712933655285,0.0
20.326184,0.005033900307669521,0.0
20.32858,0.011159353987878927,0.0
20.330964,0.015422476548531693,0.0
20.333344,0.017683498362767607,0.0
20.33574,0.021155224990502264,0.0
20.338124,0.023695786058458602,0.0
20.34052,0.025165411939776405,0.0
20.342916,0.029428534500429173,0.0
20.345304,0.03569375780749879,0.0
20.347684,0.045823412980541905,0.0
20.350088,0.05809493852686208,0.0
20.352472,0.06943529851340392,0.0
20.354852,0.08049611924622535,0.0
20.357256,0.09062577441926846,0.0
20.35964,0.09889309847275495,0.0
20.36202,0.11009368883243659,0.0
20.364424,0.12529848068495192,0.0
20.366812,0.1366388406714938,0.0
20.369192,0.14998130140445248,0.0
20.371588,0.16269275401725464,0.0
20.373976,0.17284302737619908,0.0
20.376356,0.17712676812275321,0.0
20.378752,0.1852749407352808,0.0
20.38114,0.19463381816130718,0.0
20.38352,0.20250245152011437,0.0
20.385916,0.20930014969228303,0.0
20.388304,0.21917088379750707,0.0
20.390688,0.2241062508501191,0.0
20.393084,0.2291813875295913,0.0
20.395468,0.23053186196995026,0.0
20.397868,0.22960069641017197,0.0
20.40026,0.23039209234309005,0.0
20.402648,0.23360489790300562,0.0
20.405028,0.23760909939583935,0.0
20.407432,0.2436154016350899,0.0
20.409816,0.24254446644845135,0.0
20.4122,0.2346758330896442,0.0
20.414596,0.2313232579028684,0.0
20.41698,0.22210415010370227,0.0
20.41936,0.2089733886103195,0.0
20.42176,0.1956309278773608,0.0
20.424148,0.18522173345059728,0.0
20.426528,0.17281043827741688,0.0
20.428924,0.16283578122636033,0.0
20.431308,0.1623540836545826,0.0
20.433704,0.18528560713051534,0.0
20.4361,0.22553150161629099,0.013356075806178641
20.438488,0.2839776067013139,0.02547046902398898
20.440868,0.35154458421327817,0.037389516610590395
20.443264,0.43484314086924913,0.04885713945781685
20.445652,0.5398323570802341,0.05968117311513218
20.448032,0.6669315417268139,0.06994132885441466
20.450428,0.8100418447711206,0.07994398227317831
20.452816,0.9707007321086168,0.08968035358716589
20.455208,1.1469986507915026,0.09931320702962405
20.457608,1.3434516589918093,0.10889980516414366
20.459992,1.565739297866824,0.11825463763584429
20.462376,1.8080422566323995,0.1274596695247597
20.46478,2.0677540300643042,0.13664836720936033
20.467168,2.3401262425650295,0.1459035803097824
20.469548,2.6321210697180764,0.15503237000283826
20.471944,2.941664481164313,0.16405030002439575
20.474332,3.2771388627996147,0.17268447962367373
20.476716,3.625447342321583,0.18107816056100712
20.479112,3.968593824939068,0.18935126201570762
20.481496,4.284789415724835,0.19767670521093555
20.48388,4.5793868947542045,0.19270285116847238
20.486276,4.865328136207587,0.18888586779043098
20.48866,5.146245254525479,0.1851733076447191
20.491044,5.408824288475134,0.18190079137656603
20.49344,5.640727768353954,0.1793768088325459
20.495828,5.846284760878868,0.17746382116898302
20.498208,6.035783413177813,0.17580187279602125
20.500604,6.208757194541963,0.1744322417707041
20.502992,6.36809404530714,0.17311791050980793
20.505388,6.512118625808889,0.17180888585939016
20.507784,6.627235539702878,0.17084353757630577
20.510172,6.721638285572002,0.17007031758322852
20.512552,6.813343874276148,0.16918108504348495
20.514948,6.907195125069311,0.1680310263793718
20.517336,6.982241760785413,0.16696667223860612
20.519716,7.036993537357233,0.16601662083846022
20.522116,7.061530602993432,0.165540493646323
20.5245,7.070609941165738,0.16536041062033124
20.52688,7.0775001871365255,0.1652708970626509
20.52928,7.092398836092977,0.1650278621307798
20.531664,7.1120477565048095,0.1646282345130595
20.534044,7.121221538333602,0.16437199552789528
20.536444,7.1319781120282295,0.1641096376781836
20.538832,7.149810027290878,0.16382866909183344
20.541228,7.18105034744276,0.16335894242305707
20.543624,7.210288566848225,0.16291574854678473
20.546012,7.23393979289502,0.16255849218893864
20.548392,7.262386616367567,0.16212347668484342
20.550788,7.289575513198374,0.16176164817963387
20.553176,7.318207432268157,0.16139859537031678
20.555556,7.352613336151712,0.16089263397562448
20.557952,7.385902978878256,0.1603341932440998
20.56034,7.406063755969285,0.15995767146803716
20.56272,7.416633338208809,0.15974954504694971
20.56512,7.431392217538401,0.159535858437012
20.567504,7.452529486159583,0.15923552843364702
20.569888,7.47757840847498,0.1588289814503179
20.572284,7.509704568216267,0.1582990948751818
20.574672,7.549372600234397,0.1577057395958523
20.577052,7.589597814902102,0.15719995808591689
20.579452,7.62800602442062,0.15679575514328245
20.581836,7.672560305805251,0.156283855797616
20.584236,7.707802931592099,0.15590798581136223
20.586632,7.742533700699747,0.15553038045126502
20.58902,7.774283981672958,0.1552401846832175
20.591404,7.81818663675153,0.15475471689284415
20.5938,7.867630959218398,0.15412634375608805
20.596184,7.912606445341478,0.15352574029253035
20.598568,7.962936607397749,0.1528377297483181
20.600964,8.01829468430525,0.15212094459940728
20.603352,8.07374530901137,0.15143515733135737
20.605732,8.128357315956325,0.150786459891534
20.608132,8.189627251446591,0.15004920614567988
20.610516,8.250617647683137,0.14933212541234578
20.6129,8.314261770972156,0.14860352826713508
20.615296,8.372923305380322,0.14798630435195295
20.617684,8.42995482609441,0.1474112684501872
20.620064,8.47930470490479,0.14691191633446044
20.622464,8.521392250692049,0.14647364853503442
20.624852,8.56324747905383,0.14601917357875477
20.627232,8.605010159616995,0.14553868175763424
20.629628,8.637461184582376,0.14516468758850817
20.632016,8.667026165069805,0.14479013361143925
20.634412,8.691842769959724,0.14444509197063676
20.636808,8.718708697424306,0.1440411096912031
20.639196,8.738589935261615,0.14377111176083898
20.64158,8.759494886457318,0.1435221613672338
20.643976,8.775464470600406,0.14333727878504815
20.646364,8.784543808772712,0.1432125578752332
20.648744,8.783659865041178,0.14318935243795017
20.651144,8.787990827615976,0.1430907715402435
20.653532,8.799958106124103,0.142873489865482
20.655908,8.807736087542162,0.14265648972031514
20.658312,8.814630125228687,0.14241765026541683
20.6607,8.817706952877481,0.14219385219759584
20.66308,8.824555664593632,0.14189958627644014
20.66548,8.834896721123418,0.1415464214220246
20.667864,8.847239878399623,0.14116772935519362
20.670244,8.855998143063573,0.14082193821579955
20.67264,8.86024034955549,0.14051830065517962
20.675028,8.86271277272647,0.1402599637653937
20.677412,8.87421731224151,0.13991675459060407
20.679808,8.891169075488362,0.13952014829636578
20.682192,8.912125040228048,0.13907545157717946
20.684576,8.930007969034678,0.13867446847902676
20.68698,8.94737904116211,0.13826417372016206
20.689364,8.955950314370957,0.1379561103369995
20.691748,8.968665558699497,0.13759020260934074
20.694144,8.98086894634884,0.1372151593780283
20.696532,8.995633513252042,0.13678902559528275
20.698912,9.003181073102493,0.1364623530404277
20.701308,9.00388371295253,0.13624851793934128
20.703696,9.002537030227911,0.1360918469326373
20.706092,8.996534519704399,0.13598197624653577
20.708488,8.982244066941501,0.13598416656527743
20.710876,8.962179629364826,0.13608265889329807
20.713256,8.945420545146685,0.13615905920656896
20.715652,8.928381921674823,0.13624696350737217
20.71804,8.91227446376274,0.13632556146419886
20.72042,8.89989166808977,0.13636660356312905
20.722824,8.890581908349859,0.13636767791289595
20.725212,8.881831227117386,0.13634411405576255
20.727592,8.871777293272798,0.13631471934317776
20.729988,8.853342869390202,0.136367177918905
20.732376,8.831695639947693,0.13646569737697015
20.73476,8.815635403863853,0.13650807080915367
20.737156,8.810237297818155,0.13643268192665212
20.739544,8.804839191772459,0.1363571488262935
20.741928,8.797019676099765,0.13632341021965322
20.744324,8.791155039345243,0.13629793281645516
20.746712,8.786081798523641,0.13626949299410024
20.749096,8.779565535463062,0.13624160615619185
20.751492,8.7757502212832,0.13615902827203383
20.75388,8.77165536784962,0.1360881574345558
20.756264,8.771704485535732,0.1359605763529033
20.758668,8.779250149528314,0.13572365101017386
20.761056,8.779626028296393,0.13555102907666836
20.763436,8.778838424079213,0.13536653809193208
20.765832,8.776048719115613,0.1352064533977984
20.76822,8.768323647099406,0.13510588517989064
20.770604,8.762740445456474,0.13497453470436002
20.773,8.754363747134207,0.13487093341220108
20.775388,8.746638675118,0.13476988546685395
20.777768,8.744872683512797,0.13462816220475596
20.780168,8.748973224519986,0.13441884933652315
20.782556,8.747626541795364,0.13425958534639695
20.78494,8.741251944219517,0.1341311099094475
20.787336,8.732363389218053,0.1340172266539682
20.789724,8.731343467575394,0.13381354195971973
20.792104,8.727809588507125,0.13362491394198803
20.7945,8.729118528692847,0.13335352744463883
20.796888,8.734850979251984,0.13301669920707365
20.799268,8.737091084997488,0.13273568447414305
20.801668,8.74533749298224,0.13238326415591592
20.804056,8.760241829512301,0.13196508844134733
20.806436,8.77049033824347,0.131593097687999
20.80884,8.784603278840613,0.13118042009009054
20.811228,8.798808767236373,0.1307938628781224
20.813608,8.812315407497831,0.13043371583723354
20.816008,8.830897184438761,0.13001118958909907
20.818396,8.842169406528328,0.12965384474240405
20.82078,8.849297657498198,0.12934837296380344
20.823176,8.852281937348375,0.129095039530741
20.825564,8.856476922012051,0.12882197643507626
20.827944,8.856155848503695,0.12858714467332175
20.830344,8.856905710181977,0.12833756060171758
20.832732,8.854675083725823,0.1281525325060032
20.835112,8.855330501747618,0.1279681957523166
20.837512,8.850631243836222,0.12785783947256896
20.8399,8.846723381857744,0.12774468799802965
20.84228,8.83918340543877,0.12769317165479802
20.84468,8.830944580885495,0.12767090768327785
20.847064,8.82722181450425,0.1276120199562597
20.849448,8.821869034428929,0.12759107170739706
20.851844,8.810929260994936,0.1276198857858576
20.854236,8.800780883493857,0.12764598986250425
20.856616,8.793146463418397,0.12765813043178387
20.859016,8.787514144089354,0.12764806154326583
20.861404,8.78858697513386,0.1275425421027054
20.863784,8.788077014312533,0.12744201549181364
20.86618,8.790872406849736,0.12732600923033602
20.868572,8.800046188678527,0.12715871203128745
20.870952,8.815877899052632,0.1269283383008164
20.873348,8.827425868680178,0.12675384606529166
20.87574,8.842418961293117,0.1265586143519951
20.87812,8.856573436144894,0.12639824332692517
20.880516,8.878596544355478,0.12615600013628955
20.882904,8.902109896633286,0.12588430778756216
20.885288,8.929906989657644,0.12555887769589963
20.887684,8.95877501786864,0.12522050941017712
20.890072,8.990716082012693,0.12484914899001583
20.892456,9.023728081343384,0.12446697090421176
20.894852,9.056228223994877,0.12407839694190168
20.89724,9.091149776273369,0.12365499224188527
20.89962,9.127654120417695,0.12322799054333115
20.90202,9.165601486801,0.12280427566864434
20.904408,9.196751155012134,0.12244668969667845
20.906792,9.230042693596543,0.12206628067294374
20.909192,9.261843988113737,0.12172026310492003
20.911576,9.296019470429684,0.12137169042423816
20.91396,9.33727219017152,0.1209558852047664
20.916356,9.375079786927962,0.1205600761146692
20.918744,9.413446462191844,0.1201483931641022
20.921124,9.456516187082862,0.11967153331309986
20.923524,9.500144990481322,0.11917762496676675
20.925912,9.543960785334884,0.11864761707569894
20.928292,9.582748665337217,0.1181429953634626
20.930688,9.621676314966413,0.11763817013035373
20.933076,9.65753092866255,0.11716751812293043
20.93546,9.69459624717219,0.1166828747979898
20.937856,9.728076673069571,0.1162222469369444
20.940244,9.7596947678474,0.11577705600450602
20.942628,9.791964488931285,0.11533857114470594
20.945024,9.823023505201672,0.11492086051779306
20.947412,9.853570664792862,0.11449539638841903
20.949796,9.882814571771936,0.11406378522266966
20.952192,9.914991745057202,0.11360633616538406
20.95458,9.94223355128986,0.11319238588785682
20.956964,9.969475357522516,0.11278109798684341
20.95936,9.99299250151606,0.1123962663762553
20.961752,10.002774479538406,0.11212421364686208
20.964132,10.01148552237411,0.11186277182223729
20.966536,10.015493515582682,0.11166234344185874
20.968924,10.017219868791116,0.11149003826410726
20.971304,10.015733416439634,0.11135137647827038
20.9737,10.014479281513632,0.11123175258560598
20.976084,10.011455363266688,0.1111481699164171
20.978468,10.006941200952529,0.11109083802836546
20.980864,10.001495873078587,0.11103945882215821
20.983248,9.992325882965535,0.11101186005716161
20.985632,9.978732382479064,0.11103378237627175
20.988028,9.96299701161932,0.11107798100715925
20.990416,9.942605812960684,0.111152412973334
20.992808,9.917419016876295,0.11126230349503421
20.995204,9.890881746351548,0.1113932770572819
20.997592,9.86499610213286,0.11152742840186372
20.999972,9.840972789033726,0.11164872510938714
21.002368,9.822676238920122,0.1117283633893069
21.004756,9.801586192127186,0.11182538853309748
21.00714,9.778214505334107,0.1119504865326736
21.009536,9.759638415966785,0.11204256564204122
21.01192,9.74772025514477,0.11208642265354994
21.0143,9.736081633576477,0.11212048095866702
21.016708,9.726956969433797,0.1121461698051009
21.019096,9.71676137010448,0.11218317365847257
21.021476,9.70791624521552,0.11219868451105516
21.02388,9.704146257006032,0.11216889841850607
21.026268,9.700655808050266,0.11212900033528396
21.028648,9.69730512872136,0.11208397923013266
21.031044,9.697259802750988,0.1120302544791362
21.033436,9.708295915699335,0.11188108239629287
21.035816,9.722684603834459,0.11169406924714864
21.038212,9.741077493462418,0.11147311846230731
21.0406,9.761752023090514,0.11122413889576642
21.04298,9.785779127905384,0.11093807269012543
21.045376,9.809434145667916,0.11063912029590256
21.047764,9.829783810071918,0.11034930962180434
21.050148,9.844826020370972,0.110085913488353
21.052544,9.860427309177464,0.10980246067931754
21.054928,9.887157258730923,0.10939972644783054
21.057312,9.922594459404351,0.10891125226156348
21.059708,9.95300374522655,0.10844089753960247
21.062096,9.986393519183185,0.10792197827190424
21.064492,10.01689724866187,0.10739823695076897
21.066888,10.053035193327466,0.10681551730590154
21.069276,10.087590346127227,0.10623584130058264
21.071656,10.122052951128369,0.10563848042297452
21.07406,10.154141368330759,0.10504335941570528
21.076448,10.188651195160146,0.10442046372440496
21.078828,10.222277078258,0.10377752697079679
21.081224,10.245799909825148,0.10318868279595333
21.083612,10.270533446205798,0.10258920292586556
21.085992,10.293544421093749,0.10199628362730341
21.088388,10.31683493523542,0.10139409176780326
21.090776,10.33682009601856,0.10079935168069233
21.093156,10.354803156055281,0.10021932077991558
21.09556,10.372786216092003,0.09963813446942543
21.097948,10.38797577944939,0.09906853048248623
21.100328,10.40116324206036,0.09851235713187784
21.102724,10.402849956872027,0.09805450444684762
21.105112,10.395317563884529,0.09766886585224402
21.107496,10.38643469645667,0.09730116535807154
21.109892,10.376061584961594,0.0969571472563516
21.11228,10.36340683346638,0.09663522678388518
21.11466,10.345537175664832,0.09635457689392982
21.117064,10.328179374542486,0.09608296174288002
21.119452,10.304256192673444,0.09586994554003753
21.121832,10.278982536364046,0.09567440527048424
21.124228,10.25114770080079,0.09551043302012546
21.126616,10.22275378673009,0.09536404337842497
21.129,10.201529657883901,0.0951912509938256
21.131396,10.17774434978385,0.09504987446735125
21.133784,10.157683703922915,0.09489085639923976
21.136164,10.140276785114455,0.0947232905152245
21.13856,10.12468497559731,0.09457491265508532
21.140948,10.111467353878917,0.09442752595145805
21.143332,10.101694855145919,0.09427255851635558
21.145728,10.098952372010565,0.0940980653343092
21.148116,10.100586177420384,0.09391215220723095
21.150496,10.108877911375508,0.0936930160694528
21.152896,10.116610566823194,0.09349106842288697
21.15528,10.125926014136716,0.09328993076763764
21.157664,10.133890987009877,0.09310687188868287
21.16006,10.145301082868434,0.09291649280715789
21.162448,10.159364905779464,0.09271864165689096
21.164832,10.17543082943691,0.09250901209207368
21.167224,10.197223516079887,0.09227025089588083
21.169612,10.22753646238773,0.0919923446874011
21.172008,10.261062214255487,0.09168996377189334
21.174404,10.293237491682886,0.09140548528644935
21.176792,10.32355043799073,0.09113146055501131
21.179172,10.353071988365654,0.0908569434902043
21.181568,10.377518402061108,0.09061666867459015
21.183956,10.397820844636865,0.09040612660244922
21.186336,10.419613531279841,0.09017495439416483
21.18874,10.443827627549819,0.08992017809900169
21.191128,10.466319162327096,0.08966969518848884
21.193508,10.488298840425177,0.0894116846092755
21.195904,10.508276417776838,0.08916639117652474
21.198292,10.522107923262391,0.08896086122337692
21.200672,10.54529830617397,0.08869320491682448
21.203068,10.571561725018608,0.08840753753196348
21.205456,10.599827244609658,0.0881108143807094
21.20784,10.627441137894655,0.08780982088237688
21.210236,10.651842225619733,0.08753237944024134
21.212624,10.676243313344811,0.08725705202200418
21.21502,10.695709034017275,0.08700776513733377
21.217416,10.706374955771157,0.08680362303437864
21.219804,10.711825971218705,0.08663404611102382
21.222184,10.721560727412808,0.0864340690934934
21.22458,10.729153613233633,0.0862497668026571
21.226968,10.737677664614237,0.08606213580784121
21.229352,10.749134982301037,0.08586008673389518
21.231752,10.758310659987698,0.08567655331150398
21.23414,10.765204697674221,0.08551346536503895
21.23652,10.765533354614053,0.08540100061889735
21.238924,10.767444803419721,0.08529081266882893
21.241312,10.767074612225253,0.0852004519335329
21.243692,10.76977745696384,0.08509201145624973
21.246092,10.778626373568539,0.08494696653750444
