Time,Force,Position
21.520528,0.048117920812746934,0.0
21.522932,0.05775633749249372,0.0
21.52532,0.0676742934259609,0.0
21.5277,0.07654015712966256,0.0
21.5301,0.0844560123167129,0.0
21.532488,0.09145954490085789,0.0
21.534868,0.09860284711186311,0.0
21.537264,0.1014624085763142,0.0
21.539652,0.10337196152411399,0.0
21.542032,0.10422942224214822,0.0
21.544428,0.10422942224214822,0.0
21.546816,0.107600840385797,0.0
21.5492,0.11032063222338787,0.0
21.551604,0.11290065443411854,0.0
21.553988,0.11308764588922189,0.0
21.556368,0.11285532846374462,0.0
21.558764,0.10875857917229385,0.0
21.561148,0.10410275137340226,0.0
21.563544,0.09786413170867443,0.0
21.565948,0.08948364167066956,0.0
21.568332,0.08103708684754855,0.0
21.570712,0.07144589199604492,0.0
21.573116,0.061854697144541296,0.0
21.575504,0.05519676859923285,0.0
21.577884,0.051332336733259355,0.0
21.58028,0.04853884005392439,0.0
21.582664,0.046396969680647326,0.0
21.585048,0.05002908412114355,0.0
21.587444,0.05845679598739158,0.0
21.589828,0.06823498229399856,0.0
21.592208,0.08552855786394825,0.0
21.594612,0.09493465711821775,0.0
21.597,0.10485261305168493,0.0
21.59938,0.11118567637289908,0.0
21.601776,0.11644780450747468,0.0
21.60416,0.1189164359627153,0.0
21.60654,0.12403879447043067,0.0
21.608936,0.12450532517925446,0.0
21.611324,0.12734604368683258,0.0
21.61372,0.13018676219441067,0.0
21.616116,0.13388494142002302,0.0
21.6185,0.13923961735321572,0.0
21.620884,0.14366312772663006,0.0
21.62328,0.14780709884632398,0.0
21.625668,0.14408243660721068,0.0
21.628052,0.14194056623393358,0.0
21.630448,0.13728473843504196,0.0
21.632832,0.13379239362140596,0.0
21.635216,0.12343628585048519,0.0
21.637612,0.11280063882584396,0.0
21.64,0.09550706325589428,0.0
21.64238,0.08272954585797601,0.0
21.64478,0.07009179808691793,0.0
21.647168,0.06352641734022653,0.0
21.649548,0.05724057584725556,0.0
21.651952,0.05018982143486741,0.0
21.65434,0.04590608068831328,0.0
21.65672,0.04348467106131581,0.0
21.659116,0.045347002180872446,0.0
21.661504,0.047488872554149505,0.0
21.663884,0.05056190848720489,0.0
21.66628,0.049118886248228875,0.0
21.668668,0.04525445438225538,0.0
21.671064,0.03966746102358547,0.0
21.67346,0.0448823673299179,0.0
21.675848,0.04544144583735874,0.0
21.678228,0.04837471214355392,0.0
21.680628,0.04586075471793937,0.0
21.683012,0.04586075471793938,0.0
21.685392,0.04586075471793938,0.0
21.6878,0.04586075471793938,0.0
21.690184,0.04586075471793938,0.0
21.692568,0.04586075471793938,0.0
21.694964,0.04351304993268598,0.0
21.697352,0.04181697145349048,0.0
21.699732,0.04183581441036346,0.0
21.702136,0.039208570371389646,0.0
21.704524,0.037652261519054354,0.0
21.706908,0.031020815987246837,0.0
21.709304,0.025180766388357426,0.0
21.711692,0.018409551229689698,0.0
21.714076,0.014431832750356928,0.0
21.71648,0.012735754271161432,0.0
21.718864,0.011970841351744255,0.0
21.721244,0.006410331006575265,0.0
21.72364,0.0039416995513346315,0.0
21.726028,0.00282354253645295,0.0
21.728404,0.0074321485071014,0.0
21.730808,0.01480776814358388,0.0
21.733196,0.02246292703378678,0.0
21.735576,0.03132879073748842,0.0
21.737972,0.04112582000096838,0.0
21.74036,0.045707942958115894,0.0
21.74274,0.05136100110190194,0.0
21.745136,0.05622266331276988,0.0
21.747524,0.06092571293990463,0.0
21.749904,0.06764970627032921,0.0
21.7523,0.07423392997389357,0.0
21.754684,0.0797472184908194,0.0
21.757064,0.08619167256752358,0.0
21.75946,0.09356729220400606,0.0
21.761848,0.10001174628071022,0.0
21.764244,0.10552503479763604,0.0
21.76664,0.1110383233145619,0.0
21.769024,0.11347857589843235,0.0
21.771408,0.11576021589856962,0.0
21.773804,0.11524835921937195,0.0
21.776192,0.11015437958302675,0.0
21.778584,0.10277875994654426,0.0
21.780988,0.0966326880804335,0.0
21.783376,0.09113824252038064,0.0
21.785756,0.08219867397493491,0.0
21.78816,0.08247821322865533,0.0
21.790548,0.08210612617631784,0.0
21.792928,0.08345660061667678,0.0
21.795324,0.08122218244478267,0.0
21.797708,0.0769856635264717,0.0
21.800088,0.07288891423502093,0.0
21.802484,0.07172543124976534,0.0
21.804872,0.06883938677181332,0.0
21.807252,0.06302007598766612,0.0
21.809648,0.05813193076329727,0.0
21.812036,0.054314720725566916,0.0
21.814416,0.052499611434253426,0.0
21.816812,0.0536177684491351,0.0
21.8192,0.05394452953109868,0.0
21.821584,0.0570647872923972,0.0
21.82398,0.061973671331508294,0.0
21.826368,0.06394928906442421,0.0
21.828748,0.06413628051952758,0.0
21.831152,0.06076486237587879,0.0
21.83354,0.05990740165784456,0.0
21.83592,0.055045739446976626,0.0
21.838316,0.04976476835552806,0.0
21.840704,0.043552631704301174,0.0
21.843084,0.04196983983846495,0.0
21.84548,0.040387047972628744,0.0
21.847868,0.04108589610692979,0.0
21.850252,0.03806008200211755,0.0
21.852648,0.03461495901672469,0.0
21.855036,0.03624497271080406,0.0
21.857416,0.038945921591521965,0.0
21.859816,0.04029639603188091,0.0
21.8622,0.037642668979406164,0.0
21.864596,0.034197545994013305,0.0
21.866996,0.03143053232817928,0.0
21.86938,0.026661417915928395,0.0
21.871764,0.021752533876817307,0.0
21.87416,0.01977691614390139,0.0
21.876548,0.01808083766470589,0.0
21.878928,0.01808083766470589,0.0
21.881332,0.02042854244995929,0.0
21.88372,0.021705312048574153,0.0
21.8861,0.0220509160874107,0.0
21.8885,0.0220509160874107,0.0
21.890884,0.021146233541133312,0.0
21.893268,0.02044738540683226,0.0
21.895664,0.017261062860417606,0.0
21.898052,0.015937071433559588,0.0
21.900432,0.015823784820200314,0.0
21.902828,0.014006779671017579,0.0
21.905216,0.010047904148557786,0.0
21.907596,0.007001351229003336,0.0
21.909992,0.00595689905586574,0.0
21.91238,0.0058436124425064635,0.0
21.914764,0.0058436124425064635,0.0
21.91716,0.0058436124425064635,0.0
21.919544,0.005843612442506465,0.0
21.92194,0.005843612442506465,0.0
21.924336,0.005843612442506465,0.0
21.926724,0.005843612442506465,0.0
21.929108,0.0034959076572530674,0.0
21.931504,0.002219138058638201,0.0
21.933892,0.0018735340198016554,0.0
21.936272,0.0018735340198016554,0.0
21.938676,0.0018735340198016554,0.0
21.941064,0.0016676996078253197,0.0
21.943448,0.0016676996078253197,0.0
21.945844,0.0016676996078253197,0.0
21.948232,0.0016676996078253197,0.0
21.950612,0.00029838221059339453,0.0
21.953012,0.0,0.0
21.955396,0.0,0.0
21.957776,0.0,0.0
21.960172,0.0,0.0
21.96256,0.0,0.0
21.96494,0.0,0.0
21.967336,0.0,0.0
21.969724,0.0,0.0
21.972108,0.0,0.0
21.974512,0.0,0.0
21.976896,0.0,0.0
21.97928,0.0,0.0
21.981676,0.0,0.0
21.984064,0.0,0.0
21.986444,0.0,0.0
21.988844,0.003231648516788566,0.0
21.991232,0.009536332966632513,0.0
21.993612,0.01598078704333667,0.0
21.996008,0.022425241120040827,0.0
21.998396,0.028869695196744982,0.0
22.00078,0.03531414927344914,0.0
22.003176,0.04282953853679184,0.0
22.005564,0.050344927800134526,0.0
22.00796,0.06093335299653259,0.0
22.010356,0.06844874225987528,0.0
22.012744,0.07396203077680112,0.0
22.015128,0.08254835522678236,0.0
22.017524,0.0880616437437082,0.0
22.019912,0.0955770330070509,0.0
22.022296,0.10309242227039359,0.0
22.024692,0.10939710672023753,0.0
22.02708,0.11463085598344294,0.0
22.029464,0.11879367006000982,0.0
22.03186,0.1220253185767984,0.0
22.034252,0.12269578783972926,0.0
22.036632,0.1194641393229407,0.0
22.039028,0.11315945487309674,0.0
22.041416,0.10803330464964288,0.0
22.043796,0.10770085599407157,0.0
22.046192,0.11863304599658793,0.0
22.048576,0.1430170710008429,0.0
22.05096,0.18569385440296224,0.009695769043540504
22.053356,0.24885059254659692,0.01901198014125104
22.05574,0.3276916880059951,0.0282255656206774
22.058124,0.4299006785427298,0.0370726500358599
22.060528,0.548307778932295,0.04592315632442998
22.062912,0.6736466595472812,0.055131009463747944
22.065292,0.8208159693441418,0.0642920645586793
22.067688,0.9906071042557949,0.07317094962361045
22.070076,1.1881424227899557,0.08165140032872592
22.07246,1.4100240237894743,0.08988240229173512
22.074864,1.6468930298283249,0.0981748998399965
22.077252,1.9037773557577362,0.10643893964693764
22.079632,2.1818404845629638,0.11468037311554724
22.082028,2.482667103967713,0.12281498332914004
22.084416,2.80017720689099,0.13086627188929129
22.086796,3.1262509995916363,0.1389696700419095
22.089192,3.4675313593738264,0.14700668046116866
22.09158,3.8236159244559835,0.15492479470328788
22.093976,4.179188632858945,0.1628098030779811
22.096372,4.532064184096926,0.17055699994684134
22.09876,4.862410458018733,0.1686314416178582
22.10114,5.168878876041873,0.16708506777413015
22.103536,5.459011310443194,0.1655855109611724
22.105924,5.7271263242075365,0.1644712812545925
22.108304,5.982675342559545,0.16330378322221817
22.110704,6.232830046581594,0.16164631815786076
22.113092,6.46418203138445,0.15996707162999405
22.115472,6.6633682180492535,0.15863926016230234
22.117876,6.824846939187709,0.15783880385428198
22.12026,6.956811693382716,0.15737566613821952
22.122644,7.075698595486189,0.15680458690672422
22.12504,7.173266925086987,0.15628011030221725
22.127424,7.247933890319272,0.15581231964863085
22.129808,7.307845767937702,0.1553759856169898
22.132204,7.354538127979871,0.15498231957566436
22.134588,7.397182856416703,0.15447766798526316
22.136972,7.4226510876126826,0.15403750542739397
22.139368,7.427869785634755,0.1537143336109874
22.141756,7.423825945745155,0.15338111255378334
22.144152,7.406373700966321,0.153217464574086
22.146548,7.392226809546018,0.15302324620157826
22.148936,7.376170365177916,0.1528941893311634
22.151316,7.3526645963315875,0.1528720129954606
22.153712,7.334885590470789,0.15276078570073062
22.1561,7.318642154647583,0.15267638846331139
22.158484,7.298020534421337,0.15274940439809162
22.16088,7.277164700911745,0.15290627730723214
22.163268,7.264502365985055,0.1529957344718037
22.165648,7.263897961507239,0.15295418911039907
22.168044,7.272837530052684,0.1528019789470811
22.170432,7.281310567889308,0.1527130881801188
22.172808,7.294439433524824,0.15255743085109677
22.175208,7.3098499391604745,0.1523508753953952
22.177592,7.3190218251314,0.15222520999721387
22.179988,7.326331379982768,0.15212722863383477
22.182384,7.328473250356045,0.1520861701173607
22.184772,7.327681854423125,0.1520918073779078
22.187156,7.32488835774379,0.15213162261346158
22.189552,7.313667149198207,0.15233330414949323
22.191936,7.3065426899440755,0.15249877903552728
22.19432,7.3005817136752,0.15267514494897474
22.196724,7.306166811176003,0.152706771373438
22.199108,7.319293780953648,0.1526624824939391
22.201492,7.327997240357878,0.1527110151255638
22.203892,7.332044871963219,0.15282621621385137
22.20628,7.3358601861430826,0.15291662431117478
22.20866,7.340094809203525,0.15298416985641305
22.21106,7.345168050025128,0.15300626123444763
22.213444,7.352849691928835,0.15292586794248986
22.215828,7.358576454914364,0.15284069616498427
22.218224,7.3659332315939725,0.15270595747716753
22.220608,7.369657893833085,0.15265451365176855
22.222992,7.377479305363648,0.15256945513783382
22.225388,7.383019076894076,0.15253127928418903
22.227772,7.38893093547684,0.15250999838588183
22.230156,7.40080187447061,0.1524300688139413
22.232552,7.420494224994947,0.15226557493020648
22.23494,7.445633799251091,0.15203268625116764
22.237336,7.483297834664935,0.15161037328807345
22.239732,7.5193790782129435,0.15119942169607076
22.24212,7.557369874708752,0.15072991024805701
22.2445,7.5883306556069146,0.15034493221722248
22.246896,7.616405392027123,0.14996879724511059
22.249284,7.642665019156019,0.14957693526094382
22.251668,7.673907235165771,0.1490730101089968
22.254064,7.7098052789744145,0.14851351784454464
22.256452,7.751150546514866,0.14789660103555788
22.258832,7.795009771480934,0.14726787590610085
22.261232,7.832955242006368,0.1467672874595517
22.26362,7.8714125692109995,0.14627979720440334
22.266,7.9110333794008865,0.14580932363478563
22.268396,7.957591657389804,0.14524289251211797
22.270784,8.000565042766468,0.1447205408398728
22.273168,8.048893104076322,0.14410681575652942
22.275564,8.095126516841145,0.14349278934803458
22.277948,8.135772936247296,0.14295200835759247
22.280332,8.174604246362135,0.1424059824849716
22.282728,8.209338807185524,0.14189061636035277
22.285116,8.238393826851624,0.14141804676623487
22.287512,8.268519781704363,0.14092879562979585
22.289908,8.297015722863021,0.14048784373961018
22.292296,8.331378196634072,0.1399759088129008
22.294676,8.367975088577015,0.1394611839110795
22.29708,8.409599895371189,0.13891170454851187
22.299468,8.449175379590702,0.13843036749857002
22.301848,8.48581759750402,0.1379922840053067
22.304244,8.521016793178362,0.13756509221254332
22.306632,8.550628995494034,0.13719932972343124
22.309016,8.576935844451175,0.13684937051493112
22.311412,8.600728735982699,0.13651701331800106
22.3138,8.623637683782688,0.1361639804647167
22.31618,8.64151871673145,0.13584821272566625
22.318576,8.658887893001014,0.13552379809626977
22.320964,8.67346357259124,0.1352293244288938
22.323344,8.69269507998036,0.1348897187843943
22.32574,8.713137292182978,0.13452868555924086
22.328128,8.736093461811212,0.1341576072755547
22.330512,8.765288251104174,0.1337381321764998
22.332908,8.791223013008974,0.13339501962202896
22.335296,8.815947070100277,0.1330733124488179
22.337676,8.838948565698885,0.132764356895019
22.340076,8.855431902379044,0.13252143471348052
22.342464,8.86874965532753,0.1322910698797313
22.344848,8.878482515663762,0.13209133025339848
22.347244,8.888914224134297,0.1318630183399279
22.349632,8.900975946298912,0.13159849243726562
22.352016,8.902375538425382,0.1314474129975474
22.354412,8.903775130551853,0.13129577573551005
22.3568,8.913555212716329,0.13106464477376692
22.359184,8.926640648239339,0.1308166917457111
22.36158,8.93772398301593,0.13059349342817672
22.363968,8.95039010965836,0.13036610058836018
22.366352,8.961426222606708,0.13017612871043888
22.368748,8.97455698410009,0.12999005623961715
22.371132,8.982892148167721,0.1298538332272279
22.373528,8.991786390742792,0.12969500198026518
22.375924,8.993510848093358,0.1295930143343008
22.378312,8.985783880219282,0.12958102013902
22.380692,8.984622293091896,0.1294779109042757
22.383088,8.984299323725669,0.12933999273399846
22.385476,8.985885907307244,0.1291534439553739
22.387856,8.989334822008374,0.12895003165202254
22.390252,8.994086989321623,0.12875285227403538
22.39264,9.000561718127567,0.12854484939130903
22.395024,9.00130968394798,0.1283924414826192
22.39742,8.993257850849806,0.12833243316462328
22.399804,8.992795111856722,0.1281988888558268
22.402188,8.995637726222173,0.12804911427375187
22.404584,8.989960080922753,0.1279812676733165
22.406972,8.979673829652686,0.12792298136767688
22.409368,8.967385477636203,0.12788737883488788
22.411764,8.950441297820827,0.12789379052444177
22.414152,8.938712024311783,0.12783429663576354
22.416532,8.923165540765012,0.12778161261798524
22.418928,8.906036265352405,0.12773427421570352
22.421312,8.886625349939658,0.12772092241352448
22.423692,8.868377917512166,0.12772043773312527
22.426092,8.856788413629987,0.12765458408811264
22.42848,8.841194708254971,0.12763397036719215
22.43086,8.82704402511893,0.1276134767391492
22.433256,8.812985889781507,0.12761888409134536
22.435644,8.801162172615978,0.12762232641401083
22.43804,8.794413592129922,0.12756714019487694
22.440436,8.789155255711085,0.12748080387729763
22.442824,8.788692516718001,0.12734825578272096
22.445204,8.79661026776292,0.12714252499105524
22.4476,8.80494732768842,0.126920508544831
22.449988,8.813191839815303,0.12667333216819426
22.452372,8.832238251607189,0.12631699962272264
22.454768,8.856172808623443,0.12594279298260286
22.457152,8.88276109269217,0.12555022270545385
22.459536,8.91479660049271,0.12511674594857383
22.461932,8.942827906800416,0.12472847518992378
22.46432,8.97588712795935,0.12431711250694814
22.466704,9.013602176917177,0.12386715540679419
22.4691,9.057323528114253,0.12335862163409997
22.471488,9.10253512337855,0.12281952032759588
22.473868,9.145884387523287,0.12229906005354796
22.476264,9.190304586854666,0.12176544749742292
22.478652,9.230208728014013,0.12126458052054216
22.481048,9.26466564544155,0.12080264530447644
22.483444,9.293954878390995,0.12036989910806796
22.485832,9.314723851675577,0.12001290018917957
22.488216,9.330138149026965,0.11972184190034693
22.490612,9.347554547124771,0.11941265647094992
22.493,9.362456987796962,0.11911648962583597
22.49538,9.376940119588575,0.118838450832816
22.497776,9.38793090656655,0.11861025346245692
22.500164,9.395057261678552,0.1184192803781514
22.502544,9.400740594551575,0.11822729419729315
22.504944,9.407122775558904,0.11800899101503379
22.507332,9.412061934327255,0.11778975327224671
22.509712,9.420353668282381,0.11752907733552735
22.512108,9.425479818505833,0.11727520787715523
22.514496,9.42874363760973,0.11703568526034173
22.516876,9.42441836260854,0.11685581648443125
22.519276,9.420884483540268,0.1166747613182215
22.52166,9.417350604471997,0.11649373393583637
22.524044,9.416889761336783,0.1162830731073386
22.52644,9.423086846746875,0.11602203088498711
22.528828,9.436221399955995,0.11569992689744017
22.531224,9.452009680217591,0.11536270437850973
22.53362,9.474595658651355,0.11496991107342593
22.536008,9.502676082645172,0.11451329726231022
22.538388,9.52582113958638,0.11410096513709726
22.540784,9.547895261340948,0.11370068846329526
22.543172,9.57239079272251,0.1132700798543925
22.545556,9.599028194477352,0.11281553105828493
22.547952,9.618867898060023,0.11241504055262402
22.55034,9.638847371269557,0.11201154446110004
22.55272,9.659618240412009,0.11161007358599749
22.555116,9.679038635114102,0.11123163563528292
22.557504,9.696037620189198,0.11088791031480616
22.559884,9.710615195637295,0.11057588441494273
22.56228,9.72626370627203,0.11025363431372907
22.564668,9.744286404705521,0.10992771262456182
22.567052,9.765242369445206,0.10958145115890115
22.569448,9.789271370117948,0.1092094687356909
22.571836,9.809435938924715,0.10886838199896283
22.574232,9.822942579186174,0.10857448974720404
22.576628,9.835378284260994,0.10829393729418577
22.579016,9.849304233403032,0.10798859950127772
22.581396,9.861088312171795,0.10770662434677832
22.5838,9.871521916500201,0.10744674578353822
22.586188,9.883817851948159,0.10717530814154184
22.588568,9.900909384821869,0.106872846098344
22.590964,9.912506472135526,0.10662822129799086
22.593352,9.927176595382239,0.1063589701542512
22.595736,9.951437913480456,0.10602637468392119
22.598132,9.973277821951676,0.10572477892065772
22.600516,9.993627486355676,0.1054497805871439
22.602896,10.015048085946317,0.10516539095405619
22.605292,10.038890095163953,0.104852722169306
22.607684,10.068878176247702,0.10448989946872002
22.610064,10.098726487704589,0.10413384731985875
22.612464,10.131647835094531,0.10375452315429776
22.614848,10.157771484312303,0.10342202094461364
22.617232,10.175746960917548,0.10315411923582167
22.619628,10.19423429420199,0.10289553670082463
22.622012,10.218448390471963,0.10260224897589915
22.624396,10.237587350062466,0.10234883123812999
22.626792,10.254956526332027,0.10212999526715463
22.62918,10.272046163347872,0.10192149680377766
22.631564,10.288064865177073,0.10172335391985715
22.63396,10.305434041446636,0.10150676799114317
22.636348,10.317867850663585,0.1013254813550701
22.638744,10.333794004694171,0.10110584706102518
22.64114,10.346507353164846,0.10091624344735553
22.643528,10.354564873836626,0.10075218576100889
22.645912,10.3650438041354,0.10056015898036436
22.648308,10.375010877754981,0.10035932027698934
22.650696,10.380042584321947,0.10019105028020286
22.65308,10.381442176448418,0.10006528718133051
22.655476,10.38042035894789,0.09996798824111511
22.657864,10.378327606260724,0.0998800733744597
22.660248,10.371439256147807,0.09981996692461684
22.662644,10.370417438647282,0.09972291816420822
22.665032,10.37740402413242,0.0995703338658458
22.667416,10.385741084057921,0.09939963051220391
22.669812,10.39365883510284,0.0992439896228198
22.6722,10.405580787640593,0.09906079032716364
22.67458,10.41591994831251,0.09887705991891711
22.676984,10.422813985999031,0.09870206430841856
22.679368,10.430918728499055,0.0985137429702834
22.681748,10.435670895812303,0.09835741205545324
22.684152,10.440423063125548,0.09820084423318383
