Time,Force,Position
24.094164,0.0,0.0
24.096548,0.0,0.0
24.098944,0.0,0.0
24.101332,0.0,0.0
24.103712,0.0009389072111901857,0.0
24.106112,0.0050906199822959635,0.0
24.1085,0.015108865365792087,0.0
24.11088,0.024195945189509883,0.0
24.113276,0.03221208982658916,0.0
24.115664,0.04250987446380569,0.0
24.11806,0.05359905503394035,0.0
24.120456,0.06776127153713038,0.0
24.122844,0.07964184804018314,0.0
24.125228,0.09459546047629128,0.0
24.127624,0.10768674179284278,0.0
24.130012,0.12198872792289303,0.0
24.132396,0.13615094442608305,0.0
24.134792,0.15152386574277182,0.0
24.13718,0.1646151470593233,0.0
24.13956,0.17863759393565312,0.0
24.141956,0.19186864487906485,0.0
24.144344,0.20589109175539466,0.0
24.146724,0.2180512075121679,0.0
24.149124,0.23100271920185916,0.0
24.151512,0.23607785588133143,0.0
24.153892,0.23658971256052913,0.0
24.156288,0.22737060476136298,0.0
24.158676,0.21828352493764522,0.0
24.16106,0.21026738030056594,0.0
24.163456,0.19996959566334938,0.0
24.165844,0.18888041509321474,0.0
24.168224,0.1747181985900247,0.0
24.170632,0.16283762208697192,0.0
24.17302,0.1478840096508638,0.0
24.1754,0.13479272833431227,0.0
24.177796,0.12049074220426201,0.0
24.180184,0.10632852570107199,0.0
24.182564,0.09095560438438322,0.0
24.184964,0.07786432306783171,0.0
24.187352,0.06384187619150189,0.0
24.189732,0.05061082524809018,0.0
24.192128,0.03658837837176035,0.0
24.194516,0.024428262614987158,0.0
24.1969,0.01204357108414857,0.0
24.199296,0.010600548845172558,0.0
24.201684,0.009856374740497598,0.0
24.204064,0.012045466942017812,0.0
24.20646,0.01782719340720296,0.0
24.208848,0.021606819125971257,0.0
24.211232,0.023104804844602284,0.0
24.213628,0.026465121682789954,0.0
24.216016,0.026465121682789954,0.0
24.2184,0.026465121682789954,0.0
24.2208,0.029406129640396992,0.0
24.223188,0.030205267224726964,0.0
24.225568,0.03207533999569547,0.0
24.227968,0.03207533999569547,0.0
24.230356,0.03207533999569547,0.0
24.232736,0.03207533999569547,0.0
24.235136,0.03207533999569547,0.0
24.237524,0.03207533999569547,0.0
24.239904,0.03207533999569547,0.0
24.242304,0.03207533999569547,0.0
24.244692,0.031508519836842774,0.0
24.247076,0.02693749818515636,0.0
24.249472,0.02301810283952785,0.0
24.25186,0.020029873053677663,0.0
24.254244,0.014248146588492513,0.0
24.256644,0.010468520869724215,0.0
24.259032,0.008970535151093188,0.0
24.261412,0.005610218312905519,0.0
24.263812,0.005610218312905519,0.0
24.266204,0.005610218312905519,0.0
24.268584,0.005279665515203463,0.0
24.270988,0.020170731040179614,0.0
24.273376,0.04911803604470916,0.0
24.275756,0.09794863296435112,0.00980552245046222
24.27816,0.16600315384163578,0.018990210661257646
24.280544,0.25118695013152914,0.02786592598258363
24.282928,0.3464227844081422,0.03708807070155136
24.285324,0.45981160745575933,0.04611898206931303
24.287708,0.5929362111402171,0.054964931781040775
24.290092,0.7430030987821801,0.06379115430244861
24.292488,0.9151346288893638,0.07229208850161027
24.294872,1.1066770744092937,0.08061205238415131
24.297256,1.3133466945954155,0.0889435939988476
24.299652,1.5355155765000663,0.0973119786262567
24.30204,1.7741148856830251,0.10568897585805898
24.30442,2.0354304636372627,0.11389036679312463
24.30682,2.3120129858845524,0.12209657158476635
24.309204,2.606423631678752,0.13022181059204802
24.311588,2.9133077250866686,0.13840730987252026
24.313984,3.2373683157354374,0.14651941376167665
24.316372,3.576229161748499,0.15447185450398845
24.318752,3.909272592835285,0.1623555126726408
24.321148,4.22597814444238,0.17027004423385234
24.323536,4.522156519479717,0.16840740170934476
24.325932,4.7997625968654685,0.1671669664550646
24.328328,5.061542651450727,0.16623823467939744
24.330716,5.319416739915377,0.16484333837307819
24.333096,5.558533435131208,0.16359680095042134
24.335496,5.776518549299467,0.16249842596063507
24.337884,5.977608601338461,0.1613783158652029
24.340264,6.155423306098737,0.16061353943981405
24.34266,6.313966865073127,0.1600217639032493
24.345048,6.454869291955711,0.15944520214824728
24.347432,6.580831535627205,0.1587997104375832
24.349828,6.689944043139811,0.15816966165625293
24.352216,6.778574700053034,0.15770442849496005
24.3546,6.854172830845098,0.15722372772377993
24.356996,6.909241889209535,0.1569002559919606
24.35938,6.9529084351468935,0.15649418510094198
24.361764,6.978746857537342,0.15615984880236772
24.36416,6.987314339030451,0.15597718853303166
24.366548,6.986757156380879,0.15589204322514655
24.368928,6.988900922612025,0.1557296274066558
24.371328,6.994257494403084,0.15549901604631555
24.373716,6.997798956902833,0.1552554727427076
24.376096,7.002318806790604,0.15495733186510668
24.378492,6.998271175185265,0.15483877171157845
24.38088,6.996270970296718,0.15475871596430943
24.383264,6.993245156191904,0.15477585915385353
24.38566,6.988821645818489,0.1548730510176142
24.388048,6.985841157684051,0.15496603196923103
24.390432,6.987609045147121,0.15502057515585532
24.392828,6.995336013021199,0.15500761990332335
24.395216,7.003435067947617,0.1550127827461278
24.397612,7.014374841381611,0.15493510975963956
24.400008,7.020426469591234,0.1549017796563344
24.402396,7.025594154069324,0.15484189701580825
24.404776,7.038026067428406,0.15460544850441268
24.407172,7.0480837929887326,0.15438734212564809
24.409556,7.060283388922336,0.15412706855442077
24.411936,7.071412049669301,0.15388798110320984
24.414344,7.086777229334578,0.15360350782342724
24.416732,7.1039575182911685,0.1533360501637206
24.419112,7.121090585419517,0.15311054361280613
24.421516,7.1371054955329845,0.15294517599608692
24.4239,7.152002248631568,0.1528432541673421
24.426284,7.173976239156041,0.15261687782066855
24.42868,7.196369538561095,0.15236947970260692
24.431064,7.223326117966425,0.1520218909570505
24.433444,7.253775042185389,0.1515963768333264
24.435836,7.284690497113176,0.15110877486657498
24.438224,7.3082038493909804,0.15068979821570666
24.440616,7.328411848310252,0.15030423718965905
24.443024,7.3467575161099665,0.14994497123027647
24.445408,7.361890378349766,0.14964954180527792
24.447788,7.37953719801518,0.14932789159074303
24.450184,7.39806796141213,0.14903557579698637
24.452572,7.4141300933538385,0.1488430281564365
24.454952,7.434800831266197,0.14862743258812122
24.457348,7.458357613656506,0.14841011994545208
24.459736,7.484568123099291,0.1481630860824957
24.462116,7.511337711049515,0.14789075279878097
24.464512,7.536152420081566,0.14761544432958906
24.4669,7.563668077994336,0.14727650057443714
24.46928,7.598028655907517,0.14680404259308572
24.471684,7.630853663783105,0.1463038742786606
24.474068,7.658371217553743,0.1458656589318336
24.476448,7.683374813898768,0.14545017075932395
24.478852,7.706376309497375,0.14506770817513084
24.48124,7.726164999536066,0.14474224178717068
24.483616,7.746186007000234,0.14444213693579702
24.486024,7.768441432636297,0.14413335888099452
24.488408,7.795212916444391,0.14377797451730834
24.490788,7.825569292864738,0.1433851454018058
24.493192,7.856577295591143,0.14299388994544404
24.49558,7.8890755423847665,0.14256496167408855
24.49796,7.9163135569016845,0.1421527383410271
24.500356,7.940153670261452,0.141735502784169
24.502744,7.960036803956631,0.14134252505061726
24.505124,7.973169461307882,0.14100683313252144
24.507528,7.987420275674015,0.1406197421827909
24.509916,7.9945013048156435,0.14030713220288796
24.512296,8.000231859516912,0.14002687890643267
24.514692,8.0043324005241,0.13979372220522282
24.51708,8.004940596717654,0.13962830549795555
24.51946,8.004989714403766,0.1394895141325781
24.521856,8.007692559142354,0.13932578248483696
24.52424,8.013980296493195,0.13912712994128634
24.526636,8.021990595336732,0.1389148572747178
24.529032,8.032142764553544,0.13866826890362902
24.531416,8.041131450785103,0.13840997318324852
24.5338,8.050446898098626,0.13810246562039627
24.536196,8.049938833135165,0.1378895375731241
24.53858,8.046265184440035,0.13769204717691808
24.540964,8.042498987946285,0.13746498137517785
24.543356,8.035427438094004,0.1372588728276258
24.545744,8.030730076040477,0.13704078269955206
24.54814,8.027196196972204,0.13683489580823166
24.550536,8.02552464902349,0.1366083753012856
24.552924,8.024504727380833,0.13638371913993266
24.555304,8.014777554618206,0.1363024087053953
24.557708,8.012871793386145,0.13615369833719723
24.560096,8.009103701034528,0.13602572186068512
24.562476,8.000959320137738,0.13593683844222978
24.564872,7.988438650695779,0.13588708457822843
24.567256,7.975965203082063,0.13580001577367073
24.56964,7.956182200616978,0.13579136263640404
24.572036,7.932022909606724,0.1358211474951335
24.574424,7.902556164491518,0.13590139726965336
24.576804,7.868713130831143,0.13602176684220674
24.5792,7.8343110186633265,0.13616886892572128
24.581588,7.797580044667128,0.1363961331876311
24.583968,7.769322108507552,0.13655863089586512
24.586368,7.745440460893149,0.1366787737451254
24.588756,7.721651361077362,0.1368289476230233
24.591136,7.701260162418726,0.1369875206504022
24.593532,7.684034547491763,0.1371302445183768
24.59592,7.669090572564936,0.1372305735852071
24.598316,7.653215432078331,0.13734042314622957
24.600712,7.6385509964052245,0.1374265919969992
24.6031,7.631103567784865,0.13740583332878603
24.60548,7.619559389873055,0.1374098374474806
24.607876,7.610948478267441,0.13737559823599083
24.610264,7.604339667408244,0.13731347221725487
24.612644,7.602898541027134,0.137208360382165
24.61504,7.602853215056758,0.13714017438172643
24.617428,7.613842106176861,0.1369524185402448
24.619808,7.6266461065882805,0.13678056231535843
24.622204,7.645688726664429,0.13654824592167572
24.624596,7.668967865658886,0.1362824364540191
24.626976,7.692619091705682,0.1360324836904845
24.629372,7.7226959288723105,0.13567838527101758
24.63176,7.748815786374347,0.13534502789581118
24.634144,7.766555153838379,0.13510675804234443
24.63654,7.782851499063434,0.13486815828965082
24.638924,7.796122030183678,0.13463735371484278
24.64132,7.804504416079551,0.134435865844569
24.643716,7.805809564549537,0.13433574004469023
24.646104,7.805624468952303,0.13427391632126992
24.648488,7.807813561153824,0.134201015620959
24.650892,7.809723114101625,0.13414225645214256
24.65328,7.8150777900348185,0.13405567261022905
24.655656,7.8215034011546525,0.13395262794582835
24.658056,7.833236466379434,0.13380267033175983
24.660444,7.844038366044438,0.1336638760180541
24.662824,7.853676782724186,0.13351157824679238
24.66522,7.856005644552568,0.13343452469796446
24.667608,7.861454764142247,0.13327815524962452
24.669992,7.865321091866091,0.1331293684629097
24.672388,7.871608829216929,0.1329360025828847
24.674776,7.881947989888845,0.13265611952198358
24.677156,7.888282949067928,0.13242948458435883
24.679552,7.898482340112983,0.13215990632730806
24.68194,7.9199954875022405,0.13177302234785998
24.68432,7.949749355302641,0.13131359746713428
24.686716,7.984810677207992,0.13081413251329282
24.689104,8.024899913964573,0.13028578144417213
24.6915,8.075791050386155,0.12963180371542668
24.693896,8.134038963487347,0.12888345756334352
24.696284,8.19270618546912,0.12812380814012594
24.698668,8.25351527782417,0.12734197630450886
24.701064,8.309668542380328,0.1266072403808093
24.703452,8.364890641376707,0.12588765967110369
24.705832,8.415084825521857,0.12520285812222703
24.708228,8.463835987428032,0.12451824303486231
24.710616,8.514449480453763,0.1238183442538741
24.712996,8.568647866091746,0.12309178159324327
24.7154,8.618282971729457,0.12244067168427689
24.717788,8.668849242926946,0.12178664333329986
24.720168,8.714852234124162,0.12120569139009078
24.722564,8.75694357162716,0.1207025530910183
24.724952,8.798755369876435,0.12021146557489333
24.727332,8.836562966632883,0.1197682954330506
24.729728,8.864919138164682,0.11941569750343167
24.732116,8.884103423725557,0.1191396616750666
24.734496,8.897188859248566,0.11890198587844347
24.736892,8.910181746972956,0.11863931607898189
24.73928,8.916004849472843,0.118428446101296
24.741676,8.911957217867506,0.11831721981417556
24.744072,8.906838651075528,0.11821943258418421
24.74646,8.897436343536995,0.11817441446785024
24.748844,8.890687763050938,0.11811278222309517
24.75124,8.881657542564744,0.11808320856811094
24.753628,8.87579290581022,0.11804669212791526
24.756012,8.869229420921396,0.11803881560929211
24.758408,8.86424872789841,0.1180274175986643
24.760796,8.858197099688788,0.11802885058579941
24.763176,8.85335617629266,0.11801168280424126
24.765572,8.848515252896537,0.11799431799561724
24.76796,8.847166674314046,0.1179271847810302
24.770344,8.844514843119436,0.11785174019339403
24.77274,8.846426291925104,0.11771432441917966
24.775128,8.848197971103911,0.11758225543790782
24.777512,8.852623377335195,0.1174338681857414
24.779916,8.861564841738508,0.11725521017941024
24.782304,8.874742825060135,0.11705763793816344
24.784684,8.88521985950104,0.11690916788279626
24.78708,8.901795743979816,0.11672939001718304
24.789468,8.92516932663076,0.11648902221016463
24.791848,8.945981730027848,0.11629063664282141
24.794244,8.969075773425072,0.11606148894786647
24.796632,8.990587024956461,0.11583555748376995
24.799012,9.015730390928343,0.11555616079453769
24.801408,9.036637237981918,0.1152959039175277
24.803796,9.062386904289488,0.1149650697855409
24.806176,9.085902152425161,0.11463505554755421
24.808576,9.110256018321996,0.11427416520845504
24.81096,9.133958257912772,0.11390927509697067
24.81334,9.154867000824213,0.11356588089736598
24.815744,9.173773642989238,0.11324316204773764
24.818132,9.197615652206876,0.1128779542683866
24.820512,9.214380423998625,0.11258206985025061
24.822912,9.23435800135029,0.11225121466750944
24.8253,9.258759089075372,0.1118703762585897
24.82768,9.281717154561475,0.1114882692042943
24.830076,9.305513837808736,0.11107741028100888
24.832464,9.326936333257247,0.11066791954157816
24.834844,9.340397647548334,0.11030032070779852
24.837244,9.349342903667386,0.10995961324583553
24.839632,9.359685856055039,0.1095652044361886
24.842028,9.3653729806438,0.10920102076964286
24.844424,9.373201975605841,0.10881431596781904
24.846812,9.376747229821326,0.10847412814339188
24.849196,9.381223649596592,0.10812712557251278
24.851588,9.381136789371583,0.1078375439546184
24.853976,9.376766188400017,0.10759271155403927
24.85636,9.368623703361095,0.10740326179915897
24.858756,9.36341448462837,0.10719042271989376
24.861144,9.358205265895645,0.10697723281185148
24.863524,9.353135816789779,0.10675874773657605
24.86592,9.344062166191081,0.10657497640837171
24.868308,9.339132486712076,0.10635124578615111
24.870688,9.331549080180594,0.10614009985371362
24.873088,9.319309845850222,0.10595822237341303
24.875476,9.308001777079628,0.1057704034423076
24.87786,9.292270197935618,0.1056310888647729
24.880256,9.280682589911304,0.10545296508592024
24.88264,9.276544306365217,0.10522966839094085
24.885024,9.273337188378907,0.10500023463746751
24.887428,9.271153783750995,0.10479097283831935
24.889816,9.272695041362196,0.1045586802836188
24.892196,9.273025594159899,0.10434281435792264
24.894596,9.272285211770962,0.10413670258365391
24.896984,9.273127621247863,0.10393001538155307
24.899364,9.273318404418704,0.10371787796209904
24.90176,9.279515489828798,0.1034561678301412
24.904148,9.288133984865887,0.10316180243116613
24.906528,9.291397803969783,0.10292158808951368
24.908924,9.295732558260319,0.10267056567661385
24.911312,9.300067312550855,0.10241991751073473
24.913696,9.303470901281615,0.10217422740500201
24.916092,9.307526116318428,0.10193465019336191
24.91848,9.312884583967358,0.10170528295547124
24.920876,9.316473268295349,0.10151222821152656
24.923272,9.32043403967568,0.10133543520399438
24.92566,9.326117372548705,0.10115267380466246
24.92804,9.332172792474069,0.10098632110916841
24.93044,9.332873536466238,0.10087306148742047
24.932828,9.336088237884022,0.1007545217208899
24.935208,9.33865131299575,0.10063120365842655
24.937604,9.342145553667255,0.10050295634773265
24.939992,9.346570959898537,0.10036984565701058
24.942376,9.359284308369208,0.10016584683009548
24.944772,9.3722771960936,0.09995261750748487
24.947164,9.389925911616885,0.09971488101822086
24.949544,9.40664346158039,0.09948386957893628
24.95194,9.423081472290173,0.09926342528283186
24.954328,9.447667655612486,0.09897945589601641
24.956712,9.474767796360414,0.09869275584665844
24.959108,9.501588397854622,0.09841678504283147
24.961496,9.533995992707498,0.09811344664810817
24.96388,9.559466119761344,0.09785779397173891
24.966276,9.580559958270022,0.09761556786678861
24.968664,9.604866602338614,0.09734355307425388
24.971048,9.623865792302254,0.09709020384444793
24.973444,9.642353125586698,0.09682670801586264
24.975832,9.655905091818532,0.09659719068120146
24.978212,9.668945201371168,0.09635665006365694
24.980612,9.681473454244605,0.09610730630922835
24.983004,9.693722167864323,0.09586839272789069
24.985384,9.707972982230457,0.09561670010022003
24.98778,9.72129263103681,0.09537046642492814
24.990168,9.728046899096475,0.09518835354973383
24.992552,9.729586260849805,0.09504878455241071
24.994948,9.732755636297217,0.09488141501678106
24.997336,9.734714306931128,0.09472866825941513
24.99972,9.735881581632123,0.09457546880539806
25.002116,9.729599531854891,0.09445829955253794
25.004504,9.720943294278905,0.09433992437991913
25.006888,9.715639631889694,0.09418933932788849
25.009284,9.704748976141813,0.09406472454911508
25.011672,9.702146262633319,0.09387665851128886
25.014056,9.705130542483495,0.09366260585592401
25.016452,9.708254591960532,0.09344441093857592
25.01884,9.7171054044231,0.09319578915077656
25.021224,9.730891583938279,0.09291818623107002
25.02362,9.750311978640372,0.0925865452283964
25.026008,9.77266563964866,0.09223799394609995
25.028392,9.790875329537252,0.09192027612290074
25.030792,9.809364558679567,0.09159354369821007
25.03318,9.825060291142545,0.09128095872016544
25.035564,9.841966728419022,0.09095595214163389
25.03796,9.86050317938958,0.09060324106314609
25.040344,9.885325471853108,0.09020227348979401
25.042728,9.902371678756445,0.0898731808871453
25.045124,9.921699525659921,0.08952344338432087
25.047508,9.941027372563399,0.08917346010665453
25.049892,9.96165847207899,0.08883346201206888
25.052288,9.977214434915107,0.0885262410323576
25.054676,9.986484556258256,0.08826692125524643
25.05706,9.99682561278804,0.08799848276870456
25.059456,10.001811993384633,0.08777394039031498
25.061844,10.005867208421451,0.08755416164270875
25.064228,10.00670961789835,0.08735998904073368
25.066632,10.005549926628833,0.08717864525392018
25.06902,10.000106494612762,0.08703174578530333
25.0714,9.994243753716109,0.08689920760103999
25.0738,9.989172408752376,0.08676793491681581
25.076188,9.987965495654617,0.08661732306826418
25.078568,9.988620913676414,0.08645991505625707
25.080968,9.988996792444489,0.086311823280567
25.083356,9.987882427145346,0.08618588773649313
25.085736,9.98835085371204,0.08606242650346602
25.088136,9.988679510651874,0.0859441136602622
25.090524,9.99343167796512,0.08578901297104177
25.092904,9.99497103971845,0.08565818159458792
25.095308,10.001166229270673,0.08551093749318042
25.097696,10.01164515956945,0.08533272783210875
25.100076,10.030644349533091,0.08511991715639552
25.10248,10.053647740989566,0.08488435783202702
25.104864,10.080375794685157,0.08463692958281999
25.107248,10.11203921543336,0.08436459082302888
25.109644,10.145984276181698,0.0840749333712628
25.112032,10.180069106556898,0.08377947506368597
25.114412,10.215085102491875,0.08348190765302943
25.116808,10.249030163240214,0.08319189465805323
25.119196,10.279622648801777,0.08293026600900305
25.121576,10.310215134363341,0.08267064366899055
25.123976,10.342809720671319,0.08240244457956622
25.126364,10.372191501419383,0.08215777630681359
25.128744,10.402783986980948,0.0819021112173994
25.13114,10.434726946982869,0.08163094099558599
25.133528,10.46680967661165,0.08135758600722809
25.135908,10.496890305494015,0.0810961501454631
25.138304,10.52683116474952,0.08084051533124709
25.140692,10.557842959191662,0.08057771827493285
25.143076,10.583407529901995,0.08032963176314412
25.145472,10.60776139579883,0.08009533600798042
25.14786,10.629461534643191,0.07986725364988913
