Time,Force,Position
2.490468,0.05499725971920804,0.0
2.492812,0.06353753510177479,0.0
2.4951600000000003,0.07235734973806196,0.0
2.497508,0.08210832993412746,0.0
2.499852,0.09372164124974959,0.0
2.502192,0.1084079884984271,0.0
2.504536,0.12323410537396483,0.0
2.506868,0.1389913878092809,0.0
2.509212,0.1498133031919849,0.0
2.51156,0.16170615376132746,0.0
2.513904,0.16866363727805797,0.0
2.5162440000000004,0.17257529097227461,0.0
2.5185880000000003,0.17355367836029612,0.0
2.520936,0.17518369205437548,0.0
2.52328,0.17681370574845487,0.0
2.525628,0.18179629462931005,0.0
2.5279800000000003,0.18156397720383277,0.0
2.530324,0.18733796201760605,0.0
2.5326640000000005,0.19474196052545875,0.0
2.5350080000000004,0.19693105272697894,0.0
2.5373520000000003,0.19669873530150167,0.0
2.5396840000000003,0.1923224467563305,0.0
2.542032,0.1875268493305787,0.0
2.544376,0.18072915115841,0.0
2.546716,0.1720691218666847,0.0
2.5490640000000004,0.160336056641904,0.0
2.5514080000000003,0.14660089067070647,0.0
2.553752,0.13084360823539043,0.0
2.556096,0.12004170857038807,0.0
2.558444,0.10816887371874717,0.0
2.560792,0.10151094517343873,0.0
2.5631320000000004,0.0954846272164865,0.0
2.5654760000000003,0.09334275684320945,0.0
2.5678280000000004,0.08626551941732036,0.0
2.5701720000000003,0.07876897311085064,0.0
2.572528,0.0684589144073443,0.0
2.574872,0.06229282682353188,0.0
2.57722,0.05212253774688575,0.0
2.57956,0.03967060867010235,0.0
2.5819,0.03029171552637434,0.0
2.584248,0.023054692755923385,0.0
2.586596,0.02007420462148506,0.0
2.5889360000000003,0.016162550927268413,0.0
2.591276,0.017326033912524005,0.0
2.5936200000000005,0.017558351338001273,0.0
2.59596,0.018721834323256865,0.0
2.5983,0.019745547681652247,0.0
2.6006400000000003,0.022931147131026345,0.0
2.602984,0.026096730862698786,0.0
2.6053240000000004,0.030333249781009756,0.0
2.6076680000000003,0.03708372612493527,0.0
2.610012,0.04506492300006118,0.0
2.612348,0.04422630523889992,0.0
2.614688,0.04327512396141994,0.0
2.6170280000000004,0.042603481937660385,0.0
2.619384,0.04299558470769953,0.0
2.6217240000000004,0.043247917850878455,0.0
2.624064,0.045502351740474234,0.0
2.626408,0.0469653896971519,0.0
2.6287520000000004,0.04749726209405125,0.0
2.6310960000000003,0.04896030005072892,0.0
2.63344,0.04830867374467102,0.0
2.6357800000000005,0.052732184118085355,0.0
2.6381240000000004,0.050218226692470815,0.0
2.640464,0.047564499639996066,0.0
2.642808,0.04344773463084364,0.0
2.645144,0.04133307036810807,0.0
2.647492,0.03814747091873397,0.0
2.649832,0.03496187146935987,0.0
2.652176,0.030705336833347235,0.0
2.65452,0.023655305517999648,0.0
2.65686,0.015674108642873733,0.0
2.6592,0.013559444380138161,0.0
2.661536,0.013811777523317092,0.0
2.66388,0.013924341039635808,0.0
2.666224,0.013532238269596672,0.0
2.668568,0.013279905126417744,0.0
2.670908,0.011025471236821963,0.0
2.6732560000000003,0.009562433280144295,0.0
2.675604,0.009282894026423875,0.0
2.6779400000000004,0.007819856069746204,0.0
2.6802840000000003,0.007287983672846856,0.0
2.682628,0.002751909783113804,0.0
2.6849680000000005,0.0011491021995759243,0.0
2.6873120000000004,0.0006172298026765753,0.0
2.6896560000000003,0.002359807013074665,0.0
2.691996,0.006104484969889605,0.0
2.6943400000000004,0.006776126993649164,0.0
2.6966840000000003,0.008518704204047253,0.0
2.699032,0.010261281414445345,0.0
2.701372,0.012935024184621753,0.0
2.703716,0.01868180288785354,0.0
2.70606,0.022146941590948065,0.0
2.708404,0.022426480844668487,0.0
2.7107520000000003,0.02284578972524912,0.0
2.713092,0.02337766212214847,0.0
2.71544,0.0269825704521032,0.0
2.7177800000000003,0.03058747878205793,0.0
2.720124,0.034052617485152446,0.0
2.722472,0.03526332229865119,0.0
2.724804,0.03565542506869033,0.0
2.727148,0.035655425068690336,0.0
2.729488,0.035655425068690336,0.0
2.7318360000000004,0.035655425068690336,0.0
2.734176,0.035655425068690336,0.0
2.736516,0.033912847858292246,0.0
2.738868,0.030168169901477297,0.0
2.741212,0.029496527877717737,0.0
2.743552,0.02775395066731965,0.0
2.745896,0.02601137345692156,0.0
2.748244,0.02333763068674515,0.0
2.750584,0.017590851983513355,0.0
2.752928,0.014125713280418837,0.0
2.755268,0.01467910421425195,0.0
2.757624,0.0210045841039891,0.0
2.759964,0.028958181829936383,0.0
2.7623040000000003,0.03639802701881674,0.0
2.764648,0.051052983402577135,0.0
2.7669880000000004,0.06985001504816221,0.0
2.769336,0.09264935232871174,0.0
2.771672,0.12317565748333903,0.0
2.774016,0.16340382514791937,0.0
2.776356,0.21093965180599686,0.011376040877594622
2.7787,0.26685407264421,0.022137833310379093
2.78104,0.32979661322219983,0.03271259567260926
2.78338,0.3999070431668265,0.04309274485211237
2.785728,0.47825629766472866,0.05318135789670958
2.788068,0.5669862470891833,0.0628078984080186
2.79042,0.6623722292010771,0.07233715677526019
2.7927600000000004,0.7669754232542677,0.08151159288298504
2.7951040000000003,0.879073267756059,0.09047000157428917
2.797444,0.9989453019601711,0.09919049993621477
2.7997880000000004,1.125800129933686,0.10772409524233412
2.8021320000000003,1.2606943587191481,0.11596622195121035
2.804476,1.3960078963851912,0.12408323102409086
2.8068280000000003,1.5360244836783687,0.13206652714024647
2.809172,1.6771592279864282,0.14000886996614087
2.8115120000000005,1.8148960711373379,0.14789415741229836
2.8138560000000004,1.9512371138775144,0.15579236089792123
2.8162000000000003,2.092328428073069,0.16352782681738232
2.818544,2.2288583581262187,0.17125755597359427
2.820892,2.3585924858650684,0.17893247382723915
2.823232,2.484603847222674,0.17513412580659776
2.825576,2.6039591758928404,0.17191078173166216
2.8279240000000003,2.718288485569648,0.16880488265116692
2.83026,2.826381071439596,0.16586710019459233
2.8326,2.9248843583159094,0.1632940440013431
2.8349400000000005,3.0110048495192543,0.1612533469477323
2.837288,3.092331639154717,0.1592552591976095
2.8396280000000003,3.162299346475605,0.15769838976992653
2.841972,3.226774504094309,0.15628679018024233
2.84432,3.280402436077637,0.15522785645433146
2.846652,3.3256970998512037,0.15443273499411833
2.8490080000000004,3.3598649987356737,0.15400393456524603
2.851348,3.3839770679176855,0.153838394887832
2.8536840000000003,3.4018977392632124,0.15378962289060888
2.85602,3.4170721357576475,0.15375099896072067
2.858364,3.428569091841212,0.1537526333268792
2.860708,3.4369476860213477,0.15372145652986374
2.8630440000000004,3.438855343111278,0.15381943779372498
2.865384,3.435874854976839,0.15401547638073163
2.867728,3.4326620494169235,0.1541539187220659
2.870076,3.42293108493856,0.15449902837507803
2.872412,3.409475458221083,0.154964370457677
2.874752,3.3940177307571893,0.15549929761638986
2.877108,3.3785600032932956,0.15602864745645253
2.879448,3.367525786202816,0.1563568608911931
2.881792,3.3574227346721153,0.1566625935957058
2.884136,3.345457352021857,0.15702299914079798
2.886476,3.3377757101181533,0.1572020104152371
2.888812,3.3288833634009505,0.15743848916461034
2.891156,3.3258575492961384,0.15747196648500364
2.893496,3.3253929144451835,0.15736737105752113
2.8958440000000003,3.3257196755271474,0.1572490867339252
2.898184,3.3328441347812787,0.15689127166106787
2.900524,3.3407599899683293,0.1565226514511649
2.9028600000000004,3.34867584515538,0.15615738091300752
2.9052040000000003,3.355380995528932,0.15585224250251206
2.907544,3.365671038514736,0.15545407909563963
2.909888,3.372748275940625,0.15518653582134684
2.912236,3.387973685979042,0.1546158038555631
2.9145760000000003,3.4001260600844034,0.15416798273037483
2.916916,3.41549123974968,0.1535801560303031
2.9192600000000004,3.432067124228456,0.15292178583681065
2.9216040000000003,3.448643008707232,0.1522634156433182
2.923944,3.467500533186145,0.15151582947662268
2.926284,3.481562460239306,0.15093104244255479
2.928628,3.5000478976658815,0.1501648917857293
2.930972,3.51653123434604,0.14946224339532288
2.933312,3.53194363583956,0.1488152375680161
2.935664,3.546564641400162,0.14818152184419714
2.938,3.5566695887887323,0.14767005877024264
2.940348,3.5649122050577464,0.14721437160178835
2.942692,3.5726429646475624,0.1467322573534253
2.945036,3.5755781268116267,0.1464023800377907
2.947376,3.5758595619232163,0.1461365469937171
2.9497160000000004,3.5734872699823312,0.14593518654355409
2.9520600000000004,3.5713945172951664,0.14570132654638707
2.954396,3.565297563115168,0.14560731323240209
2.956744,3.56534668080128,0.14528940900402829
2.9590880000000004,3.5577594825540624,0.14528229663124703
2.961436,3.5511034498666234,0.1452487983073398
2.9637840000000004,3.543236712365686,0.14527268150921507
2.9661280000000003,3.5372323059843036,0.1452434451045789
2.968472,3.5284344029235877,0.14529521949122412
2.970808,3.512559262436982,0.14559718636335384
2.9731560000000004,3.50026901456263,0.1458073153459664
2.9755000000000003,3.4854175874344198,0.14613930637585879
2.97784,3.4756412969856822,0.14629327273149131
2.9801840000000004,3.4647940713503065,0.14648659473175413
2.982524,3.454226384968651,0.14664806492367297
2.984864,3.4492456919456647,0.14665576757031312
2.9872120000000004,3.4435661507883775,0.14674119601685548
2.989552,3.4417510414970636,0.1467096316674071
2.9919,3.4425896592582257,0.14661738844935282
2.9942400000000005,3.4480841048182787,0.14639976480828884
2.9965840000000004,3.4551613422441676,0.14616011854499306
2.998932,3.4620988100431966,0.14593407727506735
3.001268,3.4688965082153653,0.14572101894543035
3.003616,3.470479300081201,0.14570062517812615
3.00596,3.4747630408277552,0.1455340651320691
3.008304,3.47769630713395,0.14543978111734923
3.010636,3.481560738999924,0.14531867883674413
3.012976,3.487287501985454,0.14514907316764428
3.015324,3.5008828983297913,0.14473342869593472
3.01766,3.5202050576596595,0.14414275350103184
3.020004,3.537944425123691,0.14358016272269086
3.0223440000000004,3.555032166281664,0.1430148500043671
3.024696,3.5671845403870255,0.14260964305924012
3.027028,3.578405748932609,0.14222757632978944
3.0293720000000004,3.5869260085974735,0.1419840100675197
3.03172,3.589579735649948,0.14192411710487088
3.034056,3.5946548723294205,0.14175222025484463
3.036396,3.5934441675159214,0.14180861362741187
3.03874,3.5957258075160587,0.14171375827393695
3.041084,3.593863476396502,0.1417626996164897
3.04342,3.5942827852770822,0.1417177860612333
3.04576,3.5993579219565546,0.14155427339963692
3.048108,3.605643763449526,0.141336299532075
3.05046,3.6177961375548873,0.14094826733919652
3.0528000000000004,3.6292496635259472,0.14063484889679426
3.0551440000000003,3.6417741246836464,0.14027925436873376
3.057492,3.6600253488268755,0.13978033521945465
3.0598280000000004,3.674412141104131,0.1393935920806771
3.062168,3.67944005595536,0.1393145872378069
3.064512,3.682465870060172,0.13929592535638238
3.06686,3.6858637712173214,0.13931222177089114
3.0692000000000004,3.688982133120751,0.13935712714116022
3.0715440000000003,3.695033761330375,0.13932004258808509
3.07388,3.70094561991314,0.13929622437732186
3.076216,3.713283089615735,0.13905016235847992
3.0785600000000004,3.729624760811164,0.1386841742263829
3.080908,3.7467578279395113,0.1383164509560325
3.083252,3.773249772493885,0.1376502924417564
3.085596,3.793176336301567,0.13722372278493708
3.08794,3.817386640855804,0.13665771375455657
3.090288,3.8401067013428207,0.13617732110024777
3.092624,3.8580311644040863,0.13582332797404004
3.0949720000000003,3.877398649704327,0.13547126546805527
3.097316,3.8947640342581518,0.13518543964317067
3.0996680000000003,3.913200353998615,0.13486520750169464
3.102008,3.933638774485495,0.13449362934920372
3.1043520000000004,3.9454171656806496,0.13433412064444322
3.106688,3.9587783487416406,0.13416023610401073
3.109024,3.9812188699749367,0.13373860097021298
3.111372,4.004730326394873,0.13328478286060225
3.113716,4.028521322068528,0.13280709642687263
3.1160680000000003,4.052312317742184,0.13232750588512
3.118408,4.075684004535259,0.13189109356435785
3.1207520000000004,4.10077825282103,0.13142500504799587
3.1231,4.12093713405419,0.13109233779822746
3.12544,4.140676706406769,0.13080454747320747
3.127788,4.158414178012931,0.13057036228471347
3.1301360000000003,4.172659304805456,0.13046540077501448
3.1324680000000003,4.192259107531174,0.13020616847253344
3.134812,4.205573068763923,0.13011953329147394
3.1371640000000003,4.219306338877251,0.12999656361900042
3.1395,4.234110544177218,0.129841353034428
3.1418480000000004,4.24654056167843,0.12970414249444967
3.144188,4.25496637768681,0.12966466538815713
3.146536,4.261669632202492,0.12964921960331477
3.14888,4.27172546190495,0.12953462677695557
3.1512200000000004,4.2847145579136034,0.1293512891240845
3.153576,4.298122962802837,0.12913248207777547
3.155904,4.305944374333401,0.12902373757536018
3.158252,4.313905555490826,0.12890426634815613
3.1605920000000003,4.320004405528694,0.12881941067193223
3.162936,4.326522564447142,0.12869853349501936
3.1652760000000004,4.332668636313252,0.1285472109046658
3.1676200000000003,4.338302851500165,0.12837734370755546
3.169972,4.345939167433495,0.12816141031382458
3.172312,4.35255177000843,0.127909806609471
3.174656,4.358512746277307,0.12765047525095627
3.177,4.363822096240125,0.12738653017153936
3.17934,4.364196079150332,0.127230645649281
3.1816760000000004,4.366060306127758,0.12700787043764306
3.1840200000000003,4.366201971612487,0.12680742074128024
3.186364,4.367554341910716,0.12656687117604828
3.188708,4.372631374448058,0.12626115380220032
3.191052,4.379058881425757,0.1258999059864467
3.193392,4.39070129470979,0.12541265611223645
3.195728,4.3949869313142145,0.1251151650409913
3.198068,4.399412337545498,0.1248061698220807
3.200412,4.399042146351029,0.12458879153788216
3.2027520000000003,4.399603120716339,0.1243546658756765
3.205092,4.401235030268288,0.12409453604977982
3.2074360000000004,4.403937875006874,0.12380603900136185
3.2097800000000003,4.406221410864882,0.12355283856219074
3.21212,4.411438213029084,0.12324322130448748
3.21446,4.417725950379924,0.12290795173791992
3.2168080000000003,4.42014925586479,0.1226456529340781
3.219148,4.420151151722659,0.12246060995393555
3.2215,4.4212239827671675,0.12224800958944804
3.223844,4.4204344826921185,0.1220669243419285
3.226184,4.420715917803708,0.12185728931755672
3.228528,4.423930619221492,0.12158828383669154
3.2308640000000004,4.429799047691752,0.12128511820057755
3.233212,4.433665375415594,0.12102549103940832
3.235556,4.429151213101432,0.1209055113466919
3.237908,4.42463705078727,0.12078517946646829
3.240248,4.412766111793498,0.12084456591609648
3.242592,4.400523085747389,0.12087534492306162
3.2449320000000004,4.38828005970128,0.12090543400028363
3.247268,4.3841852062676985,0.12074859130319637
3.249616,4.378228021714562,0.12062294290107639
3.2519600000000004,4.368406405295449,0.1205717799874092
3.2543,4.357793392943419,0.12052401797919308
3.256648,4.346668523912192,0.12045648160642114
3.258992,4.329397583014854,0.12053013850597509
3.2613320000000003,4.309984771744238,0.12065787581226203
3.263668,4.292574061220041,0.12074517018214917
3.266016,4.277025681815399,0.12080201571784505
3.2683720000000003,4.261337532783897,0.12086948213788301
3.270708,4.24751171487195,0.1209042197974875
3.273048,4.235548228079562,0.12090650099969223
3.275396,4.225586842033591,0.12086280699344423
3.2777320000000003,4.212831959308284,0.12086415203316608
3.280076,4.199937306956116,0.12087785681683508
3.2824160000000004,4.193560813522398,0.1207838238034475
3.284764,4.188255255275317,0.12066183382903731
3.2871,4.187373207401651,0.12041680148499553
3.289444,4.189936282513378,0.12013174782172299
3.291792,4.193430523184884,0.11983207572531922
3.294128,4.1904991527365585,0.11969852448015678
3.296468,4.18835917822115,0.11956078352416805
3.298812,4.189152470011938,0.11936414778105799
3.301156,4.191808092922282,0.11913700899181393
3.3034920000000003,4.197396982138821,0.1188536866378944
3.305836,4.206058907288416,0.11849762989169242
3.308184,4.219144342811425,0.11802543297852855
3.310516,4.235302814267488,0.1174880794128185
3.3128520000000004,4.2546740912834675,0.11687824385658047
3.3151960000000003,4.277118404232503,0.11621042905685375
3.317544,4.298771321248619,0.11555001342870648
3.319884,4.320703777518458,0.11487396749376519
3.322228,4.337421327481963,0.1143172494679479
3.3245760000000004,4.356280747818745,0.11371249853946298
3.326912,4.379284139275221,0.11302479966233951
3.329264,4.401356365171918,0.1123544511774898
3.331608,4.425290922188173,0.11166459509754738
3.333952,4.447083608831151,0.11102688233916683
3.336288,4.467293503608293,0.11039466855473186
3.338632,4.488574333572071,0.1097462535679314
3.34098,4.513999134655545,0.10901364312627833
3.3433200000000003,4.543567906858713,0.10820380795811406
3.345664,4.568992707942186,0.10747460962386654
3.3480040000000004,4.593486343465882,0.10676370699535664
3.3503480000000003,4.6158381086163,0.10610703354632711
3.352684,4.640052204886275,0.10543113727757805
3.355028,4.660634186715752,0.10486483091626302
3.357368,4.683078499664788,0.10428913986369856
3.359704,4.7013788414941295,0.10379584007989637
3.362048,4.7136728810842214,0.10340316807601016
3.364392,4.725827151047452,0.10302207343454269
3.366728,4.7356997810105455,0.10269548953454385
3.369064,4.751066856533691,0.1022541299297174
3.371408,4.764943687989617,0.1018670600726663
3.373748,4.774676548325851,0.10155698246905853
3.376092,4.789344775714695,0.10117986207463958
3.378432,4.8010797367973455,0.10084606278541344
3.380776,4.813745863439774,0.10050174051713404
3.383112,4.828274321201759,0.1001384256262813
3.385448,4.839869512657549,0.09981770115477676
3.387792,4.848391668180283,0.09954849537074688
3.3901320000000004,4.852769852583323,0.09935058692363109
3.3924760000000003,4.862223173665836,0.09907319611417979
3.39482,4.873399056241045,0.09878842344449205
3.3971600000000004,4.884574938816255,0.09850426650014499
3.3995,4.894028259898767,0.0982318947575677
3.401844,4.902829954675221,0.0979487971337309
3.4041880000000004,4.9065565127722035,0.09774487603338394
3.406528,4.907629343816711,0.0975576618301905
3.408868,4.911775210794275,0.09732077931570869
3.411208,4.9120566459058645,0.09713090796549721
3.413552,4.913548785830953,0.0969110836453647
3.4158920000000004,4.911548580942405,0.09677107559640162
3.418228,4.909967684934439,0.09660145227914005
3.420572,4.911739364113248,0.09636471268868763
3.422908,4.907784280306527,0.09619497226692024
3.4252520000000004,4.9058312972462215,0.0959972969201647
3.4275960000000003,4.906951350118971,0.0957548023705473
3.42994,4.907931633364863,0.09552308424293086
3.4322800000000004,4.910122621424254,0.09526342106674646
3.43462,4.913524314297141,0.09497561722711989
3.43696,4.918136711983527,0.09465964439963574
3.4393,4.921026548177217,0.0943534789125302
3.44164,4.92326475806485,0.09403924188355156
3.4439840000000004,4.925502967952483,0.09372526457877554
3.446324,4.923736976347283,0.0934616297159554
3.448668,4.9229021503018595,0.09318921936169823
3.451004,4.921415697950378,0.09290479325054542
3.453352,4.925795778211289,0.0925498141344058
3.4557,4.931898419964894,0.09218973816545119
3.4580520000000003,4.944798759890668,0.09175196342573942
3.460396,4.958630265376222,0.0913084735398977
3.46274,4.9708789789959384,0.090861114716622
3.465084,4.981265361496098,0.09042957089608579
3.46742,4.986297068063066,0.09008658572067355
3.469768,4.993051336122731,0.08973747045955216
3.472112,5.000876539369033,0.08937442826156078
3.4744520000000003,5.004837310749362,0.08905465345306779
3.476796,5.00907762138341,0.08871824073551487
3.47914,5.01331793201746,0.08838286028597855
3.481488,5.020631278584566,0.0880102251015393
3.48382,5.031017661084727,0.0876017406768492
3.486164,5.040984734704305,0.08722140273008326
3.488516,5.046668067577331,0.08690475449007372
3.49086,5.05076860858452,0.08658340870191528
3.4932,5.061946387017599,0.0861764356570487
3.495544,5.073543474331258,0.08574371394738485
3.497888,5.09007592869753,0.08526168244957043
3.500228,5.106608383063802,0.08478654082659698
3.502572,5.121558045564236,0.08431038448773126
3.5049200000000003,5.13199164989264,0.0838602126877185
3.507256,5.1425650238479035,0.08340459818506613
3.5096,5.157794225602058,0.082920363199978
