Time,Force,Position
2.7226599999999994,0.053402175671936856,0.0
2.7249919999999994,0.0477359553659273,0.0
2.72734,0.0402074039403611,0.0
2.72968,0.03374978770143342,0.0
2.732028,0.030365207395561138,0.0
2.734372,0.02483875671641179,0.0
2.736712,0.016239270104207056,0.0
2.7390599999999994,0.008710718678640855,0.0
2.7413919999999994,0.003184267999491505,0.0
2.743732,0.0016620188131758575,0.0
2.7460759999999995,0.0,0.0
2.748424,0.0,0.0
2.75076,0.0012427099325952268,0.0
2.753104,0.0023456502383302435,0.0
2.755452,0.0034485905440652604,0.0
2.757788,0.004551530849800277,0.0
2.760128,0.004723305595756973,0.0
2.762472,0.004723305595756974,0.0
2.764812,0.004723305595756974,0.0
2.7671519999999994,0.004723305595756974,0.0
2.769492,0.004723305595756974,0.0
2.7718479999999994,0.004723305595756974,0.0
2.774188,0.004723305595756974,0.0
2.776532,0.004723305595756974,0.0
2.778872,0.004723305595756974,0.0
2.781216,0.004723305595756974,0.0
2.783556,0.004723305595756974,0.0
2.7859,0.004723305595756974,0.0
2.78824,0.004723305595756974,0.0
2.790588,0.004723305595756975,0.0
2.7929319999999995,0.004723305595756975,0.0
2.795272,0.004723305595756975,0.0
2.797616,0.0034805956631617473,0.0
2.799952,0.0023776553574267304,0.0
2.8023,0.0012747150516917132,0.0
2.80464,0.0001717747459566962,0.0
2.806984,0.0,0.0
2.809324,0.0,0.0
2.811668,0.0,0.0
2.814012,0.0,0.0
2.816352,0.0,0.0
2.8187,0.0,0.0
2.821044,0.0,0.0
2.823396,0.0,0.0
2.825736,0.0,0.0
2.82808,0.0,0.0
2.830424,0.0,0.0
2.8327599999999995,0.0,0.0
2.835108,0.0,0.0
2.837452,0.0,0.0
2.839804,0.0,0.0
2.842144,0.0,0.0
2.844492,0.0,0.0
2.84684,0.0,0.0
2.84918,0.0,0.0
2.8515239999999995,0.0,0.0
2.853872,0.0,0.0
2.856212,0.0,0.0
2.858556,0.001102940305735017,0.0
2.860904,0.005278916544525416,0.0
2.86324,0.010805367223674764,0.0
2.86558,0.015400652343045792,0.0
2.8679239999999995,0.01785406708913976,0.0
2.870272,0.018165611461956666,0.0
2.872608,0.018477155834773572,0.0
2.8749519999999995,0.018477155834773572,0.0
2.8773,0.02107034020772775,0.0
2.879636,0.02273235902090361,0.0
2.881988,0.022732359020903606,0.0
2.884328,0.02273235902090361,0.0
2.886668,0.02360298190116136,0.0
2.889,0.027406871087614276,0.0
2.891344,0.028557033221592445,0.0
2.893692,0.02855703322159244,0.0
2.896036,0.030638360915348935,0.0
2.898376,0.035932494169021015,0.0
2.90072,0.04015569223605456,0.0
2.903064,0.0442391206762279,0.0
2.9054,0.04586913437030726,0.0
2.907744,0.04735937843752643,0.0
2.910088,0.0462884432508879,0.0
2.912432,0.04721960881066622,0.0
2.914776,0.05336568067677698,0.0
2.917116,0.06379549328944187,0.0
2.9194559999999994,0.07529624108874527,0.0
2.9218,0.08510643251444874,0.0
2.9241399999999995,0.09404600105989447,0.0
2.9264839999999994,0.1069897710981739,0.0
2.928832,0.12545999181560266,0.0
2.931172,0.14500114771966996,0.0
2.933516,0.16059864481042416,0.0
2.935852,0.17247147966206502,0.0
2.938188,0.18592710637954216,0.0
2.940532,0.20160383041763597,0.0
2.9428719999999995,0.21319712601555643,0.0
2.94522,0.2195755153071445,0.0
2.947564,0.22530227829267463,0.0
2.949904,0.23116881090506497,0.0
2.952248,0.2394567531444528,0.0
2.954592,0.245882364264284,0.0
2.9569399999999995,0.25151657945119704,0.0
2.959288,0.25393798907819454,0.0
2.961632,0.24956170053302337,0.0
2.963972,0.2411812104950185,0.0
2.966316,0.23280072045701364,0.0
2.968656,0.2264223311654256,0.0
2.970992,0.21739021482136278,0.0
2.9733399999999994,0.20714739366380128,0.0
2.975684,0.19317991026712647,0.0
2.978024,0.17735009575089503,0.0
2.9803679999999995,0.16473308679457913,0.0
2.982712,0.15476980489073805,0.0
2.985052,0.14494629261375713,0.0
2.987392,0.13419161477699793,0.0
2.9897399999999994,0.12557880731351576,0.0
2.99208,0.11989926615622878,0.0
2.994428,0.11780461761119487,0.0
2.9967679999999994,0.1127767027599658,0.0
2.999112,0.10360481678904282,0.0
3.001456,0.09151298536320208,0.0
3.003792,0.08142325468377817,0.0
3.006144,0.07347539437763134,0.0
3.0084919999999995,0.06925219631059779,0.0
3.010828,0.06689132936312088,0.0
3.013172,0.06345952722900544,0.0
3.0155199999999995,0.06038649129595006,0.0
3.017848,0.060246721669089856,0.0
3.0201959999999994,0.05588375397519609,0.0
3.02254,0.05138101665444213,0.0
3.024884,0.04766967526660627,0.0
3.027228,0.043818564251910205,0.0
3.029572,0.03810512211765749,0.0
3.0319199999999995,0.0333228455431831,0.0
3.034248,0.028400799341848502,0.0
3.036592,0.02333898351365369,0.0
3.038936,0.017346002125680555,0.0
3.041284,0.013243565260622071,0.0
3.0436239999999994,0.017986253284522996,0.0
3.045968,0.03329662769007978,0.0
3.048312,0.057671123558795834,0.0
3.050648,0.091402600995669,0.0
3.052992,0.13421152074697887,0.0076733781970098665
3.055332,0.18423555169316877,0.015198749879243231
3.0576799999999995,0.23840165790118337,0.022973506376246587
3.0600239999999994,0.29750123530394074,0.0309219360244316
3.062364,0.36266576176759996,0.0387629269143119
3.064712,0.4288993275600284,0.04689656258265298
3.067056,0.5056400370545923,0.05482085081005071
3.0694,0.5826583899450073,0.06320289373611122
3.07174,0.6633069614180493,0.07167038287414344
3.0740799999999995,0.7483771474066363,0.08018279347105278
3.076416,0.8370775519778504,0.08876755832410149
3.0787559999999994,0.9287565488256335,0.0974188472096491
3.0811,1.0246248427634845,0.10601007580630227
3.0834399999999995,1.1271038434184009,0.11432146162205975
3.0857839999999994,1.2341914500439657,0.12251196439141285
3.088124,1.3394810599452325,0.13071108522384647
3.090476,1.4388115894354923,0.13904398339026072
3.0928119999999995,1.5310195555294892,0.14743144298668667
3.095156,1.6177349719213021,0.15574442915557324
3.097496,1.6950934067449581,0.1640574153244598
3.099844,1.760441132947982,0.16487633694461087
3.102188,1.821367244635461,0.1656898243878623
3.104532,1.8802931514343926,0.16610526751140123
3.106872,1.9313523207323857,0.1665198226478615
3.109216,1.9749168395817787,0.16711911150558842
3.111564,2.013408117609569,0.1675578089875918
3.113904,2.046826154815756,0.16799650554483936
3.116256,2.0836912108652053,0.16778235869333055
3.1186,2.117298135384365,0.16753553013053446
3.12094,2.1480662372538157,0.16719950959050464
3.123276,2.176926682033336,0.16672385332849313
3.1256119999999994,2.205322491961902,0.166096146362557
3.12796,2.229389235173539,0.1655520971126581
3.130304,2.243632466108196,0.16549591608366201
3.132656,2.253406860699064,0.16553612312312266
3.135,2.261366145998619,0.16554327564466823
3.13734,2.2708628971936364,0.16527460590522386
3.139684,2.281058496522955,0.16488352771753742
3.142024,2.289531534359577,0.16456692295739037
3.144372,2.297864802569338,0.16427398492998824
3.14672,2.3089915674584356,0.16382545544976324
3.149056,2.3182560012279754,0.16348663568868851
3.1514,2.3260301909302967,0.16330009394593303
3.153744,2.337529042871731,0.162921102213375
3.156092,2.3516816218656396,0.16242624353995988
3.158436,2.3723523597779965,0.16161923589206212
3.16078,2.388599587316939,0.16112742609895608
3.1631279999999995,2.4019135485496865,0.16081272092514162
3.165464,2.417788689036292,0.16030658090143324
3.1678039999999994,2.4319412680302013,0.15986615106316263
3.170152,2.4423691847849973,0.15959247168495985
3.1724879999999995,2.4512143096739565,0.15936504576268345
3.1748319999999994,2.460990600122695,0.1590968445817726
3.177176,2.476773192810683,0.15850717601604258
3.17952,2.4899946062448137,0.15810290119553727
3.181864,2.50465904191792,0.15768885326223422
3.184208,2.5183450902030056,0.1574423506650989
3.186564,2.530820433674592,0.1572849115514816
3.1888999999999994,2.545018338638875,0.15707268517034553
3.191244,2.5610785747227136,0.15678339794007412
3.1935839999999995,2.580863473045667,0.15634761923465315
3.1959279999999994,2.599437666555121,0.15599551812572826
3.198264,2.6160097593181577,0.1557359978870806
3.200608,2.630579751334778,0.15557366196628825
3.202952,2.645429282605119,0.15537675327675948
3.205292,2.651618784583734,0.1555712477862016
3.207636,2.659810387308766,0.1556633368801361
3.209976,2.6698643211533555,0.15568069925633882
3.21232,2.676705449438029,0.15587774436922472
3.214656,2.685408908842259,0.15599960940494642
3.217,2.7015616927247152,0.15582985587170617
3.219336,2.7195768077267286,0.15559922861708606
3.2216759999999995,2.7385230882885203,0.1553396502391218
3.224016,2.7514630666110604,0.1553487997981818
3.22636,2.7681277071727153,0.15520590065512788
3.228704,2.788005153294285,0.15491646486143693
3.23104,2.81109540497577,0.15447907334022978
3.2333799999999995,2.8372586925903107,0.15391516775576233
3.2357239999999994,2.862351045018213,0.15341177665570035
3.238064,2.8846499007667803,0.15300787452063794
3.2404079999999995,2.9012219935298176,0.15282083438746552
3.2427519999999994,2.917794086292855,0.15262919667286273
3.245092,2.940652020548863,0.15216011961206943
3.2474359999999995,2.967653925924565,0.15151336070485638
3.2497799999999994,2.991722564994072,0.15098389823513023
3.25212,3.02221681518341,0.15013894786127957
3.254464,3.0521992086935503,0.14927412888832814
3.2568079999999995,3.079667644778076,0.14848562407179686
3.2591519999999994,3.1104886560493776,0.14754595996145098
3.261488,3.1394473362011226,0.14667604053922773
3.263824,3.158163195195306,0.14614597647170546
3.266172,3.1720834567637377,0.14578773217281327
3.268516,3.1842811568394733,0.14547561682875698
3.270856,3.2027646984081795,0.1448931242923704
3.2732,3.2214352314319887,0.1442100692750867
3.275544,3.2313059655372136,0.1438472574592952
3.277884,3.235170397403187,0.14371342216462962
3.280228,3.23302852702991,0.14380655083235805
3.282572,3.229303864790796,0.14392378560795
3.284916,3.229303864790796,0.14392378560794997
3.28726,3.232516670350712,0.1437835980371489
3.289604,3.234006914417931,0.14368341674165055
3.291948,3.2276285251263435,0.14387224210563512
3.294288,3.21831686952856,0.14416122982388352
3.296624,3.209144983557637,0.1444368994644967
3.298972,3.1966205223999378,0.14486613256363778
3.301316,3.1853067660557377,0.14522644031405407
3.30366,3.1718511393382607,0.14568363913466212
3.306,3.15439131112795,0.1462828295497743
3.308344,3.135348691051803,0.14691222378348143
3.310696,3.124034934707603,0.14727940179839472
3.313032,3.115794214296458,0.14752569330417584
3.3153799999999998,3.106622328325535,0.14780302005151832
3.317736,3.095588111235055,0.14812842375898486
3.320072,3.0841345852639948,0.14849735044787105
3.322416,3.0748229296662117,0.14878764897384014
3.324764,3.067420827016228,0.1489298849657695
3.327096,3.064302465112799,0.14888422001355722
3.3294359999999994,3.060252937649591,0.14886942478728774
3.33178,3.0511754953351544,0.14896412769834996
3.334128,3.040095952274301,0.14913658009073527
3.33646,3.0323689844002235,0.14914677968230697
3.338804,3.027715052459201,0.14903086726551198
3.341152,3.023340659771899,0.14887836710369676
3.343488,3.022039303017653,0.148598705693723
3.345832,3.023019586263544,0.14820478214473867
3.348172,3.020507524695798,0.14799084071781735
3.350524,3.017204067195135,0.14778791171222852
3.35286,3.0159027104408884,0.14750393740934226
3.355204,3.0164636848061988,0.14715547252614383
3.3575599999999994,3.0134397665592556,0.14691536517653958
3.359896,3.008833056446476,0.14669986710525088
3.36224,3.003434950400779,0.1464963549650361
3.36458,2.9917510028621104,0.14657877740652167
3.3669199999999995,2.976994019390387,0.14679744837083986
3.36926,2.967032633344415,0.1468337685106991
3.3716,2.957443334350781,0.14691162998182983
3.373952,2.947714265730286,0.1470035519833876
3.3762919999999994,2.9409184634159864,0.14698337140367262
3.378632,2.9382194103931383,0.1468802549848567
3.3809759999999995,2.9376622277435662,0.14667725172371432
3.383324,2.9377566714000523,0.14648234611454045
3.385664,2.9406446117358733,0.14620032915983394
3.388004,2.9479088406168663,0.14581630361582212
3.390356,2.951960263937943,0.14557287578356717
3.392696,2.9595965798712736,0.14524496803216122
3.39504,2.9683038309912417,0.1448649582882624
3.397384,2.9836690106565182,0.1442752403357988
3.3997199999999994,2.99596115438874,0.14380135990528525
3.40206,3.0081135284941007,0.14334576195844934
3.4044039999999995,3.0206379896517994,0.14292936360775343
3.406744,3.035396868981392,0.14250305108014952
3.409084,3.0538804105500983,0.14196768194853146
3.411428,3.0794411895446934,0.1411489425667227
3.413768,3.1099373355919013,0.1401560664864248
3.4161199999999994,3.137639984959774,0.13926918458430845
3.418464,3.167204965447203,0.13833694824319415
3.420812,3.1924862051880774,0.13757214735495818
3.423164,3.214834178622758,0.13690626311601745
3.425516,3.237741230564879,0.13619058468007159
3.42786,3.2602289736264187,0.13553557402216462
3.4302,3.278852284821985,0.13500593373469097
3.432544,3.291609063405161,0.13466962815848754
3.434888,3.295845582323472,0.13458855184866925
3.4372359999999995,3.300221870868643,0.13448907495082207
3.439576,3.2945876556817297,0.1347423651347349
3.441916,3.2960306779207054,0.13474041377376508
3.44426,3.2954715994132644,0.13480557880151212
3.4466,3.2986371831449364,0.1347703113098429
3.448952,3.3025941628095272,0.13472643802969508
3.451292,3.308832782474255,0.1345849824951817
3.4536359999999995,3.315211171765843,0.13443062681018914
3.455984,3.3203788562439325,0.13433449799406805
3.45832,3.3244756055353832,0.13427964971163642
3.46066,3.325778858147499,0.13429547106299022
3.463012,3.3275939674388124,0.13433460082806392
3.465348,3.3274069759837093,0.13443444084416092
3.467688,3.334436991581355,0.1342990916173948
3.470032,3.346262604604753,0.13403711449625388
3.47238,3.3545958728145147,0.13392014788981121
3.47472,3.3622775147182185,0.13379600258362354
3.4770639999999995,3.3726128836743974,0.13361866703003525
3.479412,3.3868126844965496,0.1333323127090739
3.481748,3.4059478523713134,0.1328939380693734
3.484096,3.428156056179133,0.13236016633759093
3.4864359999999994,3.4609338422264773,0.1314561104371237
3.488784,3.484632290101516,0.13084972509203727
3.491116,3.5044663061105816,0.13034792294190328
3.493456,3.5196444943207545,0.12995515851216471
3.495804,3.5378957184639837,0.12947591031871405
3.498156,3.555076007420574,0.1290415506291647
3.500496,3.5674606989514124,0.1287284416887554
3.50284,3.5819872608555285,0.1283493092881663
3.505192,3.5975847579462825,0.12794080642158484
3.5075319999999994,3.6130424854101766,0.12754771153118868
3.5098759999999998,3.628128125821733,0.12711918849859008
3.512212,3.644424471046788,0.1266428035468883
3.514556,3.655785449219232,0.12630507973556196
3.516896,3.6650045570183982,0.12604142391872925
3.51924,3.6743634344444245,0.12575973843811458
3.521584,3.684513707803369,0.1254738979905254
3.5239199999999995,3.6949435204160337,0.12516233652448114
3.526268,3.7015089011627254,0.12494224224475205
3.528608,3.7107280089618913,0.12468231087608476
3.530952,3.7187364119475586,0.12447356102552726
3.533296,3.7172461678803397,0.1245476746215749
3.535636,3.714964527880202,0.12462959131920473
3.53798,3.7160354630668406,0.12459565421829191
3.540324,3.7223213045598116,0.12440591832126746
3.542672,3.7219492175074738,0.12436918902780808
3.545008,3.7199943385893004,0.12434347419149523
3.547352,3.7201813300444035,0.12424943252425413
3.549696,3.7157124937006154,0.12425473362088664
3.552036,3.708450160677492,0.12431829395255264
3.55438,3.7002566620945907,0.1244021386294176
3.556724,3.6920631635116896,0.12448458516237225
3.559068,3.683869664928788,0.12456505736435115
3.561412,3.676467562278804,0.1246411744337451
3.563756,3.6677622070167053,0.12469909789942676
3.5661,3.661338491754743,0.12467598094999814
3.56844,3.6544029198135832,0.12462902766510502
3.570784,3.6443943119393687,0.12466778714227554
3.5731199999999994,3.6383899055579874,0.12460223236751475
3.575468,3.6230738435788234,0.124732562432741
3.577808,3.606035220106962,0.12488716468724226
3.580152,3.5944910421951546,0.12486061835719595
3.582496,3.5900241017092354,0.12463781008734723
3.58484,3.5811336508499014,0.12456610743612835
3.587192,3.5731743655503467,0.12447180939796162
3.589536,3.568288116183847,0.12429085798778083
3.591876,3.5649846586831844,0.12409944671465709
3.594224,3.566476798608272,0.12380032844304492
3.5965599999999998,3.5707624352126954,0.12344395961701878
3.598904,3.5738373670036196,0.12313176216255427
3.601256,3.5790541691678213,0.12275343836853436
3.603592,3.583200036145384,0.12240820412076085
3.605932,3.585343802376531,0.12211553144020366
3.608276,3.589908978234675,0.12173118588048487
3.610628,3.5929839100255996,0.12141946936111683
3.612968,3.5920546403236906,0.12121103531588834
3.615316,3.588703960994784,0.1210972421767584
3.617672,3.5874951520391547,0.12091569767893744
3.620004,3.5873572782701633,0.12070227908541421
3.622348,3.5940171026733414,0.12032182947328016
3.624692,3.598674826330102,0.11999039487790944
3.627036,3.599979974800087,0.1197761874342608
3.629372,3.598212087337017,0.11965100937688228
3.631712,3.600867710247361,0.11937518316102712
3.634056,3.598168657224513,0.1192689656691066
3.636396,3.59719216569436,0.11913933901318313
3.63874,3.5935619471117333,0.11905194134519687
3.64108,3.584996361476494,0.11908576882628832
3.643424,3.5721470350947,0.11925432655886518
3.645764,3.56451261501924,0.11927000308737633
3.648104,3.555807259757141,0.11931695944000945
3.650456,3.545891199681542,0.11941305593246146
3.652792,3.5341128084863884,0.1195506523979078
3.655136,3.516188345425123,0.11986357287745032
3.65748,3.5001262134834135,0.12014260017697959
3.659832,3.489930614154096,0.12027354554580592
3.662176,3.48481015150425,0.12026268250644337
3.664524,3.4836938903472374,0.12014641665462601
3.666872,3.4805755284438082,0.12008165726924003
3.669216,3.47610669210002,0.12007762394603856
3.67156,3.475362517995345,0.12000028008035339
3.673904,3.479693480570142,0.11978891903924582
3.676256,3.485747004637636,0.11955731058781657
3.6786,3.4893791190781323,0.11941876523810227
3.680948,3.495292873518766,0.11919986785358448
3.683288,3.500415232026481,0.11898828779815362
3.685628,3.507399921653753,0.11873982358997977
3.687972,3.512382510534608,0.11853792039743447
3.690312,3.5191348827364024,0.11822602841254169
3.692652,3.521743283818503,0.11803487276807828
3.695,3.5231409800871054,0.11789052185311852
3.697344,3.5285428778485413,0.1176429584890173
3.699692,3.5388801426625895,0.1172730215935017
3.702032,3.5572258104623047,0.11669734160217783
3.704376,3.5769219527023783,0.11606323274277959
3.706724,3.594615994196036,0.11549326274327446
3.70906,3.608166064569999,0.1150422866662387
3.711404,3.6155700630778522,0.11475671450610819
3.713748,3.6228342919588443,0.1144854977539206
3.716096,3.630378060093557,0.11418636555081164
3.7184399999999993,3.6400636986015473,0.11383116784532979
3.720784,3.6486784019228984,0.11351400812227364
3.723128,3.6555705437515535,0.11321847757159982
3.725464,3.6667464263267626,0.11280866122523689
3.727808,3.674057877035998,0.11247165840414015
3.730148,3.6770855869986794,0.11225191877512304
3.732496,3.681835858454057,0.11201497130686337
3.734832,3.690730101029129,0.1116709599135071
3.737172,3.7010673658431763,0.11133394687424054
3.73952,3.709262760283947,0.11105162296932625
3.74186,3.719739794724855,0.11069496230218732
3.7441999999999993,3.727423332486428,0.11039037099745401
3.746544,3.734175704688223,0.11010683122115116
3.748884,3.7367841057703233,0.10993100523720963
3.7512279999999993,3.7392527372255637,0.10976998921954662
3.753568,3.7386483327477498,0.10968135012898242
3.755912,3.7392546330834344,0.1095503612675932
3.758252,3.740931868605756,0.10938899047395818
3.760596,3.7436800393147176,0.10919914192659602
3.762936,3.748430310770095,0.10896686832075195
3.765276,3.747034510359363,0.10888017665321309
3.767612,3.741634508455796,0.10888165769210852
3.769952,3.7370259024851475,0.10888067717523581
3.772296,3.728133555767945,0.10899186243706291
3.774636,3.725759367969191,0.10899770878491043
3.77698,3.726458216103492,0.10893112009623408
3.7793199999999993,3.7252947331182362,0.10889548687696185
3.781664,3.7249226460658993,0.10885804828433188
3.784008,3.726412890133118,0.10879117113994827
3.786348,3.7369824723726435,0.10852944523215427
3.788692,3.74620158017181,0.10832228289708377
3.791036,3.7579346453965905,0.10809841488037189
3.793376,3.7691086321139307,0.1079275407267664
