Time,Force,Position
4.502608,0.2364264132579217,0.0
4.504987999999999,0.23763711807142046,0.0
4.507384,0.23698549176536254,0.0
4.509772,0.23205012471275055,0.0
4.512152,0.224693348033141,0.0
4.514548,0.21412376579361592,0.0
4.516935999999999,0.20355418355409083,0.0
4.519316,0.1954985587401803,0.0
4.521716,0.18525096474904565,0.0
4.524104,0.17700547150432785,0.0
4.526484,0.16568694232655468,0.0
4.528888,0.15236631240236465,0.0
4.531272,0.1381145169183963,0.0
4.533656000000001,0.12433212911895558,0.0
4.536052,0.10714706732879206,0.0
4.538436000000001,0.0949474713951876,0.0
4.54082,0.08540160251405787,0.0
4.543224,0.07413317214023173,0.0
4.545612,0.0685915047519357,0.0
4.547992000000001,0.06798520441625171,0.0
4.550395999999999,0.06858960889406646,0.0
4.552784000000001,0.07040471818537994,0.0
4.555164,0.07715519452930544,0.0
4.5575600000000005,0.08618731087336823,0.0
4.559948,0.09563873609801163,0.0
4.562332,0.10695249244221172,0.0
4.564731999999999,0.11505344322649617,0.0
4.567116,0.12650696919755644,0.0
4.569495999999999,0.13735896766650582,0.0
4.571899999999999,0.1490023620683733,0.0
4.574287999999999,0.16171669165687935,0.0
4.576663999999999,0.17536218680516374,0.0
4.57906,0.1899388475132264,0.0
4.581443999999999,0.20604820128317827,0.0
4.583824,0.2218355668047397,0.0
4.586216,0.2298439697904071,0.0
4.588604,0.23319654497718295,0.0
4.591004,0.2364093505370985,0.0
4.593396,0.23696842904453935,0.0
4.595784,0.2336630756860067,0.0
4.598164000000001,0.23021795270061385,0.0
4.60056,0.23049749195433425,0.0
4.602948,0.2247707289688041,0.0
4.605328,0.22435142008822345,0.0
4.607732,0.2281214082977107,0.0
4.61012,0.23514952803748737,0.0
4.612500000000001,0.250650685613886,0.0
4.614903999999999,0.2627048243470225,0.0
4.617292000000001,0.2782494120359258,0.0
4.619672,0.29714467905373565,0.0
4.622071999999999,0.32269597875898476,0.0
4.624459999999999,0.3541119152187549,0.007459657611083147
4.626836000000001,0.38831945249999084,0.015370986343811812
4.629239999999999,0.4276002306028297,0.02316942024452902
4.631627999999999,0.4748875158334667,0.030836166166253648
4.634012,0.5331145744980971,0.038507683647937774
4.636407999999999,0.598277205103887,0.04628678174251293
4.6387920000000005,0.6674421413446415,0.0542606989119325
4.641171999999999,0.7454049806461124,0.06209624966691099
4.643572000000001,0.8330968885680775,0.06984653295286601
4.645956,0.923859936565229,0.07775336686534355
4.6483360000000005,1.0118275920251765,0.08599217330838263
4.650740000000001,1.1118059561057556,0.09405071261344924
4.653128000000001,1.214902682089764,0.10197220017631539
4.655507999999999,1.3201412784470494,0.1097592823155
4.657908000000001,1.429011989244831,0.11734193477825924
4.660296000000001,1.5355085122438585,0.1249039547270588
4.662675999999999,1.6487574074446807,0.13224084286325408
4.66508,1.7650340126081843,0.13940349310465552
4.667468,1.87903087362942,0.14650475177150177
4.669848,1.9842298315899392,0.1536553655551099
4.672243999999999,2.082772756863019,0.15332746335920386
4.674632000000001,2.1747994190755207,0.1526418003433101
4.677012,2.253604667853891,0.15235007364636863
4.679416,2.323984100623883,0.15226701148247787
4.681804,2.3868688829452736,0.15227860505928506
4.684184,2.4465427555646184,0.15210914760480093
4.686579999999999,2.505147588855194,0.15161827528670133
4.688967999999999,2.5576082461375282,0.15119752320822852
4.691348,2.599129129985869,0.15100578260297917
4.693752,2.6385100393188017,0.1505876223205085
4.69614,2.6826884419353556,0.1496007533978052
4.69852,2.717277545558275,0.14878767359658243
4.700915999999999,2.740647336493481,0.1482414989847681
4.703303999999999,2.757685959965342,0.14784343764637375
4.705688,2.764249444854164,0.14778799351752422
4.708084,2.7671354893321167,0.14776825152536072
4.710471999999999,2.7611291870928665,0.14804104443237098
4.712852,2.7480928692559696,0.14852017387635677
4.715248000000001,2.7304007236201815,0.1491761785869313
4.717636000000001,2.7143385916784726,0.14969513960203099
4.720015999999999,2.697485063803846,0.15022780954882314
4.72242,2.6875690037282483,0.15045299809113588
4.724808,2.6840785547724817,0.15035521456187367
4.727188,2.683149285070572,0.15008312405521174
4.729583999999999,2.6829188635029637,0.149704887933232
4.731968,2.6800347148828814,0.1494141543959238
4.734363999999999,2.6703528680906294,0.14941556163941222
4.73676,2.6578775246190434,0.1495227194142722
4.739144,2.6527589578270665,0.14925541386899904
4.741524,2.647128534355892,0.14896140578529082
4.743919999999999,2.63390901677963,0.14895189639361836
4.746307999999999,2.6162659888299546,0.14919436417885248
4.748688,2.602347623119392,0.14930697851687863
4.7510840000000005,2.589080883714887,0.14942793033406587
4.753472,2.578467871362858,0.14947137007507863
4.755864000000001,2.5707881253170233,0.14937942025898163
4.75826,2.5665535022565815,0.14918301962755848
4.760648,2.5668349373681716,0.1488255555731661
4.763028,2.5719119699055133,0.148262957742044
4.765432000000001,2.575358988748775,0.14784292638819227
4.76782,2.577315763524818,0.14754053999782
4.770199999999999,2.5748490279274465,0.14749435861120122
4.772592,2.573033918636133,0.14745406867396119
4.774979999999999,2.5674469252774634,0.14767033151360978
4.777364,2.5662362204639644,0.14774708251335922
4.779768000000001,2.566608307516302,0.14779534683287873
4.7821560000000005,2.5707050568077525,0.1476989200661062
4.78454,2.5768039068456203,0.14750918339458954
4.786936000000001,2.576477145763657,0.14766269486678027
4.78932,2.5735892054278353,0.14799181091865704
4.7917000000000005,2.569211021024795,0.14845278351739943
4.7941,2.570839138861005,0.14862928159029076
4.796488,2.573398422256993,0.1487673727806879
4.798868000000001,2.57688887121276,0.1488671233363619
4.801271999999999,2.583312586474722,0.14883173027689375
4.803660000000001,2.5894567624829636,0.14884428712388767
4.806039999999999,2.5943902336777063,0.14893561124039598
4.808439999999999,2.595459273006475,0.14919220171781547
4.810824,2.59359504602905,0.14957526367819127
4.813204000000001,2.59466408535782,0.14983032476162594
4.815604,2.6009480309929214,0.14982635977435396
4.817988,2.607651285508603,0.1497595054744176
4.820368,2.615425475210924,0.1496416670723069
4.822763999999999,2.6279027145403795,0.14924120603762572
4.825151999999999,2.6357241260709436,0.14901877526870852
4.827548,2.6439648464820884,0.1487402730159904
4.829943999999999,2.654626976520231,0.14832234811781808
4.832331999999999,2.6624956098790378,0.14800180884124833
4.834712,2.6737168184246207,0.1475003595366075
4.837116,2.6882906021569797,0.14682362032944182
4.839504,2.7091502273823096,0.14584618373277042
4.841884,2.727076586301444,0.14498174108089
4.84428,2.745002945220579,0.14412755494761337
4.846667999999999,2.7613465122738776,0.143299452433494
4.849048,2.775036352274701,0.14255571396113503
4.851444000000001,2.782719890036274,0.1420583358022958
4.853832000000001,2.790822736678428,0.14150008194296768
4.856211999999999,2.798646044066861,0.140974645182474
4.858616,2.8084714522017107,0.1403624245044932
4.861003999999999,2.81364103253767,0.1399163996249228
4.863384,2.814666641753934,0.13966862674169625
4.865779999999999,2.8127589846640033,0.13953991797737916
4.868168000000001,2.8096406227605737,0.13948507293402104
4.870547999999999,2.805963182349704,0.13950779858675152
4.872952,2.8032169074986117,0.13949872412827755
4.87534,2.798188992647383,0.13961314377602999
4.877724000000001,2.791810603355795,0.13981313542595714
4.88012,2.7879461714898213,0.1399588429591164
4.882508,2.7827312651834886,0.14019281500356578
4.884888,2.7724412221976844,0.14064352899914173
4.887292,2.7601490784654628,0.14116106645420434
4.88968,2.756005107345769,0.14133449962528302
4.892056,2.7492074091736,0.14157813662700522
4.894451999999999,2.744272042120988,0.1417620227961668
4.896836,2.7411990061879328,0.14188680977731055
4.899215999999999,2.744551581374709,0.14172282472854275
4.901612,2.7468332213748456,0.14160681013900256
4.904,2.747532069509147,0.14151042764474378
4.906392,2.7499534791361437,0.14137525689547256
4.908796000000001,2.7562393206291147,0.14109965066636798
4.911184,2.7634563276818644,0.14079087134519538
4.913563999999999,2.774258227346867,0.14037327808001532
4.91596,2.7834773351460336,0.13997884956813647
4.918348,2.786178284026751,0.13979755342212963
4.920728,2.7870169017879127,0.13967858360672805
4.923124,2.789997389922351,0.13945575011809602
4.925508000000001,2.791115546937233,0.1392971225274497
4.927887999999999,2.7885090417130014,0.13926762844652338
4.930292,2.7848316013021313,0.13929228027504553
4.93268,2.7870206935036514,0.13907737482962143
4.935055999999999,2.7849260449586173,0.13907684659932731
4.93746,2.774683223801056,0.13943654045256942
4.939848,2.7701671656290245,0.13957659563704117
4.942228,2.7647199418972153,0.1397464635062221
4.9446200000000005,2.758201782978767,0.1399655346798576
4.947008,2.746189178500266,0.1404621027975263
4.949404,2.7380410058877382,0.14080748307135038
4.9518,2.7365507618205185,0.14091553297417267
4.954188,2.7293337547677696,0.14122798016394406
4.956568000000001,2.7210458125283816,0.14158779001352212
4.958971999999999,2.7121062439829355,0.14194179276598873
4.961359999999999,2.7046569195047088,0.1421814271163617
4.96374,2.699861322078957,0.1423487298992988
4.9661360000000005,2.706007393945068,0.14209788839822315
4.968524,2.716017897677152,0.14171177521727352
4.970903999999999,2.7248176965957382,0.14139456739445583
4.973312,2.7364109921936586,0.14099259451515325
4.975695999999999,2.7538708204039692,0.1403789996604905
4.978076,2.7746832238010555,0.13960724559354443
4.980472000000001,2.7904204905186702,0.13903869375323227
4.9828600000000005,2.8125833683561154,0.13818469949916473
4.985239999999999,2.8346064765667007,0.13732352810546647
4.987636,2.849552347351397,0.1367512184669647
4.990024,2.8642186788823727,0.13621668996028025
4.992407999999999,2.8816785070926834,0.135604867537224
4.994804,2.904493011236186,0.13474642715651114
4.997192,2.925305414633273,0.13398607519706313
4.999572000000001,2.9443952565376637,0.13329351613148233
5.001972,2.9694914006813047,0.13238427025660118
5.004356,2.9955187103847236,0.13145285691506783
5.006736,3.024339516767478,0.13044936683209105
5.009143999999999,3.051809848709873,0.1295489419202615
5.011528,3.0763469143460727,0.12874791227816818
5.013908000000001,3.0925960377428847,0.12827334298919713
5.016311999999999,3.1068430603932797,0.12787171904949476
5.018700000000001,3.1202986871107568,0.127474478137777
5.02108,3.130821047522038,0.12716973999406658
5.023479999999999,3.1373392064404864,0.12699967000138215
5.025864,3.141715494985658,0.12691373000053932
5.028248,3.151306689837161,0.1266428446725061
5.030644000000001,3.1586162446885275,0.1264751443216029
5.033032,3.174213741779282,0.12603585291041722
5.035411999999999,3.1947466059226484,0.12544541518036884
5.037808,3.216490174879513,0.12480284924127506
5.040196,3.234509081597265,0.12425708815539392
5.042579999999999,3.2503861179417397,0.12379522982744945
5.044976,3.2630503487262983,0.12344295874877162
5.047364,3.2703599035776643,0.12328038361341255
5.0497440000000005,3.2736652569361975,0.12324034384213568
5.05214,3.2738975743616745,0.12329819169904459
5.054528,3.2689149854808193,0.12353280131813968
5.056924,3.260999130293769,0.12385295690649432
5.05932,3.2562960806666346,0.12405537008005614
5.061707999999999,3.2526639662261387,0.12422222634564467
5.064088,3.2488920821587817,0.12440566630620976
5.066483999999999,3.2459115940243435,0.12458332668240331
5.068872000000001,3.2421397099569877,0.12477062729270527
5.071256,3.2415806314495472,0.124836668222945
5.073651999999999,3.2400903873823275,0.12492661668219326
5.076040000000001,3.2333852370087763,0.1251999908461861
5.07842,3.2237468203290294,0.1255631411552279
5.080824,3.206751626969673,0.12617559439078943
5.083212,3.1888252680505387,0.12680187336387677
5.085592,3.1695484346910443,0.12749740405307297
5.087987999999999,3.1490608965180527,0.12826178250103565
5.090372,3.131506624651255,0.12892911150604017
5.092756,3.1194467983445113,0.12938401591749066
5.095152000000001,3.1136728135307377,0.12962443863610637
5.09754,3.107619289463244,0.12990020270743544
5.099919999999999,3.1057097365154442,0.13003630339565433
5.102320000000001,3.109015089873977,0.1299926205821266
5.1047080000000005,3.1173955799119826,0.1297861622146374
5.107087999999999,3.1216320988302932,0.12972034138803631
5.109484,3.1281502577487412,0.12956060330780464
5.111872,3.1318749199878546,0.12946727501691485
5.1142520000000005,3.133877020734271,0.12940345080723112
5.116652,3.141466114839358,0.12919986094255376
5.11904,3.143840302638112,0.12917859127844725
5.121435999999999,3.1491477567430612,0.12907131300473748
5.123832,3.1548745197285917,0.1289109748516713
5.12622,3.1627431530873986,0.12866676293420581
5.1286000000000005,3.1710310953267866,0.12836863813922467
5.131,3.1782481023795364,0.12811287671525853
5.133388,3.1846737134993677,0.1278621748970498
5.135771999999999,3.1955228349926132,0.12742784205430863
5.138176,3.204369855739442,0.1270679747421193
5.140564,3.2080019701799385,0.12689695238565424
5.142944,3.209631983874018,0.12679236390565293
5.145339999999999,3.2155457383146517,0.126532359883419
5.147728000000001,3.2217390320090056,0.1262467772540252
5.150108,3.230074196076637,0.1258965931628844
5.152504,3.2342653890245736,0.12567988201381936
5.154888,3.243391949025122,0.12532926735726918
5.157272000000001,3.252238969771951,0.12501332143508292
5.159668,3.2709567246240034,0.12444354353127951
5.162051999999999,3.2984742783946417,0.12366952355751802
5.164436,3.324269270672583,0.12294175754110204
5.166831999999999,3.356070565189775,0.12205430111988574
5.1692160000000005,3.384938593400773,0.12124411998718897
5.1716,3.4183226797838016,0.12035930446161974
5.173996000000001,3.4512874572862504,0.1195163587513192
5.1763840000000005,3.4859747962813943,0.11865177074445996
5.17878,3.5190793434107026,0.11778787492630946
5.181176000000001,3.552463429793731,0.11688630975630765
5.1835640000000005,3.5834261065497626,0.11609297282495752
5.185943999999999,3.609453416253182,0.11541070120949833
5.188348,3.6386935315165156,0.1146244240347322
5.190735999999999,3.6637896756601567,0.11395176690216063
5.193116,3.6859525534976023,0.11336423234398602
5.19552,3.704762856148272,0.11289601919596312
5.197908,3.7175668565596913,0.1125879509032619
5.200291999999999,3.731441792157749,0.11224494772096379
5.202696,3.737587864023859,0.11207603697256895
5.205080000000001,3.742942539957052,0.11191216468816235
5.207464,3.7376350858521024,0.11199124491382638
5.209868,3.7243192287614852,0.11226156459727231
5.212251999999999,3.7072787094317556,0.11259983644987238
5.214632,3.68730492379583,0.1129972625447305
5.217036,3.6702644044661,0.11332730687632432
5.219424,3.6516410932705337,0.11365511341479159
5.2218,3.636510126888603,0.11386134988448214
5.224207999999999,3.6204479949468946,0.11408247042273362
5.226592,3.6061084244978825,0.11428657942941907
5.228972000000001,3.5937709547952874,0.11444335957150507
5.231375999999999,3.583715125092829,0.11452608020255299
5.233764000000001,3.5798053672564816,0.1144606436442567
5.236144,3.5726828038602187,0.11448342775180187
5.23854,3.5687730460238716,0.11441801336569611
5.240924,3.563652583374026,0.1143962156092008
5.243304,3.560394451843736,0.11434191340768575
5.2457080000000005,3.5608609825525597,0.11422187592078537
5.248096,3.560396347701605,0.11411802977480869
5.250476000000001,3.5667294110228185,0.11386831898548624
5.2528760000000005,3.574924805463589,0.11358802811641086
5.255264,3.5879157973301115,0.11320701234351105
5.257643999999999,3.5990444580770777,0.11285274854656614
5.260047999999999,3.610824745130101,0.1125048761958797
5.262435999999999,3.6248866721832624,0.11208515341757885
5.264811999999999,3.6340132321838112,0.11177835002345965
5.267216,3.6428602529306398,0.11150292159598407
5.269603999999999,3.647703072184636,0.11132577998011704
5.271979999999999,3.6537565962521295,0.11110581086294677
5.274376,3.6618122210660395,0.1108416135525245
5.27676,3.670799011439729,0.11056621571820617
5.27914,3.677783701067001,0.11033884222568768
5.281535999999999,3.6877016570004684,0.11006136514490958
5.283924000000001,3.703765684800046,0.10964680003851848
5.286304,3.724765079652236,0.10914620819456114
5.288708,3.7509793808107585,0.10853220201719746
5.291092000000001,3.775750659730305,0.10790924057623986
5.293472,3.7969370460375984,0.10733054932301399
5.295876,3.817332036411974,0.10674758720956104
5.298264,3.838937731599848,0.10613992833268075
5.30064,3.8588208652950247,0.10555372173788712
5.3030360000000005,3.880566330109759,0.10495115889404648
5.30542,3.9076664708576865,0.10422185084630708
5.3078,3.9351859204861936,0.10345112794973904
5.3102,3.9597721038085054,0.1027401852283611
5.312588,3.991435524556707,0.10189404773511268
5.314968,4.0204452182524335,0.10107284978046262
5.317372000000001,4.048104437507801,0.10029220298003003
5.3197600000000005,4.0716196856434745,0.099597442106092
5.322139999999999,4.090339336353396,0.09897955044363076
5.324536,4.105846181503402,0.09844083619205114
5.326924,4.119350925906992,0.09793779029013043
5.3293040000000005,4.121122605085802,0.0976392899813029
5.3317,4.117679377958277,0.09745663428070479
5.334088,4.107438452658585,0.09738628336589221
5.336468,4.091330994746502,0.0974119748884016
5.338872,4.074943997580699,0.09746216460033998
5.34126,4.060419331534454,0.0974879242219385
5.343640000000001,4.0498988669810405,0.09743876365754116
5.346036,4.0343032657481555,0.09748499629271198
5.348419999999999,4.016426024515133,0.09759278111495641
5.350804,3.99403272511008,0.0977457988698768
5.353208,3.9713598864513058,0.09791435437225318
5.355596,3.94947844372545,0.09808218421257628
5.357976000000001,3.928108857678792,0.09827480579237034
5.3603760000000005,3.9008727390197437,0.09855459132018145
5.36276,3.8756387211071126,0.09879970705457253
5.36514,3.8518949472616995,0.09898891473444796
5.367547999999999,3.8350886412153153,0.09906031809179994
5.369932,3.8273616733412377,0.0989685627403072
5.372311999999999,3.821776575840437,0.09883107453486752
5.374715999999999,3.8191247446458316,0.09864830434687692
5.377103999999999,3.826995273862508,0.09831715148661403
5.379484,3.835936738265823,0.09796130444884651
5.381880000000001,3.846600764161834,0.09759289639026353
5.3842680000000005,3.8560540852443466,0.09725467082015707
5.386647999999999,3.8665783415134976,0.09689180299111476
5.389044,3.8738897922227333,0.09659769857363196
5.391432,3.8767777325585544,0.09641306469199978
5.3938120000000005,3.8793861336406548,0.09625094972935198
5.396216000000001,3.8830654699093943,0.09606227589670654
5.398604000000001,3.8871168932304716,0.09591019026191652
5.400983999999999,3.8839513094987996,0.09590985325518378
5.403388,3.882508287259824,0.09589676900051126
5.405772000000001,3.8833469050209857,0.09582072153764279
5.408151999999999,3.884837149088205,0.09575697117165839
5.41056,3.8860478539017036,0.09571889778981164
5.412944,3.888841350581038,0.09568147709565185
5.415328000000001,3.883905983528426,0.09576894680440472
5.417724,3.8696117390497875,0.09605223477236038
5.420112,3.856248660130927,0.09631902717826048
5.422492,3.8408834804656506,0.09662157065128052
5.424896,3.8217936385612594,0.09696464157310333
5.42728,3.8029833359105902,0.09728159411801542
5.429664000000001,3.7810999973268644,0.09766441344376976
5.43206,3.7681562272885856,0.09788747888133437
5.434443999999999,3.7560038531832243,0.09810996981449724
5.436828,3.7512082557574726,0.09817847246170136
5.439223999999999,3.7554919965040265,0.09808653034912904
5.441611999999999,3.7662013483704118,0.09785901433417447
5.443992,3.7821256065431297,0.09753534308545965
5.446396,3.8026131447161218,0.09710270591553992
5.448779999999999,3.83231979068828,0.09650209465185114
5.451164,3.860164105540882,0.09592695212314875
5.45356,3.8829332837140114,0.09543878761477434
5.455947999999999,3.9099862026336947,0.09486739528407566
5.458328,3.9399723878595743,0.09426058918745864
5.460732,3.9731713786453686,0.09360311817668468
5.46312,4.012236902043553,0.0928597559656227
5.4655000000000005,4.055306626934572,0.09204363966560734
