Time,Force,Position
7.647763999999999,0.060589353392808624,0.0
7.65016,0.05651923776166684,0.0
7.652543999999999,0.04830515101083113,0.0
7.654923999999999,0.04023083388685564,0.0
7.65734,0.03322745194951868,0.0
7.659727999999999,0.02529290445240339,0.0
7.662111999999999,0.018708831395647062,0.0
7.664515999999999,0.013335463152389473,0.0
7.6669,0.009172799722630623,0.0
7.669283999999999,0.0060810714795103025,0.0
7.6716799999999985,0.002989343236389983,0.0
7.674068,0.0009685501799081952,0.0
7.676451999999999,0.0009685501799081952,0.0
7.678847999999999,0.0009685501799081952,0.0
7.681235999999998,0.0009685501799081952,0.0
7.683619999999999,0.0009685501799081952,0.0
7.686015999999999,1.8692310064937565e-05,0.0
7.6884039999999985,1.8692310064937565e-05,0.0
7.690787999999999,1.8692310064937565e-05,0.0
7.693183999999999,1.8692310064937565e-05,0.0
7.695575999999999,0.0,0.0
7.697956,0.0,0.0
7.700351999999999,0.0,0.0
7.702743999999999,0.0,0.0
7.705124,0.0,0.0
7.707523999999999,0.0,0.0
7.709911999999999,0.0,0.0
7.712292,0.0,0.0
7.714691999999999,0.0,0.0
7.717075999999999,0.0,0.0
7.71946,0.0,0.0
7.721855999999999,0.0,0.0
7.724243999999999,0.0,0.0
7.726623999999997,0.0,0.0
7.7290199999999984,0.0,0.0
7.731403999999998,0.0,0.0
7.733784,0.0,0.0
7.736196,0.0,0.0
7.738583999999999,0.0,0.0
7.740963999999998,0.0,0.0
7.743368,0.0,0.0
7.745756,0.0,0.0
7.748131999999998,0.0,0.0
7.750536,0.0,0.0
7.752924,0.0,0.0
7.755303999999999,0.0,0.0
7.7577,0.0,0.0
7.760088,0.0,0.0
7.762467999999998,0.0,0.0
7.764859999999999,0.0,0.0
7.767243999999998,0.0,0.0
7.769639999999999,0.0,0.0
7.772043999999997,0.0,0.0
7.774432000000001,0.0,0.0
7.776812,0.0,0.0
7.779208000000001,0.0,0.0
7.781592,0.0,0.0
7.783975999999999,0.0,0.0
7.786367999999999,0.0,0.0
7.788755999999999,0.0,0.0
7.791135999999998,0.0,0.0
7.79354,0.0031842760417373785,0.0
7.795923999999999,0.008370652829891606,0.0
7.798303999999998,0.010623763311850665,0.0
7.800708,0.016089679353725315,0.0
7.803096,0.021695365022460174,0.0
7.805475999999999,0.029163381810751676,0.0
7.807880000000001,0.03663139859904318,0.0
7.810264,0.04610151613375153,0.0
7.812643999999999,0.05743396478801653,0.0
7.815048000000001,0.06983734862892005,0.0
7.817436000000001,0.08224073246982357,0.0
7.819815999999999,0.08956897963125486,0.0
7.822219999999998,0.09303279492671267,0.0
7.824604000000001,0.09303279492671267,0.0
7.826983999999999,0.09303279492671267,0.0
7.82938,0.09303279492671268,0.0
7.831768,0.09303279492671268,0.0
7.834147999999999,0.09303279492671268,0.0
7.836551999999997,0.09303279492671268,0.0
7.838936,0.09303279492671268,0.0
7.841315999999999,0.0898485188849753,0.0
7.843719999999998,0.08466214209682107,0.0
7.846108000000001,0.08240903161486202,0.0
7.848488,0.07694311557298736,0.0
7.850887999999998,0.07133742990425249,0.0
7.853272,0.06386941311596099,0.0
7.855656,0.05640139632766949,0.0
7.858059999999998,0.04693127879296114,0.0
7.860447999999998,0.03559883013869614,0.0
7.862828,0.02319544629779262,0.0
7.865223999999998,0.01079206245688909,0.0
7.867611999999998,0.0034638152954577996,0.0
7.869992,0.0,0.0
7.872395999999998,0.0,0.0
7.874783999999998,0.0,0.0
7.87716,0.0005777708175057783,0.0
7.879567999999999,0.0005777708175057782,0.0
7.881951999999998,0.0005777708175057782,0.0
7.884332000000001,0.0005777708175057783,0.0
7.8867319999999985,0.0005777708175057783,0.0
7.889115999999998,0.0005777708175057783,0.0
7.891496,0.0005777708175057783,0.0
7.893892000000001,0.0005777708175057783,0.0
7.896280000000001,0.0005777708175057783,0.0
7.89866,0.0005777708175057783,0.0
7.901056,0.0005777708175057783,0.0
7.903444,0.0005777708175057783,0.0
7.905823999999999,0.0005777708175057783,0.0
7.908227999999998,0.0005777708175057783,0.0
7.910616000000001,0.0005777708175057783,0.0
7.912996,0.0005777708175057784,0.0
7.915399999999998,0.0005777708175057784,0.0
7.917783999999997,0.0005777708175057784,0.0
7.920168,0.0005777708175057784,0.0
7.922563999999998,0.0005777708175057784,0.0
7.924951999999997,0.0,0.0
7.927332,0.0013691667504238884,0.0
7.929728000000001,0.0058113694339031585,0.0
7.932116000000001,0.012395442490659488,0.0
7.934495999999999,0.01897951554741582,0.0
7.936892,0.028636624537227533,0.0
7.93928,0.040575373527176516,0.0
7.941672,0.05465599289040256,0.0
7.9440719999999985,0.06966777781340693,0.0
7.946455999999998,0.08654189385596794,0.0
7.948836,0.10327624027166873,0.0
7.9512399999999985,0.11800848594095267,0.0
7.953627999999998,0.13288050123709683,0.0
7.956008000000001,0.14668158134660245,0.0
7.958403999999998,0.1575493951499129,0.0
7.960791999999998,0.16878929600556083,0.0
7.963172,0.18082059279412688,0.0
7.965575999999999,0.1917809543960544,0.0
7.9679639999999985,0.19980804969178673,0.0
7.970344000000001,0.2038309434946854,0.0
7.972739999999998,0.20864523323050213,0.0
7.975127999999998,0.21022802509633837,0.0
7.977508,0.2057858224128591,0.0
7.979903999999998,0.19920174935610274,0.0
7.982291999999997,0.19261767629934642,0.0
7.984672,0.1829605673095347,0.0
7.987075999999998,0.1710218183195857,0.0
7.989463999999998,0.15695799540855537,0.0
7.991844,0.14194621048555098,0.0
7.994247999999999,0.12507209444299,0.0
7.996635999999999,0.10833774802728921,0.0
7.999016000000001,0.09366762478057486,0.0
8.00142,0.08151145895947506,0.0
8.003808,0.07028645869815359,0.0
8.006187999999998,0.06506776067608266,0.0
8.008583999999999,0.061618845974951306,0.0
8.010971999999999,0.05644736978112353,0.0
8.013351999999998,0.055000555826409045,0.0
8.015747999999999,0.05806980004372593,0.0
8.018135999999998,0.0653755631793538,0.0
8.020516,0.07147062150148292,0.0
8.02292,0.08059149392842428,0.0
8.025307999999999,0.09876317500949337,0.0
8.027687999999998,0.12037997907595531,0.0
8.030088,0.14651284131444864,0.0
8.032475999999999,0.17543920023227694,0.0
8.034855999999998,0.20208391914996796,0.0
8.037256,0.22456787049576935,0.0
8.039644,0.2502814238536821,0.0
8.042023999999998,0.27906801314465013,0.0
8.044424,0.3099964728088953,0.0
8.046812,0.34100257967743103,0.0
8.049191999999998,0.367213089120215,0.0
8.051587999999999,0.3943547641227772,0.0
8.053975999999999,0.4181438639385637,0.0
8.056359999999998,0.44044271968713095,0.0
8.058751999999998,0.4621824969282574,0.0
8.061139999999998,0.4820599430498273,0.0
8.063523999999997,0.5028685547311754,0.0
8.065919999999998,0.5286597552933787,0.0
8.068307999999998,0.5568723654825796,0.0
8.070688,0.5849924278731633,0.0
8.073083999999998,0.6092952802260168,0.00521073397532173
8.075471999999998,0.626568116981224,0.005210733975321729
8.077867999999999,0.6386732692583422,0.005210733975321729
8.080264,0.646262363363429,0.00521073397532173
8.082652,0.6556212407894554,0.00521073397532173
8.085035999999999,0.6678208367230598,0.00521073397532173
8.087432,0.6750850656040522,0.00521073397532173
8.08982,0.6774139274324328,0.00521073397532173
8.092199999999998,0.674667652581341,0.00521073397532173
8.094596,0.672573004036307,0.00521073397532173
8.096983999999999,0.6727599954914105,0.00521073397532173
8.099367999999998,0.6742974613868727,0.00521073397532173
8.101764,0.6781165672824724,0.00521073397532173
8.104152,0.6815635861257345,0.00521073397532173
8.106535999999998,0.6895738849692712,0.00521073397532173
8.108932,0.6949304567603329,0.005210733975321731
8.111324,0.6933967825806091,0.005210733975321731
8.113699999999998,0.686787971721413,0.005210733975321731
8.116095999999999,0.6781770601158001,0.005210733975321731
8.118479999999998,0.666632882203992,0.005210733975321731
8.120871999999999,0.6500135676127118,0.0
8.123268,0.6357684408201859,0.0
8.125651999999999,0.6204523788410213,0.0
8.128031999999997,0.6090007487278303,0.0
8.130423999999998,0.6000630760402538,0.0
8.132811999999998,0.5952221526441281,0.0
8.135192,0.5919640211138386,0.0
8.137604,0.5893575158896068,0.0
8.139987999999999,0.593688478464404,0.0
8.142367999999998,0.5981592106660617,0.0
8.144763999999999,0.6051439002933335,0.0
8.147147999999998,0.6078448491740515,0.0
8.149528,0.6082641580546321,0.0
8.15192,0.6049115828678564,0.0
8.154304,0.5982064324943048,0.0
8.156683999999998,0.5970882754794231,0.0
8.15908,0.6028603644353272,0.0
8.161463999999999,0.6083529141375107,0.0
8.16384,0.6146368597726125,0.0
8.166256,0.623574532460189,0.0
8.16864,0.6359573281331584,0.0
8.171019999999999,0.6523443252989615,0.005160214902951969
8.173435999999999,0.6749699421294922,0.010091433665742465
8.175819999999998,0.6950343797061653,0.015182060734809572
8.1782,0.7136085732156193,0.020376837971519672
8.180612,0.729901126724936,0.025673455183934837
8.183,0.7508495080331445,0.030752060803962873
8.185375999999998,0.7755225515804662,0.03578081791087327
8.18778,0.7945613799408748,0.04109098979223752
8.190168,0.8142518346073411,0.046391346570569134
8.192547999999999,0.8331508933408895,0.0515934244149891
8.194948,0.8576369454331078,0.05670015233931408
8.197332,0.884125098271743,0.06176330020991184
8.199711999999998,0.9189011933497657,0.066598237960036
8.202107999999999,0.9546084539875671,0.07147127574033689
8.204491999999998,0.9863115131325346,0.07641747187533449
8.206872,1.0182941115312225,0.08125918159560784
8.209267999999998,1.0518595017957468,0.08613834168302434
8.211652,1.088218388739606,0.09092385487854851
8.214032,1.1285814771762988,0.09553626630689252
8.216428,1.174159471919324,0.09994491734037333
8.218812,1.2165246611024338,0.09927698630347379
8.221191999999999,1.2568877495391269,0.09882435048532234
8.223607999999999,1.2980422339087379,0.09829808689391384
8.225991999999998,1.3416181279053463,0.09757353920052736
8.228372,1.3882670578350103,0.09668912772872036
8.230784,1.4321224910853387,0.09600764559103442
8.233168,1.4753262980296098,0.09533738659949283
8.235564,1.5220224497875168,0.09434855178395687
8.237967999999999,1.5657853352392286,0.0934596167036276
8.240355999999998,1.6061956455041646,0.09278609961968054
8.242736,1.6459543294630425,0.09214732634742678
8.24514,1.6855732437950606,0.09156026603418456
8.247523999999999,1.7251921581270786,0.09108658133839258
8.249904,1.770957144325207,0.09041827396865634
8.252308,1.8177930657099743,0.08968228287285772
8.254696,1.8615559511616862,0.0890918397281387
8.257072,1.9048069799342007,0.08844865060189336
8.259476,1.9455440512811,0.08786388016010784
8.261864,1.9812059859485276,0.08749262717034757
8.264243999999998,2.010721848749844,0.08736574963528483
8.266648,2.04158818599152,0.0871398882102796
8.269032,2.073804997673554,0.08684930329073501
8.271411999999998,2.1096539237960847,0.08638078260872548
8.273816,2.1433609795453386,0.08601209254197403
8.2762,2.174693847495838,0.08565188148097451
8.278579999999998,2.2063062547000576,0.08526429652697853
8.280984,2.238198201157998,0.08485656322772836
8.283372,2.271021313175716,0.08445289825913903
8.285751999999999,2.3071970003802105,0.0839209267551115
8.288148,2.344862931651924,0.08327181618861337
8.290531999999999,2.379875135871163,0.08266641448551025
8.292911999999998,2.4133045482245654,0.08205287987712276
8.295316,2.435932060912965,0.08167153109145381
8.297704,2.4489683787498615,0.08148222289061464
8.300083999999998,2.4621444662136183,0.08127542484243644
8.302488,2.4746689273713174,0.0810395804766076
8.304872,2.4862622229692377,0.08081903172516192
8.307251999999998,2.4947824826341027,0.08067686100298292
8.309648,2.503442511925828,0.08051288867572406
8.312035999999999,2.5093090445382185,0.08038588458548303
8.314415999999998,2.5142444115908305,0.08027423155261287
8.316811999999999,2.5095885837919387,0.08034767448205253
8.319195999999998,2.499857619313575,0.08054921058891985
8.321576,2.4904061940889313,0.08070911206688179
8.323979999999999,2.4794645247970686,0.08095927364283227
8.326367999999999,2.4645186540123727,0.08130455880659875
8.328748000000001,2.448501848041038,0.08167174414743288
8.331152,2.429039919084311,0.08204660584944586
8.333535999999999,2.407715659008026,0.08243903003548297
8.335916000000001,2.3896042044916577,0.08272575072929045
8.33832,2.3713529803484286,0.08302936866810467
8.340708,2.355383396205337,0.08324627943321058
8.343087999999998,2.3483533806076915,0.08328779178085506
8.345488,2.3393212642636283,0.08337897244851768
8.347876,2.3314998527330646,0.08341624716106155
8.350255999999998,2.328753577881973,0.08333516184563454
8.35266,2.3292201085907958,0.08316545189442028
8.355048,2.3326199056058154,0.08294187753234811
8.357427999999999,2.336439011501415,0.08266408417792091
8.359824,2.34347092295693,0.08229096420612528
8.362212,2.349711438479527,0.08191027955794783
8.364591999999998,2.3636808177340707,0.08138526798378479
8.366988,2.3769985706825567,0.08082639899126653
8.369371999999998,2.3873830573248482,0.08032362343066649
8.371748,2.3953933561683844,0.07979305988779657
8.374151999999999,2.405405755758338,0.07920982890837322
8.376535999999998,2.410203249041959,0.07876447709632514
8.378912,2.41486097269872,0.0783369992784309
8.381308,2.4185875307957025,0.07792253513518882
8.383692,2.4212431537060466,0.07755244415891795
8.386071999999999,2.422036445496834,0.07720484543453165
8.388476,2.4194771621008457,0.07697504069140954
8.39086,2.4151953172121607,0.07675284746004675
8.393256000000001,2.4209239760555596,0.07631762942522578
8.39566,2.421577498219487,0.07599723319786654
8.398048,2.414222617397747,0.07584576102773814
8.400427999999998,2.402863535083173,0.07577456309943928
8.402832,2.391644222395459,0.0756833795955353
8.405216,2.3790744352673863,0.07565850116884995
8.407595999999998,2.3706486192590077,0.07553191446670594
8.41,2.3660872351166025,0.0753471183925336
8.412384,2.357521649481363,0.07523723400459634
8.414767999999999,2.3537516612718763,0.07506079128929644
8.417168,2.3529149393685844,0.07483744554777473
8.419556,2.357665210823962,0.07455845966180316
8.421935999999999,2.361624086346422,0.07427006469969556
8.42434,2.374802069668048,0.07379129652950142
8.426728,2.390494010415288,0.07332256079387543
8.429108,2.405626872655088,0.0729187394938652
8.431504,2.417546929334972,0.07260075333038966
8.433888,2.4311895475075525,0.07227723685092025
8.436267999999998,2.4457633312399114,0.07193963218243542
8.438664,2.4569845397854944,0.07170339142123999
8.441051999999999,2.4647134035174414,0.07159527802650599
8.443431999999998,2.4812420661679737,0.0713571716186892
8.445836,2.5054995925504535,0.071011501932877
8.448224,2.531200141171909,0.07069868051001779
8.450599999999998,2.5558297546067257,0.07041655925178743
8.452995999999999,2.5844635695343765,0.07006741238719645
8.455379999999998,2.6056008381555573,0.06990560318885247
8.45776,2.624456466776601,0.06981799223930392
8.460163999999999,2.6494581672637554,0.06961872093821064
8.462551999999999,2.6723179973776325,0.06947730918406396
8.464928,2.6939671226780106,0.0693777609684634
8.467336,2.7126829816721942,0.06932092557855751
8.469719999999999,2.7380567692116866,0.06920590314488204
8.472099999999998,2.7603575208181232,0.0691541158463536
8.474495999999998,2.781866876491641,0.06909411082178049
8.476883999999998,2.8079395121654342,0.06891846311584553
8.479264,2.837085183772283,0.06869432879206916
8.481667999999999,2.8683727257524083,0.0684298483409462
8.484055999999999,2.9038042388522274,0.06810330655252178
8.486435999999998,2.944590427885239,0.06767424929334825
8.48884,2.983654055425555,0.06724490321009102
8.491223999999999,3.01685115035348,0.06689664950627836
8.493603999999998,3.0459042741617113,0.06661899368405387
8.496004,3.0753767068505233,0.06629988983577481
8.498387999999998,3.10778240584553,0.0659561522703816
8.500771999999998,3.137394608161202,0.06563625519039179
8.503172,3.1759463790223204,0.06521413214980486
8.50556,3.215569085070077,0.06477659601715414
8.507939999999998,3.248766179998002,0.06445667417311467
8.510344,3.2807525701124285,0.0641676136002902
8.512732,3.3156722265330503,0.06385202673093304
8.515111999999998,3.354456314819645,0.06351008690113653
8.517516,3.388305036053629,0.06323222939057403
8.5199,3.4190807213545567,0.06299569831150176
8.522279999999999,3.4519982770287614,0.06273129891484565
8.524684,3.484496523822385,0.06251532294248799
8.527072,3.514713130615872,0.06234595108224418
8.529447999999999,3.5427878670360817,0.06221129969266068
8.531844,3.5659272364036796,0.06212517074533266
8.534227999999999,3.5907891672639733,0.0620514666174102
8.536607999999998,3.6176531988706846,0.06196046169356041
8.539012,3.645448396037174,0.06186638835536549
8.541395999999999,3.675525233203801,0.061729863339935034
8.543779999999998,3.7074644014899842,0.0615909643026138
8.54618,3.7364703034699724,0.061476698982406736
8.548568,3.766127831756019,0.06138268619530798
8.550943999999998,3.7912693018700336,0.061299175289760074
8.553339999999999,3.8156193760511297,0.061209520273691725
8.555723999999998,3.847465996538696,0.061023134353155664
8.558119999999999,3.8815942570263995,0.060797851671847467
8.560516,3.913068790461628,0.06057395895465765
8.562899999999999,3.9388165609113273,0.060380854616506364
8.565283999999998,3.961631065054831,0.06020598567901229
8.56768,3.985516504384973,0.06001592275075202
8.570063999999999,4.004326807035643,0.05987446467260651
8.572444,4.020483382633837,0.059732640924362104
8.574848,4.038269971926112,0.059535117176253406
8.577236,4.062482172338218,0.05926383934182192
8.579615999999998,4.087765307936961,0.058979231365839616
8.58202,4.106250745363536,0.058737459481292026
8.584404,4.122734082043696,0.058512988392671765
8.586787999999999,4.136423922044519,0.058295324830032205
8.589179999999999,4.147320265366007,0.05808630996929421
8.591567999999999,4.153421011261743,0.05790036630876646
8.593964,4.161663627530758,0.057690548645750454
8.596367999999998,4.171396487866992,0.05743964810959792
8.598751999999998,4.1781960818970285,0.057205808100982906
8.601132,4.185275215180787,0.056953732445633024
8.603531999999998,4.185137341411796,0.05676807736802123
8.605916,4.185558546150246,0.056544634625788986
8.608296,4.187981851635112,0.056309207004656775
8.610703999999998,4.195480293799451,0.05603715177291809
8.613087999999998,4.203118505590651,0.05575237411076499
8.615472,4.212898587755127,0.05544646068268982
8.617867999999998,4.227753806599075,0.0551040085808961
8.620252,4.242748795069885,0.054753078897474654
8.622632,4.2574642442869735,0.05442516744995794
8.625028,4.264031520891534,0.05416104042415152
8.627412,4.2715299630558725,0.05389673047038285
8.629791999999998,4.27995957077999,0.05362939280691002
8.632192,4.28759778257119,0.05335327097954446
8.63458,4.296446699175887,0.05305510994746099
8.636959999999998,4.305295615780585,0.052756197007409855
8.639364,4.314144532385283,0.052454548076480985
8.641748,4.317918312310508,0.052188012988921506
8.644127999999998,4.318479286675819,0.05195536182095735
8.646532,4.319971426600907,0.05172028535442493
8.64892,4.317319595406302,0.0515181969036497
8.651295999999999,4.315878469025195,0.05129381769732681
8.653703999999998,4.305869861150979,0.05115570224237245
8.656088,4.289063555104596,0.051043064798283154
8.658468,4.26718211237874,0.05096405514135188
8.660864,4.246371604839522,0.05087313066208928
8.663252,4.221556895807471,0.05080471518560907
8.665631999999999,4.1910154237898904,0.05074904784878962
8.668036,4.159263246958811,0.05071283741946971
8.670424,4.124577803821536,0.050688032469234326
8.672804,4.08989236068426,0.050663234046319276
8.6752,4.051342485681012,0.05065060135523544
8.677588,4.009719574744708,0.05066342377161785
8.679967999999999,3.967025728621765,0.05068678370894835
8.682364,3.9259146743646585,0.05072756245204466
8.684752,3.8857347856673305,0.05076562066318091
8.687131999999998,3.849698868089696,0.05076654626027451
8.689528,3.8148736553255613,0.050745890664968006
8.691911999999999,3.777254945882091,0.05072699049941201
8.694292,3.740567401998399,0.050705473798334545
8.696707999999997,3.703600318860987,0.050707999399010946
8.699092,3.667564401283353,0.05070788284712081
8.701471999999999,3.6358122244522733,0.050663037012737985
8.703875999999998,3.6079244794871665,0.05060308708513238
8.706264000000001,3.578174403402503,0.05054373748675791
8.708644,3.5465619961982835,0.05048322663803784
8.711047999999998,3.5140184234342864,0.050422763379137044
8.713432000000001,3.4821264769763456,0.05038509836689486
8.715816,3.450514069772126,0.05032112911958618
8.718219999999999,3.417970497008128,0.05025709999491486
