Time,Force,Position
6.693395999999999,0.015303212467392246,0.0
6.69578,0.022525632263241814,0.0
6.698175999999999,0.031610383178648026,0.0
6.700571999999998,0.0428370044673313,0.0
6.70296,0.05392385612915435,0.0
6.705339999999999,0.06501070779097742,0.0
6.707743999999999,0.07302452351974509,0.0
6.710128,0.0755857027736028,0.0
6.712507999999999,0.08345974887551026,0.0
6.714904,0.09333589572383458,0.0
6.717287999999999,0.10307227294529868,0.0
6.719672,0.11094631904720614,0.0
6.722075999999999,0.11574732921605822,0.0
6.72446,0.12269020975818737,0.0
6.726839999999998,0.12469772324770449,0.0
6.729243999999999,0.12670523673722162,0.0
6.731628,0.12604819768806347,0.0
6.734007999999998,0.12445999307912696,0.0
6.736415999999999,0.12380295402996878,0.0
6.738799999999999,0.11993310942089501,0.0
6.741179999999999,0.11378162481168398,0.0
6.743576,0.10655920501583442,0.0
6.745959999999999,0.0974744541004282,0.0
6.748343999999999,0.08624783281174493,0.0
6.750744,0.07516098114992188,0.0
6.753132,0.06407412948809883,0.0
6.755511999999999,0.05606031375933115,0.0
6.757908,0.05298727782627576,0.0
6.760295999999999,0.04511864446746857,0.0
6.762676,0.035242497619144254,0.0
6.765079999999998,0.02550612039768014,0.0
6.767464,0.020291214091347695,0.0
6.769844,0.0202912140913477,0.0
6.772247999999999,0.018149343718070636,0.0
6.774636,0.020663301143685177,0.0
6.777015999999999,0.021966553755800977,0.0
6.779419999999999,0.025137550230573687,0.0
6.781803999999998,0.03031064745176325,0.0
6.784183999999999,0.03334187429967576,0.0
6.78658,0.03343983484139309,0.0
6.788963999999999,0.03432919131602853,0.0
6.79136,0.03432919131602853,0.0
6.793763999999999,0.03432919131602853,0.0
6.796148,0.03432919131602853,0.0
6.798528,0.03432919131602853,0.0
6.800923999999999,0.03432919131602853,0.0
6.803307999999999,0.03432919131602853,0.0
6.805687999999999,0.032461447453371615,0.0
6.80808,0.03245603471027134,0.0
6.810467999999999,0.03245603471027134,0.0
6.812843999999999,0.03245603471027134,0.0
6.815259999999999,0.029796894914696323,0.0
6.817643999999999,0.02499588474584424,0.0
6.820023999999999,0.020194874576992154,0.0
6.822416,0.015673403661860486,0.0
6.824799999999999,0.012362637560227563,0.0
6.827179999999999,0.009191641085454847,0.0
6.829596,0.00401854386426528,0.0
6.831983999999999,0.0021996428572133046,0.0
6.834364,0.008574240433062857,0.0
6.836767999999998,0.02128000547225729,0.0
6.839156,0.04344071262132617,0.0
6.841535999999999,0.07016280391280033,0.0
6.843939999999999,0.10195813602587751,0.0
6.846324,0.13854716970683723,0.0
6.848703999999999,0.18300294088873492,0.008516333248007043
6.851107999999999,0.234254514384932,0.016939229228373754
6.853495999999999,0.2949556172479033,0.025063971766745692
6.855875999999999,0.3611020479848151,0.03336616541233903
6.858271999999999,0.4389796480886383,0.04119889887727587
6.860659999999998,0.5275174823727343,0.04876972123995352
6.863039999999999,0.6247134500906866,0.05625826943982188
6.865443999999999,0.7294966160558563,0.06374883225004147
6.867827999999999,0.8427055980294048,0.07109507666585184
6.870207999999999,0.9618264385857175,0.07838448511782932
6.872611999999999,1.084996806605238,0.08569561135388128
6.874999999999999,1.2074211046622139,0.09323701913285606
6.87738,1.3341744694361182,0.10074788712499504
6.879775999999999,1.4652552798995886,0.10815280340022132
6.882163999999999,1.595032837750943,0.11548731482516414
6.884543999999999,1.7208534159377074,0.12276837988230169
6.886947999999999,1.8406223659148468,0.129991754865915
6.889331999999999,1.9603459899216127,0.13708028419370943
6.891711999999999,2.081002675346026,0.14394379796280618
6.894116,2.2019407958820287,0.1506245211614795
6.896503999999999,2.314500322237896,0.1487638210439084
6.898884,2.420683355160045,0.1469462713986687
6.901279999999999,2.5162533757301637,0.14539280440101415
6.903667999999999,2.6058662117471436,0.14363623423621552
6.906052,2.6821650865313766,0.14236519016590857
6.908447999999999,2.7482230360159177,0.14130510179537326
6.910835999999999,2.804319599454486,0.14030891974520907
6.913215999999999,2.8515257120337214,0.13929204024716024
6.91562,2.8867211159923256,0.1385041587698566
6.918003999999999,2.915353035062107,0.1377637950530662
6.920383999999999,2.939283800362623,0.13699231279361823
6.922788,2.967313210812459,0.13584392233356377
6.925176,2.9894307626795302,0.13474108763673398
6.927556,3.0033548159637005,0.13380300431895806
6.929963999999999,3.0106681625308047,0.13299629930144027
6.932347999999998,3.0092289320075682,0.13241026424977154
6.934732,3.000759685886684,0.13201200677648536
6.937127999999999,2.985260424168155,0.1318023703721078
6.939515999999999,2.9592388020383433,0.1319616379279434
6.9419,2.9257678554303057,0.13234277786531476
6.944304,2.8912259736356294,0.13277590420485946
6.946687999999999,2.8536110559078978,0.13334614766723094
6.949068,2.814505894112947,0.13404122554385958
6.951475999999999,2.771676070078882,0.13489029242928366
6.95386,2.730056950858317,0.13566717681931395
6.956239999999998,2.6805691982789437,0.13684516649427084
6.958635999999999,2.633874942378906,0.13789086571799142
6.961023999999999,2.587040916852008,0.13896747272326435
6.963404,2.547144359124139,0.13972486594295655
6.965799999999999,2.509249902142687,0.14037531054247432
6.968184,2.4721468410941525,0.14101047387541024
6.970563999999999,2.4310395785527845,0.14178334634815126
6.97296,2.3917946471309732,0.14249175692186217
6.975347999999999,2.3545518164555794,0.14313207087541255
6.977728,2.322244352832797,0.14355972424793365
6.980123999999999,2.2998076233152385,0.14358042454691233
6.982507999999998,2.282026721596572,0.1434481520402125
6.984891999999999,2.2670393165572404,0.14321649902565747
6.987287999999999,2.2569872785705205,0.1427729607530362
6.989672,2.247586866889859,0.14233533169919338
6.992051999999998,2.2389778511421152,0.14188222959288588
6.994447999999999,2.2322311665139276,0.14135388034321736
6.996835999999999,2.229209144124854,0.14067699403851508
6.999232,2.232425741400508,0.13978192252895238
7.001635999999999,2.2358746561016396,0.1389655280586203
7.004023999999999,2.2499857008409134,0.13763641186194722
7.006403999999999,2.2576711344603555,0.13666480321206162
7.0088,2.269732856624969,0.13555922166506243
7.011188,2.273506636550195,0.13490245252266822
7.013567999999999,2.273927841288645,0.1344578402311577
7.015968,2.2712760100940392,0.13417600156096596
7.018351999999999,2.270998366698188,0.1338508299591843
7.020735999999999,2.2712325799815347,0.13356170516231847
7.023132,2.2738409810636355,0.13323181754236404
7.025519999999999,2.274959138078517,0.13304096460142223
7.0279,2.2736558854664013,0.13301865569517335
7.030295999999999,2.272212863227425,0.13301923208974464
7.032683999999999,2.2731440287872027,0.13298538238444169
7.035063999999999,2.276309612518875,0.1329430515273377
7.037459999999999,2.282640779982221,0.13285704523017935
7.039851999999999,2.2924170704309583,0.1326872849167858
7.042231999999999,2.304847087932171,0.1324455789032024
7.044627999999999,2.3191394365529407,0.13215420862639876
7.047015999999998,2.3339436418529074,0.1319090303903317
7.0494,2.345395271966098,0.13182713537291338
7.051795999999999,2.3570792195047665,0.13183265553440446
7.05418,2.37700388745458,0.13157931065860998
7.056563999999999,2.3934362105907567,0.13152526256167724
7.05896,2.4171780885782996,0.1312323259977918
7.061348,2.445296255111014,0.1308197335529858
7.063743999999999,2.480444437241375,0.13021302611895713
7.066135999999999,2.5113088786251807,0.12980276506898764
7.068523999999999,2.5425454070613247,0.12944508024624515
7.070904,2.5724314610571093,0.1291845365029208
7.073308,2.602829371732092,0.1289563119269007
7.075696,2.6317370383398555,0.12884562955297924
7.078075999999999,2.6647414542390697,0.12867403949375522
7.080479999999999,2.6954642301381466,0.12862747066407182
7.082864,2.724696761970004,0.12869346823997035
7.085247999999999,2.752998128242084,0.128784805717866
7.087644,2.780228559327524,0.12893117540245408
7.090027999999999,2.8079708470921627,0.1291126298144165
7.092408,2.8339433515358614,0.12943614197295897
7.094808,2.8599158559795606,0.12976169695481346
7.097195999999999,2.892965597849148,0.12982073954014386
7.099576,2.9210799726661243,0.13004478696375307
7.101971999999999,2.949473886736821,0.13024101824928255
7.104359999999999,2.981080606367433,0.1303060483814943
7.106739999999999,3.0148291963713225,0.13029979156252347
7.109144,3.0467154552556552,0.1303414003133857
7.111527999999999,3.075436130408315,0.13041735516314684
7.113908,3.1116533518674454,0.13021484038172867
7.116312,3.1465673207144587,0.12998780204591281
7.1187,3.181900598442053,0.12970803384628324
7.12108,3.21672201949045,0.1294030007084068
7.123483999999999,3.2530336846060655,0.12901183014177217
7.125871999999998,3.286179765990009,0.12866198495104428
7.128251999999999,3.318022594761837,0.12828673203481125
7.130648,3.3477707749886316,0.12789517730922031
7.133031999999999,3.3791489689095036,0.12740913291606995
7.135412,3.408804601337681,0.1269546086708523
7.137816,3.434083945220687,0.1265789747701581
7.140204,3.458199806118437,0.12616872082129033
7.142583999999999,3.4777996088441547,0.12585490895648335
7.144987999999999,3.498610116383372,0.1255081870443333
7.147372,3.521981803176447,0.1250383651619006
7.149755999999999,3.5425599932901872,0.12464345576714025
7.152159999999999,3.5595532907916745,0.1243211868016729
7.154547999999999,3.569888659747853,0.12416193295560433
7.156928,3.5809228768383323,0.12393064457644386
7.159323999999999,3.5898152235555347,0.1237689683082431
7.161711999999999,3.591770102473709,0.12379578560005237
7.164091999999999,3.596937786951798,0.12371997213482602
7.166491999999999,3.6035957154971068,0.12356951437296397
7.168876,3.609602017736357,0.12341071466765222
7.171252,3.6106729529229957,0.12337688869965978
7.173647999999999,3.6089503914303,0.12340183466937421
7.176035999999999,3.612023427363355,0.12331557226354273
7.178427999999999,3.618169499229466,0.1231443899277465
7.180823999999999,3.6221737007222994,0.12304104176767633
7.183211999999998,3.6263176718419934,0.12292347198774484
7.185591999999999,3.6346056140813814,0.1226886498619949
7.187995999999999,3.6441042611342684,0.12240904474343742
7.190379999999998,3.6546738433737933,0.12209219830849567
7.192759999999999,3.656723165948453,0.1219610663669123
7.195156,3.657701553336475,0.1218631862223253
7.197544,3.6550950481122433,0.12182628021319021
7.199923999999998,3.65327993882093,0.12178456389646532
7.202327999999999,3.653886239156613,0.12164739597590514
7.204712,3.654213000238577,0.12153937334773154
7.2070919999999985,3.6589632716939544,0.12128687008835276
7.209499999999999,3.6675779750153064,0.12094473967818664
7.211883999999999,3.6724680160975445,0.12068092568330835
7.214263999999999,3.671072215686812,0.12059694173215142
7.216667999999999,3.667674314529662,0.12056414888827861
7.219055999999999,3.6697708589325657,0.1203531103206518
7.221436,3.673729734455025,0.1201028821247139
7.22384,3.671961846991955,0.11998084081185685
7.226223999999999,3.664979053222552,0.12000894285396556
7.228604,3.6581360290800093,0.12002266656393415
7.231008,3.6520844008703848,0.12003163522699506
7.233396,3.643611363033763,0.12013288781837894
7.235775999999999,3.632996454823864,0.1202982372745772
7.238172,3.6215901506810466,0.12047063401230926
7.240559999999999,3.614048278404203,0.12055631047152583
7.242943999999999,3.6086482765006362,0.12057437811507674
7.245335999999999,3.6063213105301246,0.12050774710351712
7.247723999999999,3.6052050493731125,0.1203939633243429
7.250103999999999,3.6080929897089336,0.12018046012063607
7.252499999999999,3.6072562678056417,0.12003907723360072
7.254884,3.6024153444095157,0.11999829578938333
7.257267999999999,3.594920693960915,0.11999701307737394
7.259664,3.5879379001915126,0.12001954601179707
7.262052,3.585890473474722,0.11992429546000735
7.264447999999999,3.586496773810406,0.11978773833896522
7.266844,3.5853332908251505,0.11975417387982001
7.269227999999999,3.587382613399811,0.11962625359092166
7.271611999999998,3.590502871161109,0.11946537956831242
7.274007999999999,3.595904768922545,0.11922313379889593
7.276391999999999,3.5999561922436216,0.11904056034626832
7.278776,3.6025645933257224,0.11885267457442247
7.281171999999999,3.607734173661681,0.11855967202641038
7.283559999999999,3.614766085117196,0.11823025734188293
7.285939999999999,3.626593593998463,0.11779918538313082
7.288335999999998,3.6410748299322044,0.11733436602483122
7.290719999999999,3.6535539651195292,0.11692404245444342
7.293119999999999,3.665753561053134,0.11654236283829406
7.295516,3.6800950273600157,0.1161083912265051
7.297904,3.6869399473604276,0.11588773966556215
7.300283999999999,3.698580464786591,0.11556952213912064
7.30268,3.7099414429590345,0.1152757626267231
7.305063999999999,3.725027083370591,0.11491885358355551
7.307443999999999,3.742254594155425,0.11450518791887769
7.3098519999999985,3.762694910500174,0.11401481020304881
7.312235999999999,3.783135226844923,0.11352677278414014
7.314619999999999,3.8027841472567543,0.11304105529421608
7.317016,3.8180095572951704,0.11268849058866827
7.319404,3.8346779895725636,0.11234273248023836
7.321784,3.8558624800219876,0.11193720237137629
7.324179999999999,3.8822618767777435,0.11140864460748874
7.326567999999999,3.9102440653993367,0.11087704765894789
7.328948,3.9305899380875995,0.11054905887081816
7.331343999999999,3.948933710029445,0.11026440115939282
7.333731999999999,3.963924906784515,0.11008121061251018
7.336111999999999,3.97612260686025,0.10994635201787856
7.338511999999999,3.9899030988018223,0.10980838779033261
7.340899999999999,4.007408252982507,0.10961502063690107
7.343296,4.021560831976416,0.10951879884305953
7.345691999999999,4.041859482836435,0.10928516466675672
7.348079999999999,4.058945328136539,0.10913259437323405
7.350459999999999,4.078173043809921,0.10892637583833611
7.352856,4.095398658736885,0.10876596903917658
7.355244,4.109551237730793,0.10867311999459406
7.357623999999999,4.115276104858455,0.10877764576869292
7.360027999999999,4.1232826119862525,0.1088184837287208
7.362415999999999,4.130637492807993,0.10884886623636904
7.364795999999999,4.139063308816371,0.10885231572423187
7.367195999999999,4.14897936889197,0.10879466979497113
7.369583999999999,4.155170766728454,0.10879315760007649
7.371968,4.1552160926988275,0.10892006081234443
7.374371999999998,4.154330253109423,0.10906007057539158
7.376755999999999,4.1618721253862665,0.10900895639185093
7.379139999999999,4.171555868036387,0.10890682984767742
7.381536,4.181519149940229,0.10878025875591457
7.383919999999999,4.189620100724513,0.10868006425711062
7.386304,4.1930652237099055,0.10864843410122675
7.388699999999999,4.195067324456322,0.10860973101988611
7.391083999999998,4.194275928523405,0.10861151646172296
7.393463999999999,4.188828704791596,0.10868109507620866
7.395867999999999,4.185663121059923,0.10868802444464094
7.398255999999999,4.18235776770139,0.10870642732365604
7.400635999999999,4.174256816917107,0.1088056357335101
7.403035999999999,4.166295635759683,0.10889412058964813
7.405419999999999,4.165831000908728,0.10880182122804186
7.407804,4.160430999005161,0.10880261540704834
7.410199999999999,4.156753558594291,0.10878769694961969
7.412587999999999,4.153495427064002,0.10873683003017556
7.414967999999999,4.145301928481101,0.10877836317801452
7.417367999999999,4.137248199525059,0.10880768400538687
7.419755999999999,4.1334782113155715,0.10873440026325756
7.422135999999999,4.132921028666,0.10858523954745374
7.424531999999998,4.128359644523595,0.10851322404919118
7.426915999999999,4.122587555567691,0.1084778615403707
7.429311999999999,4.117886401798425,0.10841746879697749
7.431703999999999,4.117980845454911,0.10828031393618245
7.434088,4.127154627283703,0.10797170821752768
7.436471999999999,4.1289716324328865,0.10782050794843799
7.438864,4.1367949398213195,0.10755717901270288
7.441251999999999,4.146340808702449,0.10727820231767833
7.443647999999999,4.158028547956857,0.10695584684523597
7.446051999999999,4.169716287211263,0.10663559118565731
7.448439999999999,4.186339393518282,0.10622531279488687
7.450819999999999,4.203753895758219,0.10581180214389865
7.453224,4.215953491691824,0.1055108069605272
7.455611999999999,4.230294957998706,0.10515988950091269
7.457987999999999,4.243705258745808,0.10482288019313157
7.460392,4.255765085052553,0.10453272466699955
7.462779999999999,4.270338868784912,0.10422322184009179
7.46516,4.283701947703771,0.10394906713471079
7.4675639999999985,4.294923156249355,0.10372683526204561
7.469951999999998,4.300649919234885,0.10363886954515832
7.472331999999999,4.310520653340108,0.10346742920945932
7.474728,4.320810696325914,0.10326171555491628
7.477116,4.331752365617776,0.10306878296753785
7.479495999999998,4.338829603043664,0.10293790673218117
7.481899999999999,4.334685631923971,0.103020368827332
7.4842879999999985,4.337618898230167,0.10297194163203607
7.486667999999999,4.336547963043527,0.10299547029234699
7.489071999999999,4.337618898230166,0.1029721750358223
7.491455999999999,4.334545862297111,0.10303005453017348
7.493835999999999,4.330821200057997,0.10307689976037512
7.496232,4.326165372259105,0.1031349327638271
7.49862,4.323139558154293,0.10312542544128483
7.500996,4.324397484796035,0.10302582856578608
7.5034,4.326446807370695,0.10292639307646702
7.505788,4.328775669199076,0.10280511471244279
7.508167999999999,4.332175466214094,0.10266106709394719
7.510571999999999,4.337065507296332,0.10246209033731452
7.512959999999999,4.346239289125125,0.10217624278600872
7.515339999999999,4.356344236513696,0.101880129430859
7.517735999999998,4.371012463902541,0.10147395264297422
7.520124,4.38246788573147,0.10113809368033352
7.522503999999999,4.392712602746901,0.10083458556419901
7.5249,4.398441261590301,0.10057367494778749
7.527287999999999,4.405101085993479,0.10030109350379715
7.529668,4.4179069822627675,0.09991349202624482
7.532063999999999,4.4269882162929415,0.09957155889089525
7.534451999999999,4.434998515136479,0.09924883219608173
7.536831999999999,4.436862742113905,0.0990374625456035
7.539224,4.436585098718054,0.09886970352900472
7.541612,4.434956980881844,0.0987471861895418
7.5439919999999985,4.431186992672356,0.09867049884580255
7.546387999999999,4.423784890022373,0.09869712468201473
7.548775999999999,4.415032312932031,0.09876768659813433
7.5511599999999985,4.403346469535493,0.09888443773495996
7.553555999999999,4.390449921325457,0.0990352533594325
7.555939999999999,4.378903847555779,0.09913903857878686
7.558336,4.366426608226323,0.09925225354422484
7.56074,4.348734462590535,0.09946483030432576
7.563128,4.328388589902271,0.09970038080336763
7.565507999999999,4.303619206840595,0.10003630009822691
7.567903999999999,4.276847723032501,0.10040984861652359
7.570291999999999,4.253149275157463,0.10072387663193362
7.572672,4.232384093588619,0.10099563239230536
7.575067999999999,4.212969386460135,0.10121943024711103
7.577455999999999,4.192483744145012,0.10146401498057904
7.579835999999999,4.174651828882363,0.10168671801407718
7.5822319999999985,4.16003271917963,0.10184262471789296
7.584619999999998,4.149417810969731,0.10193399829420903
7.586999999999999,4.141875938692888,0.10196978579969108
7.589396,4.136615706416181,0.1019479426961138
7.591784,4.13428874044567,0.10187993457196125
7.594163999999998,4.136245515221713,0.10171950211880607
7.596559999999999,4.1351292540647,0.10161672672205184
7.598947999999999,4.134944158467467,0.1015014434017389
7.601344,4.133688127683594,0.10140916153062028
7.603739999999999,4.130150456899584,0.10137589891900961
7.6061239999999986,4.128335347608271,0.10133026779162418
7.608508,4.127730943130456,0.1012491590183736
7.610903999999999,4.129920035331977,0.10113198635042339
7.613291999999999,4.132668206040938,0.10096624000140395
7.615671999999999,4.138908721563535,0.10070483880201364
7.618068,4.141936431526216,0.10051607334636108
7.620456,4.144824371862037,0.10033923181343192
7.622835999999999,4.144499506637943,0.10023367109514396
7.625232,4.1403102095478745,0.1001880636334864
7.627619999999999,4.136260682084668,0.10013046705494148
7.630015999999999,4.133002550554378,0.10007249157315617
