Time,Force,Position
9.983016,0.0,0.0
9.985395999999998,0.0,0.0
9.987787999999998,0.0008303753123225175,0.0
9.990175999999998,0.0025919161844233556,0.0
9.992572,0.0035620611236060824,0.0
9.994968,0.009188033861680413,0.0
9.997356,0.015093545853475162,0.0
9.999736,0.020067892285491593,0.0
10.002143999999998,0.0241110731577297,0.0
10.004528,0.026152153283550958,0.0
10.006908,0.028844859715430115,0.0
10.009304,0.033539666893726124,0.0
10.011692,0.041167740378217306,0.0
10.014072,0.049866749049347014,0.0
10.016476,0.0576345921606984,0.0
10.01886,0.06340033452563294,0.0
10.021244,0.06716397614415062,0.0
10.023636,0.06892551701625146,0.0
10.026024,0.06892551701625148,0.0
10.028403999999998,0.06892551701625148,0.0
10.0308,0.06892551701625148,0.0
10.033184,0.06892551701625148,0.0
10.03558,0.06809514170392897,0.0
10.037976,0.06633360083182811,0.0
10.04036,0.06536345589264539,0.0
10.042739999999998,0.05973748315457105,0.0
10.045144,0.053831971162776306,0.0
10.047532,0.04885762473075988,0.0
10.049912,0.04481444385852177,0.0
10.052304,0.04277336373270051,0.0
10.054692,0.04008065730082135,0.0
10.057071999999998,0.03538585012252534,0.0
10.059476,0.027757776638034172,0.0
10.061864,0.01905876796690446,0.0
10.064244,0.011290924855553067,0.0
10.06664,0.005525182490618528,0.0
10.069028,0.0017615408721008382,0.0
10.071407999999998,0.0,0.0
10.073812,0.0,0.0
10.0762,0.0,0.0
10.07858,0.00022028326090004082,0.0
10.080976,0.0060728858508439145,0.0
10.083364,0.016114785530855606,0.0
10.085743999999998,0.029275047114296578,0.0
10.08814,0.04541390097430662,0.0
10.090528,0.0656022822975243,0.0
10.092924,0.08918856477789165,0.0
10.09532,0.11589320916168833,0.0
10.097704,0.14892902100882988,0.0
10.100084,0.18536273401312114,0.0
10.102488,0.22212131224150675,0.0
10.104876,0.26628199311987577,0.010121165567042317
10.107256,0.3126298703418957,0.02036295602665708
10.109659999999998,0.365588454280981,0.02985719271922567
10.112047999999998,0.42208470900407624,0.03919649995755905
10.114428,0.4845400441381788,0.04800441959304543
10.116832,0.5482986318843972,0.05680954493622909
10.11922,0.6175044433624253,0.06513989955777162
10.1216,0.6896435211466485,0.07320070666546433
10.123995999999998,0.7629933037443706,0.08111231514559769
10.126383999999998,0.8373335078946913,0.08887957033925853
10.128764,0.9044586008501321,0.09670726283045487
10.131159999999998,0.9696760367156421,0.10428887118110955
10.133544,1.0360588514242772,0.11148854133236538
10.135928,1.0977405123636466,0.11876823159383845
10.138324,1.1565833506533072,0.12592141507712049
10.140708,1.2080240862929843,0.13338286447286057
10.143092,1.2566259992829527,0.14077123685263165
10.145488,1.295963478503381,0.14839010620236584
10.147876,1.3328342221264378,0.15594265697617757
10.150251999999998,1.3713822012718173,0.16333102935594865
10.152652,1.4015969122074348,0.16066071404232488
10.15504,1.4339081675459557,0.15749066457603583
10.157436,1.4556045146745775,0.15537360295507563
10.159831999999998,1.4737631910191893,0.15341147078835063
10.162219999999998,1.483960686206377,0.1521460685762151
10.1646,1.4959279647145043,0.15062071169304972
10.166992,1.5004459187444048,0.14973042081615834
10.169376,1.5001682753485537,0.1492403441894798
10.17176,1.5000304015795627,0.14872029845114024
10.174152,1.4969592615043765,0.14843633649063967
10.17654,1.4946795173621084,0.1481199516371177
10.178936,1.4883955717270068,0.14814771518900025
10.18134,1.4768967197855725,0.14862873237554258
10.183723999999998,1.469262299710112,0.14881027737842517
10.186104,1.4605569444480127,0.14907920330808944
10.188499999999998,1.4570664954922457,0.1488976925077576
10.190888,1.4525051113498404,0.1488149795873428
10.193268,1.4510167631404909,0.1484632591976044
10.195664,1.449528414931141,0.1481147247891857
10.198052,1.445106800415596,0.1479935013694104
10.200432,1.4414765818329687,0.1478483105753481
10.202835999999998,1.4324916873171494,0.1481869967670238
10.20522,1.4283023902270815,0.14819296047036196
10.207604,1.4241130931370134,0.14819892417370012
10.21,1.4217861271665022,0.14807851616329562
10.212388,1.4183882260093523,0.14805352829827423
10.214768,1.4171321952254798,0.14783067390071092
10.217164,1.4206717618673592,0.14726256997186643
10.219548,1.42137061000166,0.14707708809284079
10.221944,1.4255145811213543,0.1467173955517571
10.224344,1.431241344106884,0.14630749811701751
10.226731999999998,1.4406927693315277,0.14565340679635463
10.229112,1.448793720115812,0.14514508009792967
10.231512,1.4546130308999594,0.14489187640190493
10.233899999999998,1.4632258383634416,0.14447317341855512
10.23628,1.472210732879261,0.1441568809088261
10.238684,1.4857116855671118,0.14361301489024908
10.241068,1.4986535597475223,0.1432026337010816
10.243448,1.5077310020619592,0.14304232814799278
10.245852,1.5185310058690917,0.14279890250767827
10.248236,1.5325438152361404,0.14230102659015278
10.250616,1.5454856894165505,0.14186218679674234
10.253011999999998,1.5576361676640424,0.1414506354133868
10.255399999999998,1.571648977031091,0.14093826019055705
10.257776,1.5887348223311955,0.14021344169289257
10.260184,1.6036787972580222,0.13968625709292573
10.262567999999998,1.619926024796965,0.13919533627545919
10.264952,1.6348227778955489,0.13888840013718426
10.267347999999998,1.654143041367547,0.13822087310911685
10.269731999999998,1.6746740096530444,0.13748827583907197
10.272116,1.6965554523789002,0.1366492896424442
10.274511999999998,1.7140133847313421,0.13613928541926237
10.276896,1.7356152882034777,0.1353350911553158
10.279291999999998,1.7610816235415867,0.13434949728539144
10.281688,1.7796104910806667,0.13376758332327907
10.284076,1.7966963363807709,0.13319872847867675
10.286455999999998,1.8099177498149015,0.13285842750538163
10.288852,1.8297045439957234,0.13210558884928997
10.291239999999998,1.853355770042519,0.1311327994099045
10.293616,1.8782177009028134,0.13009179836675214
10.296015999999998,1.8977249558299147,0.12940398870518932
10.2984,1.9192343115034332,0.12857700021373322
10.300795999999998,1.9416748327367297,0.12771680432557128
10.303192,1.9621132532236096,0.12698186011494925
10.30558,1.9805495729640727,0.12638750666229098
10.307959999999998,1.998194496771618,0.12579573000875566
10.310356,2.0165382687134645,0.1250922987432057
10.312744,2.031436917669917,0.12448363690696622
10.315124,2.0404690340139795,0.12415791100220923
10.317519999999998,2.0453571792383483,0.12406589206707168
10.319907999999998,2.0516883467016935,0.123988338855748
10.322292,2.0624430245384526,0.12363767139767261
10.324687999999998,2.074687946442431,0.12317711386135051
10.327075999999998,2.0830684364804357,0.12288535608137646
10.329468,2.0993175598772478,0.12225652077425588
10.33186,2.116218309580118,0.12164877487456428
10.334248,2.134469533723347,0.12094354551460268
10.336628,2.1455037508138264,0.12060470268232189
10.339032,2.1596110038373615,0.12015078709677407
10.341416,2.169574285741203,0.11987933144885965
10.343795999999998,2.1827503732049593,0.11944435445598067
10.3462,2.1979285614151327,0.1189334431734575
10.348584,2.215108850371723,0.11836137445597873
10.350967999999998,2.2324289089551743,0.11776487790043427
10.353364,2.2506801330984034,0.11715412281076355
10.355752,2.274658120227162,0.11637951014442935
10.358131999999998,2.2946319058630875,0.11576130023429261
10.360536,2.314326152245292,0.11516321276233851
10.36292,2.33774506086661,0.11443612549013076
10.365299999999998,2.364376775047844,0.11355845903825493
10.367696,2.3843505606837696,0.11290226725831264
10.370084,2.4073973822527504,0.11216654288733294
10.372467999999998,2.426812089381235,0.11165580292328248
10.374864,2.448508436509856,0.11104209104730302
10.377247999999998,2.4662005821456443,0.11058506016029389
10.379644,2.484312036662013,0.11007600027337318
10.382048,2.5012127863648836,0.10963772262031536
10.384432,2.5171823705079754,0.10921041321354469
10.386816,2.529939149091151,0.10892903369952821
10.389212,2.546700129167161,0.10851234364866072
10.391596,2.5637406484968905,0.10806545030121978
10.393976,2.5790586063339247,0.10765173516008357
10.396376,2.592793772305123,0.10725926268483003
10.398764,2.6057375423434017,0.1068677630525188
10.401144,2.612814779769291,0.1066385037666123
10.40354,2.6152361893962888,0.10652160632188096
10.405928,2.6215220308892597,0.1063031938457058
10.408307999999998,2.6340937138752016,0.10587182839377718
10.410704,2.6470847057417246,0.10539096633880736
10.413092,2.656211265742273,0.10501001227292024
10.415471999999998,2.665757134623403,0.10455872921961215
10.417876,2.6683655357055036,0.10431495819690657
10.42026,2.6693911449217675,0.10407199744690322
10.422639999999998,2.6644104518987817,0.10400922920903133
10.425036,2.6597092981295165,0.10390852148370319
10.427423999999998,2.6547286051065306,0.10384475872402911
10.42982,2.648816746523767,0.10380169181759066
10.432216,2.645977923874058,0.10365906170845035
10.434604,2.6396939782389564,0.10356157007340207
10.436984,2.6298251399916013,0.10352820988042129
10.43938,2.6176746617441093,0.10359309570296754
10.441768,2.607666053869894,0.10357371825904627
10.444152,2.5930941659954043,0.10375213881842124
10.446548,2.5834576451735263,0.10378412412174201
10.448936,2.5811779010312583,0.10356522969871865
10.451315999999998,2.575825120955935,0.10344279105781287
10.453712,2.567539074574417,0.10339871214880016
10.4561,2.554177891513426,0.10350388225672143
10.458479999999998,2.5417478740122132,0.10358246281771213
10.460876,2.5293178565110006,0.1036657661918298
10.463264,2.5196813356891234,0.10369256416025067
10.465644,2.5088341100537472,0.10378377797507363
10.468044,2.4997094459110674,0.10385628157389575
10.470427999999998,2.4945889832612207,0.10380840909106942
10.472824,2.487466419864958,0.10382355193060236
10.475224,2.4764794246027213,0.10394862702168162
10.477612,2.4642817245269866,0.10414371916865234
10.479992,2.450221693331695,0.10438171012899294
10.482392,2.436813288442461,0.1046494010861512
10.48478,2.424196279486145,0.10492013157650551
10.487156,2.4130695145970487,0.10508213403401273
10.489552,2.39686761302848,0.10542555862796721
10.491936,2.3830871210869082,0.10564845000632465
10.494319999999998,2.3614379957865292,0.106129736074693
10.496724,2.336576064926235,0.10672277195818337
10.499108,2.3138560044392182,0.1072429973567798
10.501487999999998,2.2891338432057844,0.10785817526751139
10.503892,2.2676244875322653,0.10831828561293012
10.50628,2.2410399951792748,0.10897310765035784
10.50866,2.2176683083862,0.10948235925267347
10.511056,2.19722988789932,0.10987629993435814
10.51344,2.182146143345633,0.11004395848551034
10.515824,2.1685526428591646,0.11009729650555149
10.518224,2.153748437559198,0.11021882319162139
10.520612,2.1398753978190093,0.11032242301693868
10.522992,2.1310774947582933,0.11024019008917077
10.525396,2.126563332444131,0.1099744098026845
10.52778,2.122980335689747,0.10968343415536742
10.530164,2.120468274122002,0.10934316917238211
10.53256,2.123310888487449,0.10877910690232186
10.534948,2.1235923235990386,0.10836803747768209
10.537328,2.126527485763103,0.1078996301528938
10.539732,2.131324979046724,0.10738339138093371
10.542116,2.1407783001292366,0.10673258285880467
10.544496,2.1460876500920554,0.10623884917142033
10.546892,2.153259331174431,0.10569494621695442
10.54928,2.165506148936278,0.10494810652986813
10.551676,2.1761229530040467,0.104356815649461
10.554071999999998,2.1907439585646484,0.10360753558850037
10.556456,2.2037349504311714,0.10300582859386755
10.55884,2.213652906364638,0.10253890593296065
10.561236,2.2202182871113294,0.10223920175452382
10.56362,2.2212892222979685,0.10219204461581329
10.566,2.225293423790802,0.10204907440106267
10.5684,2.2311599564031925,0.10185703979736577
10.570788,2.233813683455667,0.10180687887797649
10.573168,2.2332546049482267,0.10189571589526702
10.575571999999998,2.232415987187065,0.10202897250250041
10.57796,2.234370866105239,0.10209062395405016
10.580336,2.2294808250230007,0.10248813767768487
10.582736,2.230736855806873,0.1026579662150742
10.585124,2.234134756964023,0.1027389884261915
10.587504,2.238463823680951,0.10279888502344746
10.589907999999998,2.2406510200246017,0.10294402825260057
10.592292,2.2480531226745852,0.10289251746619653
10.594672,2.2543842901379296,0.10288614450626762
10.597079999999998,2.260715457601275,0.1028845565998309
10.599463999999998,2.2615994013328105,0.1029895527651362
10.601844,2.261272640250847,0.10315840815945285
10.604243999999998,2.262296353609242,0.10324158819251962
10.606628,2.262249131780999,0.1033682327761287
10.609012,2.2632728451393946,0.10345180761619915
10.611415999999998,2.272584500737178,0.10322831047441575
10.613799999999998,2.282175695588681,0.1029720132278979
10.61618,2.289904559320628,0.10275872338642912
10.618579999999998,2.299635523798992,0.10248040599427279
10.620967999999998,2.3124395242104114,0.1020977589879486
10.623348,2.322310258315635,0.10179081954767323
10.625744,2.331389596487941,0.10149219403020074
10.628132,2.3428903442872446,0.10105538224806201
10.630512,2.349176185780216,0.10082030034563862
10.632908,2.3554620272731865,0.10059259298474006
10.635296,2.358674832833102,0.10046933262291868
10.63768,2.3660316095127114,0.10020447720605614
10.640076,2.374691638804437,0.09998586069461822
10.642464,2.38400329440222,0.09978687709758059
10.644859999999998,2.388891439626589,0.09976633321323074
10.647256,2.4004375133962665,0.09957973822981152
10.649639999999998,2.4114717304867463,0.099352447174498
10.65202,2.422505947577226,0.09913089166718697
10.654419999999998,2.434611099854344,0.09886587160933366
10.656804,2.445645316944824,0.09863858055402011
10.659188,2.4514646277289707,0.0985984317125076
10.661583999999998,2.454210902580063,0.09865825702807188
10.663968,2.461752774856906,0.09860330475679735
10.666352,2.4695741863874705,0.09851259066770773
10.668748,2.4772558282911743,0.09844506983861417
10.671136,2.4910835420609883,0.09819318682532142
10.673531999999998,2.503840320644164,0.09798119651199885
10.675928,2.5167368688542,0.09775142019746351
10.678316,2.5331257618778724,0.09737751609714707
10.680695999999998,2.5444395182220725,0.09714571366138808
10.683091999999998,2.5577553753126896,0.09685821548577438
10.685479999999998,2.5672068005373334,0.09666476638646482
10.68786,2.570419606097249,0.09655526611657556
10.69026,2.575122655724384,0.09635612211757504
10.692643999999998,2.5821073453516554,0.09606145219365637
10.695024,2.5903027397924263,0.09572192325564727
10.697423999999998,2.601012091658812,0.09537143187825411
10.699808,2.611441904271477,0.09506099231137935
10.702192,2.6217319472572815,0.09476778208209759
10.704587999999998,2.6340240909895036,0.09442190953930385
10.706972,2.6473871699083635,0.0940376558538297
10.709371999999998,2.6627523495736405,0.09360223739426093
10.711768,2.6753240325595824,0.09323063375404311
10.714156,2.6865452411051653,0.09293134781149613
10.716539999999998,2.6949729529714133,0.09268144162366448
10.718936,2.70312112558394,0.0924751884089067
10.721324,2.7132713989428856,0.09222511337657346
10.723707999999998,2.7251442337945257,0.09196625906366337
10.726108,2.732593558272753,0.09185067513034544
10.728496,2.7451180194304516,0.09160958491919689
10.73088,2.7557801494685936,0.09139787151458122
10.733276,2.769375545812931,0.09112767432648892
10.735664,2.7906998058892154,0.09070945585108317
10.738048,2.8089510300324445,0.09037341755810847
10.74044,2.832137621228285,0.08994800386294699
10.742828,2.849317910184876,0.08965570640619
10.745207999999998,2.866498199141466,0.08937038193215795
10.747604,2.88209569623222,0.08907916533958064
10.749992,2.8999748333231112,0.08871792324633326
10.752371999999998,2.917062574481085,0.08835670775147132
10.754768,2.936152416385475,0.08795904916129008
10.757151999999998,2.9500273519835325,0.08768207114334965
10.759536,2.959898086088757,0.08748689422093228
10.761931999999998,2.968837654634203,0.08730263538719005
10.764319999999998,2.9768460576198703,0.08712886222435424
10.766716,2.979267467246868,0.08703628918599177
10.769112,2.97861584094081,0.08701706108790144
10.771496,2.97330838683586,0.08706537559142306
10.773875999999998,2.972284673477465,0.08699408293107111
10.77628,2.968327693812874,0.08697935028038518
10.778668,2.9662330452678405,0.08693789048505232
10.781047999999998,2.9613449000434717,0.08693574976302397
10.783448,2.952732092579989,0.08698211965140328
10.785832,2.94197741474323,0.08709020254101398
10.788211999999998,2.9216315420549677,0.08735971676858656
10.79062,2.906360806046177,0.08751549335262863
10.793008,2.8884363429849116,0.0876916885480977
10.795388,2.8713032758565644,0.08787145305413341
10.797784,2.850166007235383,0.08813301981915761
10.800172,2.8279578034275636,0.08842430290210936
10.802556,2.8017453981269105,0.0888002920882156
10.804959999999998,2.78088766875945,0.08903623041261063
10.807344,2.7621718097652663,0.08921873934913332
10.809724,2.743875259651664,0.08935264979420487
10.812127999999998,2.729443141404034,0.08941445461915593
10.814515999999998,2.717013123902822,0.08943445292415057
10.816896,2.7056540415882475,0.08942492810644843
10.819292,2.6978798518859266,0.08937768274848304
10.821676,2.684099359944355,0.089468428946392
10.824056,2.673252134308979,0.08949740464325784
10.82646,2.6605425775540463,0.08955473650702533
10.828844,2.6484846471051715,0.08963327631956709
10.831224,2.6327946022158004,0.08986599588794178
10.833628,2.622319463632761,0.08995552238991644
10.836012,2.6202248150877274,0.08991189438892357
10.838396,2.6158485265425555,0.0899499315000625
10.840792,2.611052929116804,0.09004201020914994
10.843176,2.6041154613177753,0.09020224400001486
10.845555999999998,2.5999714901980813,0.09031734545110601
10.847956,2.598760785384582,0.09036813258029501
10.850344,2.6007628861309993,0.09031986957245974
10.852723999999998,2.604906857250693,0.09020997761992507
10.855128,2.6107733898630836,0.09008924991740885
10.857512,2.6171517791546726,0.09000643307937752
10.859892,2.6204571325132053,0.09000184011003118
10.862296,2.6273473784839907,0.08995924903704809
10.864684,2.63237529333522,0.08994397313533248
10.867064,2.6367515818803904,0.0899083693588831
10.869464,2.6468546334110914,0.08976809867596015
10.871852,2.6550953538222366,0.08965940559816475
10.874232,2.6651984053529376,0.08952263837608379
10.876635999999998,2.6725079602043036,0.08942473304570023
10.87902,2.6851721909888626,0.0891617432453703
10.8814,2.6976966521465613,0.08892547838170523
10.883796,2.7055652855053687,0.08876314589756129
10.88618,2.7145048540508143,0.08857019090118735
10.888559999999998,2.7234444225962604,0.08837227420177866
10.890956,2.737459127821179,0.08805118718357267
10.893344,2.750542667486318,0.08774622640922904
10.895736,2.760553171218403,0.08751979700345734
10.898136,2.7681422653234895,0.08739022215640938
10.90052,2.7698176049879426,0.08748493723408228
10.9029,2.7722843405853137,0.08758201714546943
10.905296,2.778755277675519,0.08759124564081908
10.907684,2.7842950492059457,0.08761266324315627
10.910063999999998,2.783968288123982,0.08775099089204877
10.912468,2.7873661892811317,0.08783350736779061
10.914856,2.7894136159979226,0.08798107948212475
10.917236,2.788388006781658,0.08820454081881862
10.919639999999998,2.7870828583116727,0.08846194874231833
10.922028,2.7839153787221314,0.08874768687484008
10.924408,2.7875455973047583,0.0889000965428384
10.926804,2.790384419954467,0.08904885508789818
10.929192,2.7930834729773157,0.08921269151371548
10.931572,2.7947115908135256,0.08940779102323144
10.933968,2.7923355071569023,0.08969279120581188
10.936356,2.792380833127276,0.08988311030954091
10.938736,2.7907035976049537,0.09008070969112919
10.941132,2.790888693202188,0.09025068284578583
10.94352,2.7940070551056175,0.09036471731241937
10.945916,2.8004779921958223,0.09037462390203324
10.948311999999998,2.81244337484608,0.0902199615786211
10.950696,2.8228259656305017,0.09006110043322754
10.95308,2.8281334197354515,0.0900164272493251
10.955476,2.835442974586818,0.08992855415133202
10.95786,2.847548126863936,0.0897559948314558
10.96024,2.8569995520885794,0.08960864015703364
10.962636,2.8696637828731384,0.08937378676830722
10.965024,2.8815366177247794,0.08912961576499817
10.96742,2.8955513229496974,0.0888287633819077
