Time,Force,Position
10.729972,0.0018023746981179543,0.0
10.73236,0.0018023746981179543,0.0
10.73474,0.0007614177221987668,0.0
10.737132,0.0007614177221987668,0.0
10.739516,0.0007614177221987668,0.0
10.741912,0.0007614177221987668,0.0
10.744316,0.0007614177221987668,0.0
10.7467,0.0007614177221987668,0.0
10.74908,0.0015228354443975337,0.0
10.751472,0.0022842531665963005,0.0
10.75386,0.0022842531665963005,0.0
10.75624,0.0022842531665963005,0.0
10.758636,0.0022842531665963005,0.0
10.76102,0.0015228354443975337,0.0
10.763416,0.0029358794726542002,0.0
10.76582,0.005559628314409608,0.0
10.768204,0.010185477902581865,0.0
10.770584,0.011738291557698743,0.0
10.772988,0.01315133558595541,0.0
10.775376,0.015775084427710816,0.0
10.777756,0.01577508442771082,0.0
10.780152,0.016816041403630005,0.0
10.782536,0.020930034312604574,0.0
10.784916,0.027837523900914107,0.0
10.787312,0.03888898460891754,0.0
10.7897,0.04966090606320057,0.0
10.79208,0.06029305789062338,0.0
10.794476,0.07320684971818345,0.0
10.796864,0.08442805826376645,0.0
10.799244,0.09457833162271093,0.0
10.80164,0.10535025307699396,0.0
10.804024,0.11612217453127698,0.0
10.806424,0.12382106005250461,0.0
10.80882,0.12737597445403834,0.0
10.811208,0.12858667926753706,0.0
10.813588,0.12844690964067684,0.0
10.815988,0.12382106005250462,0.0
10.818376,0.12396082967936482,0.0
10.820756,0.12254778565110816,0.0
10.823152,0.11992403680935275,0.0
10.825536,0.1202661456509709,0.0
10.827916,0.1192251886750517,0.0
10.830312,0.11511119576607713,0.0
10.832696,0.1082037061777676,0.0
10.835092,0.09715224546976416,0.0
10.837488,0.08638032401548115,0.0
10.839876,0.07574817218805834,0.0
10.842256,0.06283438036049824,0.0
10.844652,0.05085175409271648,0.0
10.847036,0.03994006301157325,0.0
10.849432,0.029168141557290226,0.0
10.851828,0.0183962201030072,0.0
10.854212,0.010697334581779556,0.0
10.856596,0.007391981223246907,0.0
10.858996,0.0060887286111311065,0.0
10.861384,0.0050650152527357255,0.0
10.86376,0.008527381855652395,0.0
10.866168,0.009226229989953445,0.0
10.868552,0.012828366219730322,0.0
10.870932,0.018292833569063843,0.0
10.873336,0.024486127263417756,0.0
10.875724,0.03274409129208624,0.0
10.878104,0.039791350507255976,0.0
10.880508,0.04898048009570278,0.0
10.882892,0.0591007752439279,0.0
10.885272,0.07029200557879156,0.0
10.887668,0.08148323591365521,0.0
10.890056,0.09360563180829717,0.0
10.892436,0.10358615732966209,0.0
10.894844,0.11128504285088972,0.0
10.897228,0.11483995725242346,0.0
10.899608,0.11825510202709698,0.0
10.902012,0.12059931161513197,0.0
10.904396,0.12041232016002859,0.0
10.906776,0.12101672463784335,0.0
10.90918,0.12427485616813286,0.0
10.911568,0.12804484437762004,0.0
10.913944,0.13325785482608324,0.0
10.91634,0.14242784493913696,0.0
10.918728,0.15047967803730902,0.0
10.921108,0.16085847710599227,0.0
10.923504,0.17370401177204695,0.0
10.925888,0.1938118794612248,0.0
10.928268,0.2149887864791719,0.0
10.930672,0.24058730801266415,0.0
10.933056,0.2692569696213425,0.0
10.935436,0.3020687064918455,0.007662838854798527
10.93784,0.33888274899731297,0.015546702219321445
10.940228,0.38384306825743886,0.023463453754695614
10.942608,0.44002270020527845,0.031119988369217547
10.945012,0.5074216448408317,0.038713052187649706
10.947396,0.5820357006712652,0.04625415571012401
10.949776,0.6618627669501617,0.05395885705623419
10.952172,0.7505349581180177,0.061570475506735035
10.954556,0.8425578286147803,0.06924088928555663
10.956952,0.9367206736269509,0.07702031040868407
10.959348,1.030928844609495,0.08496619107211945
10.961732,1.1303972478687458,0.09286839384106703
10.964112,1.224603522993421,0.10104293335430595
10.966516,1.3243967914767658,0.1090390158826691
10.968904,1.4233986640271927,0.11705027954455345
10.971284,1.519886579152005,0.1251206206399947
10.97368,1.612417514612227,0.13317707492824443
10.976068,1.706393368169294,0.14102165728863483
10.978448,1.7935261975838186,0.1489988563641405
10.980852,1.8801018443487714,0.15683403343648822
10.98324,1.9671912436507912,0.15681326866837947
10.98562,2.0494869413849286,0.1565503196717812
10.988016,2.1276405638572413,0.15618140130834884
10.990404,2.1960651177090593,0.15608805580296434
10.992784,2.2592766611124144,0.15598648452268468
10.99518,2.315133323694029,0.1559780397720652
10.997568,2.3693618684394324,0.1557413312165598
10.999948,2.4195408857216294,0.1555353801283242
11.002344,2.4650187492345608,0.1552962276925634
11.004728,2.504492206366111,0.1550018002610038
11.007124,2.5449912727139252,0.15442683470957508
11.00952,2.5823719771583105,0.1538373012594871
11.011908,2.624502953058074,0.15282197578516687
11.014292,2.658952287054133,0.15207012058089972
11.016688,2.6943800084382135,0.15120179733254785
11.019072,2.7286442468370398,0.15029878122577195
11.021456,2.7643987293030836,0.14931280808865874
11.023856,2.798011341395851,0.14849022118718794
11.026244,2.838049564608449,0.14736982235132512
11.028624,2.872500794462378,0.14645963433797307
11.03102,2.9041585276369712,0.1456907480548427
11.033408,2.9383302182371795,0.1448835796103029
11.035788,2.9712912040238892,0.14415678134841883
11.038184,3.0074177735422714,0.1433886854126314
11.040572,3.044475508620431,0.14262054851467965
11.042964,3.0833955748181485,0.1417952835523929
11.04536,3.1215242450829463,0.14100386307124227
11.047748,3.157790584228189,0.14028218759286928
11.050128,3.1963385633735686,0.13946764543995338
11.052532,3.238611204758061,0.13854870686572018
11.05492,3.279021515022997,0.13771568252741564
11.0573,3.3177092637952366,0.1369341748973455
11.059704,3.3503907103282256,0.1363705553984167
11.062088,3.3882870631675472,0.13562354131824922
11.064468,3.4223189841408956,0.13500604673886768
11.066864,3.4581206884351836,0.1342813098103142
11.069252,3.4891267953037195,0.13370160477320886
11.071632,3.5165480095600024,0.13320505514844022
11.074036,3.5406166486295088,0.13286062271313734
11.07642,3.5673390147514907,0.13245549978418233
11.0788,3.592850676059973,0.13210962452878353
11.081196,3.618362337368456,0.13177650004421815
11.083584,3.644013768303799,0.13142989456461687
11.085964,3.667151241813528,0.1311228742586176
11.088368,3.6890780105097574,0.13087523892829087
11.090756,3.707280116966874,0.13071069140463037
11.093136,3.7228284963715157,0.13059727027955992
11.095532,3.7395875805896566,0.13043601679571584
11.097916,3.75420479443452,0.13034930532450778
11.1003,3.7678908427196047,0.13028714716002587
11.102696,3.780505955818052,0.13026039710914528
11.10508,3.7929812992896386,0.1302475716531307
11.10748,3.8116027146273352,0.13006152201691376
11.109876,3.8271510940319766,0.1299682334952584
11.112264,3.842699473436618,0.12987263042379285
11.114644,3.8574092350800986,0.12986143514493884
11.11704,3.8731899319102174,0.1298149463026397
11.119432,3.889901794300116,0.12974670006710173
11.121808,3.9038201600106777,0.12973634633594264
11.124204,3.9240243672142117,0.12955198624261727
11.126592,3.9434371784848268,0.1293726714702254
11.128972,3.9581941619565506,0.12928843577626253
11.131376,3.9741618502417726,0.12916200412157483
11.13376,3.9912004737136337,0.12900429741846514
11.13614,4.006935844573379,0.12883411147804982
11.138536,4.026815186552818,0.1285500112839983
11.140924,4.049348255584732,0.12822394019300404
11.14332,4.072021094243506,0.12789294423978811
11.14572,4.092319745103526,0.1275757743677501
11.148108,4.107171172231736,0.12735264636270013
11.150488,4.121650512307609,0.12709757527339294
11.152892,4.133895434211587,0.1268450203420842
11.155276,4.138411492383618,0.12676659161973752
11.15766,4.142136154622731,0.12669378307889057
11.160056,4.144278024996008,0.12663112690213474
11.16244,4.1423231460778345,0.12660927902464983
11.164824,4.14185851122688,0.12651729584873503
11.16722,4.141673415629646,0.1263995398581401
11.169604,4.1420473985398525,0.12622941939357574
11.171984,4.12961738103864,0.12636484463656278
11.174392,4.113462701298314,0.1265806314299027
11.176776,4.100520827117904,0.12670065202450015
11.17916,4.084785456258159,0.1268753926487795
11.181556,4.069469394278994,0.12700722401183254
11.18394,4.051871692299693,0.1272171091972698
11.18632,4.030828867334997,0.12747278087450964
11.18872,4.005549523451991,0.1277835386848068
11.191108,3.970818754344343,0.12831148703355327
11.193488,3.9382298556099715,0.12877428165594978
11.195884,3.9079225968757365,0.1291693744505113
11.198272,3.87295951034261,0.1296730333205264
11.200652,3.8381361934363447,0.13016791881034834
11.203048,3.802940789477741,0.13064630114918996
11.205436,3.7627174706679085,0.1312097135122283
11.207832,3.7221220648057383,0.13174857444472116
11.210228,3.6818061981972887,0.13227362981930438
11.212616,3.6334819286031714,0.1330660943699577
11.215,3.582364162329719,0.13394140405994961
11.217404,3.528313129750072,0.13492768428211055
11.219792,3.4797565427304775,0.13573171425663008
11.222168,3.43362136533788,0.13644912166541634
11.224564,3.3826905905195317,0.1373229459438436
11.226948,3.3260330527156534,0.13843097206517582
11.229328,3.2601564071126083,0.1399708193856349
11.231732,3.194559300763283,0.14151798503610405
11.23412,3.1276117199735998,0.14319490959323714
11.236496,3.062526470303473,0.1448358560621248
11.2389,3.00703241548485,0.14617237361955754
11.241288,2.94818578547945,0.14770642960896113
11.243668,2.8907821777130276,0.1492402563252957
11.246064,2.8396171896113325,0.1506024485090556
11.248448,2.789755454121753,0.15198679043574856
11.250828,2.7462721079237618,0.15315003569686048
11.253232,2.7104704036294747,0.15412934083267957
11.25562,2.679044987880358,0.15497643440053901
11.258,2.651995860676412,0.1556990295041862
11.260396,2.6345379283239705,0.15608297934601098
11.262784,2.6190820967179453,0.156391443263967
11.265164,2.6102841936572294,0.15645315350442582
11.26756,2.6005079032084915,0.15665190589624267
11.269948,2.5940369661182867,0.15677638128061297
11.272344,2.591150921640335,0.15679181802499687
11.27474,2.5965055975735276,0.15651991895780684
11.277124,2.613733108358361,0.15571114377702389
11.279508,2.629749914329696,0.1549555100246611
11.281904,2.649351612913284,0.1540581996986923
11.284292,2.6705361033627075,0.15313166196051284
11.286672,2.6866454571326597,0.1524538017517712
11.289068,2.706759012395445,0.15157034879806347
11.291456,2.725801632471592,0.15073900848363436
11.293836,2.7431216910550424,0.1499759532505354
11.29624,2.760581519265353,0.14918980998674472
11.298628,2.77375760672911,0.1486483275484257
11.301008,2.784419736767252,0.1481860700328597
11.303404,2.7948023275516745,0.14777848661948662
11.305792,2.804253752776318,0.1474153232377434
11.308172,2.808909580575209,0.1472454702036384
11.310568,2.816219135426575,0.1469971583809977
11.312956,2.8187330928521903,0.1469372903290653
11.315352,2.822085668038965,0.14675786481950218
11.317748,2.825066156173404,0.14653744588783343
11.320132,2.829257349121341,0.146247961264579
11.322516,2.8350785557633573,0.14584145350527888
11.32492,2.8370353305394,0.14558225720325607
11.327304,2.8468607386742506,0.1450346663115052
11.329684,2.85831616050318,0.14437829600569527
11.332084,2.8689801863991913,0.1437366016967451
11.334472,2.8836484137880363,0.14293649018367588
11.336852,2.898316641176882,0.14214675573089644
11.339248,2.9154062781927244,0.1412305333999841
11.341636,2.9317045192756486,0.14032462114154218
11.344016,2.948422069239154,0.139368936383951
11.346412,2.9644879928966015,0.13838882541257755
11.3488,2.978551815807632,0.13747753229493542
11.351184,2.985957710173354,0.13677816916819696
11.353576,2.986426136740047,0.13633324300414773
11.355964,2.9901073688666564,0.13573934479922378
11.35836,2.990715565060209,0.13527632269667672
11.360756,2.9941172579330972,0.13472127392663924
11.363144,2.998961973044962,0.13416395745734905
11.365524,2.998452012223633,0.13384873186189908
11.367924,2.9928669147228333,0.13374310084045643
11.370312,2.979273414236365,0.13396292635349105
11.372692,2.96409712188406,0.1342068004262691
11.375092,2.942402670613307,0.13465217312024985
11.377476,2.9184265793424173,0.13519835108285785
11.379856,2.893519322511749,0.13577513497367724
11.382252,2.8707539360543577,0.13623146334462133
11.384636,2.848407858477547,0.13661685945475513
11.387032,2.8259220112738763,0.13700583304152783
11.389428,2.8011545240700686,0.1375182728963123
11.391812,2.77610749761254,0.13806021226080267
11.394192,2.753342111155149,0.138493619167807
11.396584,2.730576724697758,0.13894174115195954
11.398972,2.7139574101064774,0.13915109650591284
11.401368,2.7044153329410863,0.13908645587979507
11.403764,2.6935227813353366,0.13910595384062188
11.406148,2.6839807041699446,0.13903879190326254
11.408528,2.67029465588486,0.1391520913907597
11.410932,2.6548860461070785,0.13930495257267914
11.41332,2.644552573008769,0.1392520733670403
11.4157,2.643298438082766,0.1388295491505846
11.4181,2.647910835769153,0.1381787595877331
11.420488,2.6541060253213757,0.1375031659018208
11.422868,2.6584388837540422,0.13687570620106512
11.425268,2.660629871813432,0.13634791127210943
11.427652,2.6618896943130426,0.1358471787938134
11.430032,2.6571432145734035,0.1356032850570322
11.432428,2.643829253340656,0.13579768982106336
11.434816,2.62916481766755,0.136085338707367
11.437196,2.6185045834872764,0.13620008934717323
11.439592,2.604771313373949,0.13646817555029808
11.44198,2.591549899939818,0.1367593054634835
11.444376,2.5814015224387425,0.1369048079773236
11.446772,2.569762900870448,0.13716556000357674
11.449156,2.559195214488792,0.13735986327979338
11.451536,2.5469049666144397,0.13760243254408774
11.45394,2.5328921572473906,0.1378893248288635
11.456328,2.523302858253757,0.13794031778946225
11.458708,2.51478449444676,0.13793561067177376
11.461112,2.5061263610129045,0.13794763153452608
11.4635,2.4914619253397983,0.1382007987107873
11.46588,2.476657720039831,0.13846514954600225
11.468276,2.460782579553226,0.1387821005997033
11.470664,2.4512858283582086,0.13890371735568094
11.473044,2.44313955160355,0.13893620016740046
11.47544,2.4380663107819474,0.13883300139994473
11.477828,2.4351349403336213,0.1386248792760104
11.480208,2.441702216938182,0.13794713185509896
11.482604,2.44482437055735,0.1373476267153194
11.484992,2.445292797124043,0.13682695065566736
11.487376,2.45018473406415,0.13605676618364512
11.489776,2.449629447272448,0.1354604901927015
11.492164,2.447211829361189,0.13493447145228554
11.494548,2.4444221243975925,0.1343521215303384
11.496944,2.439350779433859,0.13390730504845802
11.499332,2.4361417655896815,0.13339198864656976
11.501712,2.437448809917536,0.13273383377414058
11.504116,2.4364742142452527,0.1322088634983051
11.506504,2.43549961857297,0.1316847552039245
11.508884,2.4318712958482123,0.13123500417862394
11.51128,2.426380642003898,0.13084661479061924
11.513668,2.421169527413304,0.13041485581620713
11.516048,2.4171691176362087,0.1299054260219805
11.518444,2.40930427599314,0.12954759446056155
11.520832,2.4031619958427672,0.12914696513677817
11.523216,2.395669241252036,0.12884145838230465
11.525612,2.389899048154001,0.12849460414679784
11.528,2.383849315802246,0.1281901080087851
11.53038,2.3845972816226593,0.1276390356495599
11.532776,2.3909322408017437,0.1269238428404931
11.535164,2.3957769559136075,0.12632509586992113
11.53756,2.409281700317197,0.12543584815957087
11.539956,2.4234380710268444,0.12455812284550183
11.542344,2.440248168788966,0.1236315753135397
11.544724,2.4584087409914472,0.12262804318905629
11.54712,2.4775004787537074,0.12160734532069853
11.549508,2.492588015023133,0.12074607029049018
11.551888,2.509026025732917,0.11979948023762145
11.554284,2.5270468283085386,0.11885498153898583
11.556672,2.5486525234964126,0.11783447368646033
11.559052,2.5738431112965396,0.11672106217399833
11.561456,2.5956811239098907,0.11576341800836125
11.563844,2.6172395972695215,0.11484988433731289
11.566224,2.6417313369353472,0.11384821936518448
11.56862,2.6631500406681177,0.1129566624893849
11.571008,2.682706413281332,0.11210573382281505
11.573392,2.703333721081184,0.11123108905151774
11.575788,2.720748223321121,0.11049574702347977
11.578172,2.7380229559341984,0.10981229030016655
11.580568,2.7523644222410795,0.10923658045914009
11.582964,2.7665661189211015,0.10867802771093708
11.585352,2.7778345492949277,0.10822081884011771
11.587732,2.7900341452285318,0.10774536112047672
11.590128,2.79902093560222,0.10738790572712836
11.592516,2.805586316348912,0.10714320792059955
11.594896,2.8113603011626846,0.10690362919223294
11.597292,2.816063350789819,0.10669798098143521
11.59968,2.820347091536374,0.10654681713753654
11.60206,2.823048040417092,0.10640209348992419
11.60446,2.8238866581782527,0.10629766432888164
11.606848,2.8259359807529134,0.10614155192358271
11.609228,2.831849735193546,0.10589277182680479
11.611628,2.8388344248208184,0.10560989070678842
11.614016,2.8418149129552566,0.1054358029721144
11.616396,2.8500103073960275,0.10510291782954315
11.618796,2.860068032956355,0.10472940447774216
11.621184,2.867844118516545,0.10444820921442452
11.623564,2.8758997433304554,0.10412988328031218
11.625964,2.87487602997206,0.10406380557627845
11.628352,2.8678460143744138,0.10416738875008297
11.630736,2.8610955380304883,0.10423569799365845
11.633136,2.852854817619344,0.10439304574608829
11.63552,2.8428915357155025,0.10457104917247899
11.6379,2.83413895862516,0.10469554602044266
11.640308,2.825526151161678,0.10480496842004183
11.642692,2.817704739631114,0.10490974742652948
11.645072,2.8108144936603288,0.10499835637478651
11.647468,2.8049951828761817,0.1050480413322897
11.649856,2.797965167278536,0.10515301707440584
11.652236,2.790515842800309,0.1053120971326037
11.654632,2.7790623168292488,0.10558494996725387
11.65702,2.766025998992352,0.10585612890414063
11.659416,2.752989681155456,0.10612179203923457
11.661812,2.7414436073857784,0.1063009106330132
11.6642,2.725893332123268,0.10658406081924342
11.66658,2.712345157607174,0.10680787988981744
11.668976,2.6981453567850218,0.10701712253447528
11.671364,2.6865992830153447,0.10718595262117367
11.673744,2.684272317044833,0.10708591036869565
11.67614,2.6911644588734878,0.10671261340273093
11.678528,2.6989877662619213,0.1063238003950089
11.680912,2.706299216971157,0.10589863066113324
11.683308,2.715472998799949,0.10543773757724156
11.685692,2.7225049102554637,0.10504527429329191
11.688088,2.7296765913378387,0.10463211979292601
11.690484,2.735777337233576,0.10425788928331396
11.692872,2.746161823875867,0.103744700308915
11.695256,2.7566860801450184,0.10322167028980017
11.69766,2.7670705667873094,0.10271029908917695
11.700048,2.779876463056598,0.1020981945688518
11.702428,2.795336086378361,0.1014444748977005
11.704832,2.810376400819544,0.10084431544768224
11.707216,2.825276945633866,0.10026855888763919
11.7096,2.844414009366499,0.09966851090740157
11.711996,2.8631317642185516,0.09911226801151068
11.71438,2.8778453175777705,0.09866132378535455
11.71676,2.8950728283626037,0.09819421914283569
11.719164,2.9113691735876595,0.09775207487713819
11.721548,2.926175274745495,0.09740679674801879
11.723928,2.935486930343279,0.09724728621754877
11.726324,2.94545021224712,0.09710733223371
11.728712,2.9591381563900745,0.0969089039230611
11.731088,2.974688431652586,0.09668738717528959
11.733496,2.999038505833682,0.09629654463804138
11.73588,3.0249713718806146,0.09590754070192188
11.738256,3.048762367554271,0.09557184825149304
11.740652,3.0693405576680104,0.09533619027509721
11.74304,3.0885682733413917,0.09516361306570326
11.74542,3.10993785938805,0.09493188381843595
11.747824,3.1271634743150147,0.0948039079523701
11.750208,3.1434579236822007,0.09468940216879675
11.752592,3.159892142676246,0.09455873019000055
11.754992,3.178328462416709,0.09439068230726676
11.75738,3.1921089543582806,0.09429420064268845
11.759756,3.2101731870464065,0.0940865282159743
11.762152,3.2313104556675873,0.09380707220668201
11.764536,3.2479316661167372,0.09357806536976664
11.766932,3.2628303150731903,0.09336212924934836
11.769336,3.276146172163808,0.0931458242625079
11.77172,3.290672734067923,0.09288349459618851
11.7741,3.3037562737330624,0.09260705414244011
11.776496,3.315908647838423,0.09235151842558273
11.77888,3.324196590077811,0.09216412072734895
11.781264,3.321031006346139,0.09215655780923412
