Time,Force,Position
10.63824,0.0568815334689578,0.0
10.640624,0.05182075398870767,0.0
10.643008,0.04797067932195628,0.0
10.645404,0.044120604655204884,0.0
10.647787999999998,0.040130760361593285,0.0
10.650172,0.03600114644112147,0.0
10.652568,0.03108013658773155,0.0
10.654952,0.029232162667397008,0.0
10.657336,0.025382088000645616,0.0
10.659732,0.021671782960754435,0.0
10.662116,0.017961477920863257,0.0
10.664511999999998,0.013180237694333545,0.0
10.666908,0.008259227840943625,0.0
10.669296,0.0021275131740549607,0.0
10.671676,0.0,0.0
10.674072,0.0,0.0
10.67646,0.0008242605619391599,0.0
10.678844,0.0036506218702951716,0.0
10.68124,0.005545817618872862,0.0
10.683624,0.006370078180812021,0.0
10.68602,0.006370078180812022,0.0
10.688415999999998,0.006370078180812022,0.0
10.690804,0.008125504302529504,0.0
10.693184,0.009880930424246984,0.0
10.695588,0.011636356545964465,0.0
10.697976,0.013391782667681946,0.0
10.700356,0.015938604722317534,0.0
10.702751999999998,0.017414491590314597,0.0
10.705139999999998,0.019961313644950185,0.0
10.707524,0.021437200512947247,0.0
10.70992,0.021981921821165984,0.0
10.712307999999998,0.023318039062302835,0.0
10.714688,0.02331803906230284,0.0
10.717084,0.02331803906230284,0.0
10.719472,0.024514386676579476,0.0
10.721851999999998,0.025990273544576538,0.0
10.724248,0.027573065410412757,0.0
10.726636,0.026082821343193598,0.0
10.729016,0.025383973208892546,0.0
10.73142,0.028037700261367298,0.0
10.733808,0.03258662306241974,0.0
10.736188,0.03848602030383114,0.0
10.738584,0.03969672511732987,0.0
10.740972,0.039836494744190085,0.0
10.743352,0.043700926610163573,0.0
10.745748,0.04542348810286,0.0
10.748136,0.04435255291622147,0.0
10.750532,0.046354653662638315,0.0
10.752928,0.047146049595556426,0.0
10.755316,0.04714604959555643,0.0
10.757696,0.047937445528474544,0.0
10.760091999999998,0.047006279968696225,0.0
10.76248,0.04848216683669329,0.0
10.76486,0.049818284077830136,0.0
10.767264,0.05102898889132888,0.0
10.769652,0.05182038482424699,0.0
10.772032,0.04953874482410972,0.0
10.774428,0.04820262758297287,0.0
10.776815999999998,0.04700627996869624,0.0
10.7792,0.043528292354282315,0.0
10.781596,0.03897936955322987,0.0
10.783983999999998,0.03307997231181849,0.0
10.786364,0.03182204567007659,0.0
10.788768,0.032705989401611756,0.0
10.791152,0.027086131413920786,0.0
10.793536,0.024944261040643723,0.0
10.795936,0.026946361787060575,0.0
10.798324,0.026946361787060575,0.0
10.800707999999998,0.028157066600559312,0.0
10.803104,0.031090332906754486,0.0
10.805492,0.033092433653171334,0.0
10.807872,0.03774826145206294,0.0
10.810272,0.041333154064316015,0.0
10.81266,0.04491804667656909,0.0
10.815044,0.04328803298248971,0.0
10.81744,0.04258918484818865,0.0
10.819824,0.04631384708730194,0.0
10.822208,0.052166022500470186,0.0
10.824604,0.054945161980583045,0.0
10.826992,0.05544266146055864,0.0
10.829376,0.05544266146055864,0.0
10.831772,0.05594016094053422,0.0
10.83416,0.05423195664705989,0.0
10.83654,0.05145281716694703,0.0
10.838936,0.05145281716694703,0.0
10.841323999999998,0.05011669992581018,0.0
10.843704,0.04663871231139627,0.0
10.846104,0.04379799380381815,0.0
10.848491999999998,0.03960680085588109,0.0
10.850872,0.0376972479080813,0.0
10.853268,0.03699839977378024,0.0
10.855656,0.03485652940050319,0.0
10.858052,0.0316437238405876,0.0
10.860448,0.030712558280809283,0.0
10.862836,0.03713816940064046,0.0
10.865215999999998,0.04384331977419206,0.0
10.867612,0.048266830147606396,0.0
10.87,0.05175917496124241,0.0
10.872383999999998,0.0621889875739073,0.0
10.874788,0.07517997944042987,0.0
10.877176,0.086526600413651,0.0
10.879556,0.09444245560070133,0.0
10.881951999999998,0.1039267454543658,0.0
10.88434,0.11406266161408816,0.0
10.88672,0.1240588081469503,0.0
10.889116,0.1348463506127306,0.0
10.891504,0.14470272751873253,0.0
10.893884,0.14977786419820474,0.0
10.896284,0.15247881307892264,0.0
10.898668,0.1499792128525302,0.0
10.901048,0.14733984299927755,0.0
10.903444,0.14442093389230448,0.0
10.905831999999998,0.14257295997196995,0.0
10.908216,0.13858311567835835,0.0
10.910612,0.13138046582483115,0.0
10.912999999999998,0.12310688078466545,0.0
10.915396,0.11483329574449971,0.0
10.917792,0.10548877551769546,0.0
10.920179999999998,0.09227982342491771,0.0
10.922564,0.07879133207841955,0.0
10.92496,0.06744471110519845,0.0
10.927348,0.05903135643817251,0.0
10.929732,0.049547066584508054,0.0
10.932128,0.039411150424785685,0.0
10.934512,0.029415003891923527,0.0
10.936896,0.018627461426143258,0.0
10.939292,0.008771084520141314,0.0
10.94168,0.0030586787338332806,0.0
10.94406,0.0005447213082187399,0.0
10.946464,0.0021603778030760104,0.0
10.948852,0.00216037780307601,0.0
10.951232,0.0022857902307141195,0.0
10.953632,0.00228579023071412,0.0
10.95602,0.00228579023071412,0.0
10.9584,0.00228579023071412,0.0
10.9608,0.00228579023071412,0.0
10.963188,0.00228579023071412,0.0
10.965568,0.00228579023071412,0.0
10.967963999999998,0.00228579023071412,0.0
10.970351999999998,0.00228579023071412,0.0
10.972732,0.00228579023071412,0.0
10.975132,0.00228579023071412,0.0
10.977516,0.00228579023071412,0.0
10.9799,0.00228579023071412,0.0
10.982296,0.0022857902307141203,0.0
10.984684,0.0022857902307141203,0.0
10.987063999999998,0.0022857902307141203,0.0
10.989464,0.0022857902307141203,0.0
10.991848,0.00174106892249538,0.0
10.994231999999998,0.0024361253410579487,0.0
10.996628,0.008004969784767283,0.0
10.999016,0.017218390010325706,0.0
11.0014,0.033632564231542074,0.0
11.003796,0.057494167073115755,0.0
11.006184,0.09015367297540572,0.0
11.008579999999998,0.1297487508188553,0.0
11.010976,0.17963197579024032,0.00806385051576035
11.013364,0.23551960714300668,0.016140694745386385
11.015744,0.2984825800637929,0.024098781367754625
11.01814,0.36623925455246165,0.032236637143318224
11.020528,0.4372068387431767,0.04060440011942043
11.022908,0.5145981381958538,0.04884639418905432
11.025308,0.597202448096994,0.05711547565118186
11.027696,0.6830176677001806,0.06556977606227468
11.03008,0.773114732192052,0.0740992193432273
11.032476,0.8734999438118589,0.08226496125685245
11.034864,0.9767239780813748,0.09052948813930113
11.037244,1.0813438127616233,0.09891110913905904
11.03964,1.187499217479465,0.10737945889193817
11.042027999999998,1.2934385578289207,0.11582475327023259
11.044408,1.4012874511261764,0.12404857777972048
11.046808,1.5061577521468628,0.13224992935410548
11.049195999999998,1.6042322508532498,0.14040140690992955
11.051576,1.693695837954024,0.14852177590152182
11.05398,1.7713357078892693,0.1567064723151382
11.056368,1.8425990843907962,0.1647882382944252
11.058748,1.9007808170850526,0.16495307873768067
11.061144,1.9533774522785086,0.16502586811416814
11.063536,1.9975954932918287,0.16521107299653395
11.065916,2.0389293856850665,0.16498479298529165
11.068312,2.0785426124434765,0.16438037012454196
11.0707,2.107076296141033,0.16413754218717622
11.073084,2.131607674203625,0.163766175528854
11.07548,2.153207681817892,0.16315722181745235
11.077872,2.169082822304497,0.1624894401828244
11.080252,2.1680118871178586,0.1625722148282725
11.082652,2.1613086326021764,0.1627255282396101
11.08504,2.1554912176758987,0.16256067316939404
11.087424,2.1494887071523863,0.16216940624790777
11.08982,2.1413915480838406,0.16180119470100618
11.092208,2.1285460134177856,0.16156980827963086
11.094588,2.114257456512755,0.16135646818597485
11.096988,2.101039834794363,0.16105791178299192
11.099376,2.08726313456853,0.16086432213347834
11.101756,2.075441313260871,0.16068728431032933
11.104156,2.0602669167664356,0.16077694948009325
11.106544,2.0481655562050562,0.16066027499167426
11.108924,2.035924426016816,0.16056358831888454
11.11132,2.026057483627331,0.16039000904382
11.113712,2.01120795235699,0.16067320328477921
11.116091999999998,1.997801443325625,0.16090862247120089
11.118492,1.9901216972797906,0.16082636051264043
11.12088,1.981371016047317,0.16081693527869423
11.123264,1.9744826659344008,0.16070223731149894
11.12566,1.9727620002995738,0.1603807031904024
11.128052,1.9804927598893896,0.15953812412752572
11.130427999999998,1.9950212176513749,0.1583088371250947
11.132824,2.006057330599724,0.15737064430743977
11.135208,2.016674134667492,0.15653110734757128
11.1376,2.0325058450415927,0.15540348873342624
11.139996,2.046707541721614,0.15444414170393345
11.142384,2.0634231958272498,0.15341521356450366
11.144764,2.077717440305888,0.15258132844771413
11.147156,2.0977384477700562,0.15148464800199837
11.14954,2.1239055271003355,0.1500774362768056
11.15194,2.1568703046027835,0.14834387762264012
11.154336,2.190626478038149,0.1466206257288778
11.15672,2.223171946660017,0.14498529698077595
11.159104,2.252644379348829,0.14351279705660663
11.161499999999998,2.2881231142768907,0.1417067916281606
11.163884,2.317735316592563,0.14020524463188652
11.166264,2.34441425260204,0.13884666181355584
11.168664,2.374166224544573,0.13736453001168306
11.171048,2.3997742253674117,0.13611986245147809
11.173444,2.4210059376450785,0.13505436832025344
11.17584,2.4407946276837698,0.13403131448043112
11.178228,2.458860756229764,0.13310773792437863
11.180608,2.479488064029617,0.1320071162767644
11.183012,2.4974616447769944,0.13098222063545387
11.1854,2.5072870529118445,0.13035058999469135
11.187779999999998,2.520604805860331,0.12951764198321383
11.190176,2.5303376661965644,0.12879435486364083
11.19256,2.540489835413378,0.127998491638443
11.19494,2.544635702390942,0.1274699888037924
11.197336,2.542775267129254,0.12720074154608668
11.199724,2.5370504000015925,0.12707296931830644
11.202108,2.529323432127515,0.12702416551179746
11.2045,2.526531831306049,0.1267887903421711
11.206888,2.527604662350557,0.12641870250812562
11.209272,2.526815162275508,0.12611023494440707
11.211668,2.5289589285066545,0.1256933196520229
11.214052,2.533756421790276,0.12520858682743466
11.216448,2.5341304047004827,0.12494245357121174
11.218844,2.5403709202230798,0.1244718175052564
11.221232,2.5479146883577926,0.12402553886752658
11.223612,2.553688673171566,0.12372872801703326
11.226012,2.559043349104758,0.12349874713739176
11.228396,2.5638389465305096,0.12334962285005341
11.23078,2.57501293324785,0.12304498358996671
11.233184,2.5917739133238595,0.12258416464533435
11.235568,2.60690487970579,0.12225384012424323
11.237952,2.6272035305658092,0.12183418389073485
11.240348,2.6515989307172796,0.12137593639856172
11.242736,2.6775771227345864,0.12088965793910417
11.24512,2.7062090418043683,0.12034839835947787
11.247516,2.7362839831131254,0.11981986618915225
11.249904,2.7699438170341364,0.1192169188337561
11.252284,2.8001113061415106,0.11880000917056782
11.25468,2.8320013567415816,0.11837544804865263
11.257068,2.8625409329012936,0.11802914039387417
11.259448,2.8975965672330375,0.11760342703399507
11.261844,2.9358650071246957,0.11708246629188959
11.264232,2.97692694369569,0.11648973097716823
11.266628,3.015986779520267,0.1159874643272679
11.269024,3.0563970897852033,0.11542444466906228
11.271412,3.0980181048636375,0.11480150550367735
11.273791999999998,3.1393595806883514,0.11422529983106208
11.276192,3.182423618005762,0.11363503683806346
11.27858,3.224696259390255,0.11308987927335666
11.28096,3.2671086704016084,0.11255094555221258
11.283359999999998,3.3077985199202646,0.11202732481057279
11.285748,3.347045347199945,0.1115146405628738
11.288128,3.385920087427288,0.1109842978126933
11.290524,3.4272162372816277,0.11036312654843768
11.292912,3.463716789710217,0.10983481098121649
11.295292,3.4986345502729694,0.10931486734515831
11.297688,3.5298276485966076,0.10886683027273511
11.300076,3.559717494308132,0.10839178464072204
11.302456,3.5852310514744845,0.10798083159320719
11.304852,3.6140971838276124,0.1074695343489811
11.307239999999998,3.636584926889153,0.10706585279540133
11.309636,3.6559996340176375,0.10674995202957802
11.312032,3.6749024844669247,0.10641241599298328
11.314419999999998,3.6908720686100156,0.10613606455940801
11.316804,3.705910487193329,0.10588048262178724
11.3192,3.7232305457767794,0.1055606531455557
11.321587999999998,3.738967812494393,0.10524516712677424
11.323968,3.752330891413253,0.10493724290310577
11.326364,3.758756502533084,0.10477122288075637
11.328752,3.7621090777198605,0.1046758340841589
11.331136,3.770257250332388,0.10449754968483461
11.333536,3.7781258836911946,0.10434793294026404
11.33592,3.782502172236366,0.10430487564960197
11.338304,3.789671957460872,0.10422433622904706
11.340708,3.8037792104844073,0.10401425690469128
11.343096,3.821471356120196,0.10376785318791734
11.345476,3.8451698039952347,0.10341333326880994
11.347872,3.870451043736109,0.10305767505235397
11.35026,3.898525780156319,0.10266730883665295
11.35264,3.9213856102701965,0.10239060259091146
11.355044,3.9473184763171294,0.10205191829057655
11.357432,3.9732513423640623,0.10171643535404018
11.359812,3.998392812478076,0.10138551469417009
11.362212,4.023534282592091,0.10104973600000657
11.364596,4.048256443825526,0.10075245475784861
11.36698,4.070045338752764,0.1005103946799077
11.369376,4.091974003306863,0.10025712147234916
11.371764,4.1139026678609625,0.10000531401265915
11.374148,4.138764598721256,0.09969851158629421
11.376544,4.166327478462268,0.09930003430564471
11.378932,4.18830336484461,0.09897744580622053
11.381312,4.208975998614837,0.0986355551107072
11.383708,4.2307667893999445,0.09820063958762706
11.386095999999998,4.24324592458727,0.0978845063129958
11.388476,4.250138066415926,0.09764043536664176
11.390884,4.252002293393351,0.09741989299746594
11.393268,4.242273224772856,0.0973697519283434
11.395651999999998,4.232172069100025,0.09728378705627974
11.398048,4.219137647120997,0.09724259996745749
11.400436,4.208384865142107,0.09714475751876347
11.402816,4.1973525439094965,0.09706935376974583
11.405212,4.182595560437773,0.09703923058939645
11.4076,4.168490203272107,0.09701997663116346
11.409984,4.159739522039635,0.09688674976291525
11.41238,4.146892091515711,0.0967623439033141
11.414768,4.134184430618647,0.09662546123293987
11.417148,4.1176123378556095,0.0965445528451621
11.419543999999998,4.097967209159517,0.09652184038480334
11.421932,4.076879058224448,0.09648690474217994
11.424312,4.0475029650499925,0.096616980063809
11.426711999999998,4.020548281502533,0.09667460599459593
11.4291,3.991451727581797,0.09677786020825649
11.43148,3.956720958474148,0.09702796429050033
11.433879999999998,3.927716952352029,0.0971973107603599
11.436267999999998,3.8965710758566328,0.09742399484015284
11.438648,3.8640747249208784,0.09770556011023418
11.441044,3.843171669583044,0.09780129902698269
11.443432,3.8199869742450723,0.09795969542973007
11.445811999999998,3.79815275334746,0.09806621277489797
11.448212,3.774595970957151,0.098184517514136
11.450596,3.751458497447422,0.0982602895705123
11.452991999999998,3.733116621363445,0.09826248335109229
11.455392,3.710118917480576,0.0983284505742793
11.457776,3.6771107098656235,0.09858299307703945
11.460156,3.649689495609341,0.09876104961216733
11.462552,3.6201264109797804,0.09899076827660755
11.46494,3.598431959709028,0.09907933045762685
11.46732,3.5827438106775262,0.0990548812182133
11.469724,3.571711489444916,0.09896767992627566
11.472112,3.5678961752650546,0.09873020731494317
11.474495999999998,3.561519681831336,0.09858107508295687
11.476892,3.5539324835841186,0.09847005888373862
11.47928,3.5512806523895133,0.09826753136161424
11.48166,3.547418116381409,0.09810489756381902
11.48406,3.5514242137321115,0.0977994349354485
11.486448,3.5572926422023707,0.0974638873495714
11.488828,3.554361271754045,0.09728723019257199
11.491224,3.556505037985192,0.09700665144175785
11.493616,3.5572983297759793,0.096778654260669
11.495996,3.56181628380588,0.09650061427355877
11.498392,3.5601881659696697,0.09635020123721214
11.50078,3.5539042203345685,0.09626337545325088
11.50316,3.550553541005662,0.09612343111119954
11.505564,3.5519984591025073,0.09589967675125367
11.507952,3.550370341266297,0.09574511227407234
11.510332,3.5487422234300867,0.0955891175924145
11.512728,3.542178738541265,0.0955288491191164
11.515116,3.5288175554802734,0.09558968593330652
11.517496,3.507587739060476,0.09580176934874471
11.519892,3.4850074482003186,0.09606492924256932
11.52228,3.4644292580865783,0.0962910880956889
11.524676,3.4478552694656717,0.09643704662809419
11.527072,3.432491985658265,0.09653881055342631
11.529464,3.4172684714777173,0.09662584406259696
11.531844,3.3975288991251382,0.09675840285230176
11.534248,3.3790000315860578,0.09684953520053777
11.536636,3.36568607035331,0.0968204203137049
11.539015999999998,3.34715720281423,0.09691029090835622
11.54142,3.3296992704617883,0.09697334585649725
11.543808,3.3099596981092096,0.09710129056315274
11.546188,3.3010220254216334,0.097032272524323
11.548584,3.2990218205330852,0.09683421829745566
11.550972,3.297813011577456,0.09663705154970126
11.553352,3.3015395696744387,0.09635389987910696
11.555748,3.305405897398282,0.09605559741606626
11.558136,3.313276426614958,0.09568216190841365
11.560516,3.317142754338801,0.09537869122285249
11.562916,3.326084218742116,0.09496827199857892
11.5653,3.3421029205713193,0.09440857812348574
11.567684,3.358401161654244,0.09382251019325961
11.57008,3.3751187116177492,0.09319703751630115
11.572468,3.391044865648337,0.09257523124676072
11.574848,3.407902185238702,0.09195175376469741
11.577244,3.424759504829067,0.09133014611281903
11.579631999999998,3.4402663499790735,0.09075813547835292
11.582012,3.454562490315581,0.09022552193779355
11.584412,3.46764792583859,0.08973738766552351
11.586796,3.483015001361736,0.08918111081785929
11.58918,3.495309040951826,0.08868266654516199
11.591576,3.508162159049358,0.08812978932061986
11.59396,3.5100736078550274,0.08777850440900929
11.596355999999998,3.5055594455408654,0.08758121807430538
11.598752,3.5022559880402024,0.08734538583595804
11.60114,3.4922946019942303,0.08720156417498509
11.603523999999998,3.4843353166946756,0.08702110823987293
11.60592,3.47623626176826,0.0868542871228639
11.608308,3.475074674640874,0.08657056752428212
11.610688,3.473633548259768,0.08631534723295145
11.613084,3.4680484507589666,0.08614190040016331
11.615472,3.461112878817807,0.08601856834237043
11.617852,3.452687062809428,0.08595868367421164
11.620252,3.4431903116144102,0.08592172620994434
11.622636,3.427547488553283,0.08600195105314486
11.625016,3.4099025647457375,0.08611765519225772
11.627415999999998,3.3950511376175267,0.08620235362300482
11.6298,3.381270645675955,0.0862628328572848
11.63218,3.367350384107524,0.08633637900329495
11.63458,3.3499377777254566,0.08651389514974378
11.636968,3.3386712432095,0.08657040141365221
11.639364,3.326194003880045,0.08666358702242835
11.64176,3.320794001976478,0.08662792907764169
11.644148,3.3176756400730487,0.08652893161209818
11.646528,3.3154884437293974,0.08641955248990758
11.648932,3.3199591759310554,0.086223917861652
11.651316,3.324150368878992,0.08605736120910662
11.6537,3.325548065147595,0.0859219976063075
11.656096,3.3268059917893362,0.08580193034911068
11.658484,3.3249908824980228,0.08573752742099085
11.660863999999998,3.3271799746995425,0.08560761655894504
11.66326,3.3296486061547834,0.08544998978193186
11.665648,3.336540747983438,0.08518889094928721
11.668024,3.346226386491428,0.08490103750281408
11.670424,3.363129032052167,0.08447932959290888
11.672812,3.3811026127995447,0.08403042509072722
11.675192,3.3962826968675874,0.08360900139858524
11.677587999999998,3.416398147988242,0.08312518750216837
11.679976,3.4367931383626176,0.08261680913749214
11.682372,3.4669663150436,0.08190487741438278
11.684767999999998,3.4940664557915264,0.08125910567747735
11.687152,3.520887057285733,0.08063465055295878
11.689536,3.5478474284068,0.0800126400608081
11.691932,3.5758787347145056,0.07937534432109673
11.69432,3.5999058395293773,0.07879926326199517
11.6967,3.620068512478275,0.07827885172133638
11.699096,3.637437688747838,0.07778050426600729
11.701484,3.653735929830763,0.07729858742979394
11.703868,3.6652385734879354,0.07686843605782052
11.706264,3.678091691585467,0.07638832126507504
11.708652,3.6878717737499427,0.07596029755745577
11.711036,3.7016560574072535,0.0754809096214757
11.713432,3.713298470691286,0.07505108483559424
