Time,Force,Position
14.620715999999998,0.06742323878445508,0.0
14.623099999999996,0.06876547077597528,0.0
14.625495999999998,0.06876547077597528,0.0
14.627883999999998,0.06876547077597528,0.0
14.630263999999997,0.0683544043442334,0.0
14.632659999999998,0.06594123716607467,0.0
14.635047999999998,0.06352806998791592,0.0
14.637428,0.05925257169020054,0.0
14.639831999999998,0.05711894376576223,0.0
14.642219999999998,0.0548455462144637,0.0
14.644599999999995,0.05350331422294349,0.0
14.647004,0.05122991667164497,0.0
14.649392,0.04588348318729106,0.0
14.651771999999998,0.04225961119563358,0.0
14.654168,0.03770457364419779,0.0
14.656555999999998,0.03436024090626073,0.0
14.658935999999995,0.02594077148885144,0.0
14.66134,0.015379431698165085,0.0
14.663728,0.009101832654032855,0.0
14.666107999999998,0.0037553991696789445,0.0
14.668508,0.0013422319915202068,0.0
14.670891999999998,0.0,0.0
14.673275999999998,0.0,0.0
14.675672,0.0,0.0
14.67806,0.0,0.0
14.680439999999995,0.0,0.0
14.68284,0.0,0.0
14.685223999999998,0.0,0.0
14.687607999999996,0.0,0.0
14.690003999999998,0.0,0.0
14.692391999999998,0.0,0.0
14.694771999999997,0.0,0.0
14.697171999999998,0.0,0.0
14.699559999999998,0.0,0.0
14.701939999999995,0.0,0.0
14.704335999999998,0.0,0.0
14.706727999999998,0.0,0.0
14.709107999999995,0.0,0.0
14.711503999999998,0.0,0.0
14.713891999999998,0.0,0.0
14.716275999999995,0.0,0.0
14.718671999999998,0.0,0.0
14.721059999999998,0.0,0.0
14.723439999999997,0.0,0.0
14.725835999999996,0.0,0.0
14.728223999999996,0.0,0.0
14.730607999999997,0.0,0.0
14.733003999999998,0.0,0.0
14.735391999999996,0.0,0.0
14.737787999999998,0.0,0.0
14.740184,0.0,0.0
14.742572,0.0,0.0
14.744955999999998,0.0,0.0
14.747352,0.0,0.0
14.74974,0.0,0.0
14.752119999999998,0.0,0.0
14.75452,0.0,0.0
14.756904,0.0,0.0
14.759283999999996,0.0,0.0
14.761684,0.0,0.0
14.764072,0.0,0.0
14.766451999999996,0.0,0.0
14.768847999999998,0.0,0.0
14.771231999999998,0.0,0.0
14.773628,0.0,0.0
14.776024,0.0,0.0
14.778412,0.0,0.0
14.780791999999998,0.0,0.0
14.783192,0.001482001618380416,0.0
14.78558,0.003243542490481254,0.0
14.787959999999998,0.0048653137357218814,0.0
14.790356,0.007558020167601039,0.0
14.792744,0.01225282734589705,0.0
14.795123999999998,0.012252827345897048,0.0
14.79752,0.012252827345897048,0.0
14.799908,0.01225282734589705,0.0
14.802291999999998,0.013083202658219566,0.0
14.804696,0.013083202658219568,0.0
14.80708,0.013083202658219568,0.0
14.809459999999998,0.013083202658219568,0.0
14.811856,0.013083202658219568,0.0
14.814244,0.013083202658219568,0.0
14.816623999999996,0.013083202658219568,0.0
14.819028,0.013083202658219568,0.0
14.821416,0.013913577970542086,0.0
14.823795999999998,0.013913577970542086,0.0
14.826196,0.013913577970542086,0.0
14.82858,0.014743953282864604,0.0
14.830963999999998,0.013300931043888594,0.0
14.833364,0.012369765484110274,0.0
14.835748,0.010747994238869647,0.0
14.838127999999998,0.008055287806990486,0.0
14.840532,0.0033604806286944774,0.0
14.842916,0.0033604806286944774,0.0
14.845295999999998,0.0033604806286944774,0.0
14.847692,0.0033604806286944774,0.0
14.850079999999998,0.0025301053163719594,0.0
14.852476,0.0025301053163719594,0.0
14.854879999999998,0.0025301053163719594,0.0
14.857263999999995,0.004943272494530696,0.0
14.859648,0.008008065978747331,0.0
14.862051999999998,0.008008065978747331,0.0
14.864435999999998,0.008008065978747333,0.0
14.866819999999995,0.008008065978747333,0.0
14.869215999999998,0.007177690666424817,0.0
14.871599999999995,0.00889011385241326,0.0
14.87398,0.009856467075857498,0.0
14.876383999999998,0.012551728382967678,0.0
14.878771999999998,0.020552547937158116,0.0
14.881151999999997,0.03329984723098797,0.0
14.883556,0.06265821866725937,0.0
14.885944,0.10882100029204525,0.00974193505646713
14.888323999999995,0.16973886953068554,0.019080694562155387
14.890719999999998,0.24871717974171292,0.027970956716146207
14.893107999999998,0.34347429092499016,0.03679392077932434
14.895487999999997,0.4549413686402954,0.04551552981979491
14.897883999999998,0.5871226143804625,0.05394199356113851
14.900271999999998,0.7355019699734602,0.06231644065483618
14.902652,0.9027331624717629,0.0705671580075918
14.905047999999995,1.0836095280178772,0.07880691165509032
14.907435999999995,1.2825935563646218,0.08689880551808724
14.909816,1.502610271369353,0.09487871268163117
14.912211999999997,1.7370099869356013,0.10283873798666082
14.914599999999997,1.9882141126903639,0.11069519142206513
14.91698,2.252777525648248,0.11851550945559171
14.919376,2.529546881130706,0.12626298841552283
14.921764,2.818466714860656,0.13397628128000028
14.924143999999998,3.116511212733287,0.14163952348769046
14.92654,3.4165578113523347,0.1493240851000553
14.928928,3.7214944510536228,0.15691257333675673
14.931323999999996,4.011626885454944,0.16456836247251164
14.933719999999996,4.286770018959063,0.16249704288161465
14.936107999999995,4.549951561528664,0.16078345323566381
14.938488,4.792558705700262,0.15954651208150458
14.940883999999995,5.018223565914356,0.15836405784728425
14.943271999999997,5.226294515864885,0.15725268643564266
14.945652,5.408763152566185,0.15648495400419818
14.948047999999996,5.575080901242897,0.15572298556215253
14.950436,5.720591934096131,0.15507812894375794
14.952816,5.845016711872165,0.15450276080215156
14.955212,5.945374746436561,0.15415416293892859
14.9576,6.028184196707768,0.15388990241890144
14.959984,6.097821351230955,0.153610903615901
14.96238,6.146510124445936,0.1535289238483567
14.964764,6.184633107137128,0.1534334603987844
14.96716,6.2102807463567355,0.15340572287697302
14.969563999999998,6.227969100276786,0.15336585382677434
14.971947999999998,6.235556298524005,0.15336224938107257
14.974328,6.240491665576618,0.15326583872132063
14.976727999999998,6.2325777062474375,0.15333228461791443
14.979111999999995,6.224478651321022,0.15332463304196492
14.981492,6.214704256730156,0.15329323891938162
14.983887999999997,6.204138466206368,0.15326730351761939
14.986275999999997,6.195155467548417,0.15322871002051883
14.988667999999995,6.190129448555058,0.15315672300723135
14.991063999999998,6.186778769226151,0.15310853098565605
14.993451999999998,6.19017856624117,0.15298160764926394
14.995831999999996,6.195393472547502,0.15287105138721388
14.998236,6.20149232258537,0.1527906664579758
15.000623999999998,6.212619087474465,0.1526517567572066
15.003003999999995,6.231707033520986,0.1523979704795052
15.005408,6.252098232179623,0.1521510225701447
15.007791999999998,6.271790582703961,0.15194961811028196
15.010171999999995,6.301353667333521,0.15156023234335703
15.012567999999998,6.328635111962944,0.15123131214388938
15.014955999999998,6.356335865472947,0.15087945545395598
15.017335999999997,6.382593596743974,0.15053798819678255
15.019744,6.4071287665223045,0.15021849863558795
15.022132,6.427519965180942,0.1499868997751975
15.024511999999998,6.451543278280075,0.14965836134376476
15.026908,6.477848231379345,0.14927966677407986
15.029296,6.506015515598171,0.14887516089441585
15.031675999999996,6.532180699070582,0.1485106418997635
15.034076,6.56034798328941,0.14810943186596898
15.036464,6.589074346015678,0.14768375474093254
15.038843999999996,6.617149082435888,0.1472566914601876
15.041239999999998,6.643361487736542,0.1468598658131893
15.043623999999998,6.66678039635786,0.14650577302948412
15.046007999999995,6.693412110539093,0.1460868466708491
15.048403999999998,6.723908256586301,0.14560998329931174
15.050791999999998,6.748677639647978,0.14522216428413226
15.053171999999996,6.771724461216959,0.144855156256869
15.055567999999996,6.795330361293378,0.14445683776890011
15.057955999999995,6.810136462451215,0.14420673219447372
15.060336,6.82657257730313,0.14390469037869444
15.062735999999996,6.843288231408767,0.14359011344780595
15.065123999999996,6.858653411074044,0.14331448383413098
15.067504,6.874158360366182,0.14303066257676753
15.069899999999995,6.893155654471955,0.1426705703354792
15.072287999999997,6.911221783017949,0.1423253995792122
15.074683999999998,6.923561148578415,0.14206608888571554
15.07708,6.932967247832683,0.1418538075003554
15.079468,6.942373347086954,0.14164152611499523
15.081847999999995,6.9528503815278615,0.14141060580058445
15.084243999999998,6.955691100035439,0.14133052295352255
15.086631999999998,6.959602753729655,0.14123034228676984
15.089011999999997,6.9675186089167065,0.14106583547985943
15.091407999999998,6.9783677304099525,0.14085686375545936
15.093791999999995,6.988657773395757,0.14068046022314562
15.096187999999998,6.996805946008285,0.14054587294972523
15.098584,7.01282275197962,0.14029278669582743
15.100972,7.0304223498167895,0.14003157503370092
15.103355999999998,7.051746609893074,0.1397274184016848
15.105752,7.082289977768523,0.13927596172434573
15.108135999999998,7.10854960489742,0.13890119445437762
15.110519999999998,7.130385721652901,0.13861018568656613
15.112915999999998,7.152129290609767,0.13828754009744904
15.115303999999998,7.174292168447211,0.13794348778417148
15.117683999999995,7.189517578485629,0.13770301167813487
15.120079999999998,7.204742988524045,0.1374633487491197
15.122467999999998,7.2227618952417965,0.13718757581993876
15.124847999999997,7.243202211586546,0.13685989113013367
15.127252,7.261268340132541,0.1365432899177555
15.129639999999998,7.277472137558979,0.13625212381692234
15.132019999999995,7.29958968942605,0.13583414186551696
15.134415999999998,7.320496536479622,0.1354441210979275
15.136803999999998,7.331812188681693,0.13518369985578566
15.139187999999995,7.341405279391065,0.1349403456057295
15.141583999999998,7.347832786368766,0.134713197214323
15.143967999999996,7.35323657998807,0.13446571794372017
15.146351999999997,7.352401753942647,0.13428373655660628
15.148756,7.349332509725329,0.13410626010965213
15.151139999999998,7.33681184028337,0.1340478718270568
15.153523999999996,7.3173537030423805,0.13408697571048803
15.155919999999998,7.297383709122194,0.1341172237644939
15.158307999999998,7.280906060015641,0.13407786174607855
15.160687999999997,7.264660728334566,0.13406323009562748
15.163083999999998,7.2509293540791075,0.13402884932213202
15.165471999999998,7.243716138742096,0.1339175879998346
15.167863999999998,7.237154549711143,0.13380980523298802
15.17026,7.231384356613107,0.1336983381959798
15.172648,7.2250550850076305,0.13361565003987824
15.175027999999998,7.220960231574047,0.13352912997153787
15.177423999999998,7.2156546733269655,0.1334678656393142
15.179811999999998,7.204575130266112,0.13351936694336056
15.182195999999998,7.1956374575785365,0.13353395507951496
15.184592,7.194568418249766,0.13343952435222067
15.186979999999998,7.188424242241524,0.13342191457743754
15.189359999999995,7.181069361419781,0.1334305046398092
15.191755999999998,7.168731891717184,0.13355157961254338
15.194143999999998,7.157185817947506,0.13366906955117164
15.196527999999995,7.146570909737607,0.13377500535627196
15.198923999999998,7.144895570073153,0.1337492978090451
15.201311999999998,7.141078360035422,0.13376137230711505
15.203695999999995,7.142987912983221,0.1336975932867745
15.206091999999998,7.143966300371242,0.13364535468915267
15.208479999999998,7.144293061453205,0.13358956426586435
15.210876,7.141546786602114,0.13358236884265612
15.213272,7.137077950258326,0.13358974802218018
15.21566,7.133400509847457,0.13359329727529634
15.218044,7.130794004623225,0.133578453552028
15.22044,7.127396103466076,0.13356712525813358
15.222828,7.125069137495565,0.13353769743745328
15.225208,7.122602401898195,0.13351557932315067
15.227604,7.129494543726851,0.1333447728914213
15.229992,7.132242714435812,0.13323928319679648
15.232371999999998,7.1333608714506935,0.1331813341654703
15.234772,7.14299928813044,0.13301892976697552
15.23716,7.15729353260908,0.1328020583574112
15.239539999999998,7.180946654513744,0.13243720703260875
15.24194,7.20883629533672,0.13204308261241263
15.244328,7.235375461719337,0.13168090654479664
15.246707999999998,7.257351348101679,0.1314084536243285
15.249104,7.285193767096411,0.13105785834174255
15.251492,7.309963150158088,0.13075637275742294
15.253871999999998,7.334313224339185,0.13047664168254314
15.256268,7.356521428147005,0.13023095974708634
15.258655999999998,7.379009171208545,0.12997093380485503
15.261052,7.400565748710307,0.12972260495296492
15.263447999999997,7.420399764719371,0.12948904920034895
15.265835999999997,7.437300514422241,0.1292946782791485
15.268216,7.453781955244531,0.12912146913978137
15.270619999999996,7.471194561626598,0.12893926403789457
15.273007999999995,7.492611369501499,0.12870267024628418
15.275388,7.5065316310699295,0.12858876803902702
15.277787999999996,7.5233851589445555,0.12843662076698995
15.280175999999996,7.540797765326623,0.12825722401905792
15.282556,7.556487810215993,0.12809386661336877
15.284951999999995,7.572597163985945,0.127911947353001
15.287339999999997,7.582700215516647,0.12781146003555502
15.28972,7.587356043315538,0.12776286284797458
15.292123999999998,7.59215164074129,0.12770711645765834
15.294511999999996,7.596155842234124,0.1276540340547516
15.296892,7.596155842234124,0.1276540340547516
15.299295999999998,7.599089108540318,0.12761810456595038
15.301683999999998,7.604024475592931,0.12755616743209144
15.304063999999997,7.611753339324879,0.1274648483787686
15.306459999999998,7.621344534176381,0.12735482815517038
15.308847999999998,7.631587355333942,0.12724901362835792
15.311231999999997,7.6429011116781425,0.12712720104187952
15.313627999999998,7.654214868022342,0.12700480713570647
15.316015999999998,7.667018868433762,0.12684594764209872
15.318396,7.678240076979344,0.12669365530431365
15.320795999999998,7.689601055151787,0.12653696820109878
15.323179999999995,7.708179040376979,0.1262824744931599
15.325564,7.727036564855894,0.12601614945377024
15.327967999999998,7.747616650827503,0.12574088668400735
15.330355999999998,7.768336506425973,0.12546198516078447
15.332735999999995,7.7917100890769175,0.1251680246559259
15.335131999999998,7.817085772474279,0.12485012499027981
15.337519999999998,7.846465657364472,0.12448443395601452
15.339903999999995,7.877707873374225,0.12410104731003285
15.342299999999998,7.9124424341976125,0.12366065066834024
15.344691999999998,7.950389800580915,0.12317575303627064
15.347067999999997,7.983681339165326,0.12273637851941409
15.349476,8.014598689950983,0.122305710281521
15.35186,8.0463546584978,0.12183959856095271
15.354243999999998,8.077319231111701,0.12137928234115099
15.35664,8.106980551113486,0.12091119171263177
15.359028,8.136921410368991,0.1204333896736177
15.361407999999996,8.17086647111733,0.11991176058923365
15.363812,8.205742697425446,0.11938607682639797
15.366196,8.239687758173783,0.11886916241804622
15.368579999999998,8.265903955190177,0.11843001487337251
15.370976,8.28560199328812,0.11805157188498798
15.373364,8.30730213213248,0.11765437175525012
15.375743999999996,8.325277608737727,0.11729099270797516
15.378144,8.339248883850141,0.11697229855435742
15.380532,8.344420360043967,0.11674428505684263
15.382911999999996,8.348660670678017,0.11652464196250364
15.385307999999998,8.35183004612543,0.11632001629988768
15.387695999999998,8.3563498960132,0.11609032379627514
15.390079999999998,8.355515069967778,0.1159297183961731
15.392475999999998,8.35188674724302,0.11579244566625241
15.394863999999998,8.351983086757375,0.11562446105888016
15.397243999999995,8.354593383697344,0.1154460034042198
15.399644,8.357575767689651,0.11528504491315626
15.402027999999998,8.358556050935544,0.11514525435456893
15.404411999999995,8.35990842123377,0.11502191521826387
15.406807999999998,8.357768446718362,0.11495110606467238
15.409195999999998,8.353626371456539,0.1149013557014205
15.411579999999995,8.345200555448159,0.11490523806629771
15.413975999999998,8.338077992051897,0.11491820631621336
15.416363999999998,8.339335918693639,0.11486428389197159
15.418743999999997,8.341105702014577,0.11482072227800376
15.421139999999998,8.337520809402326,0.11484455191504406
15.423527999999996,8.334587543096129,0.11487298753168887
15.425908,8.336589643842547,0.11485210372341946
15.428303999999995,8.34152501089516,0.11480235122774818
15.430691999999995,8.346460377947771,0.11475268701462028
15.433076,8.349393644253967,0.11472412262787719
15.435471999999995,8.3521871409333,0.11470191213052988
15.437855999999996,8.360847170225027,0.11462328683337603
15.44024,8.370950221755727,0.11454791622593563
15.442639999999995,8.379051172540011,0.11449366386953494
15.445027999999995,8.388223058510935,0.11442707698018277
15.447408,8.397115405228137,0.11437289183073258
15.449811999999998,8.4049368167587,0.1143315196643709
15.452199999999998,8.414108702729623,0.1142653860929341
15.454579999999996,8.427564329447101,0.11414677996691804
15.456975999999996,8.443161826537855,0.11400361593211014
15.459363999999995,8.461972129188524,0.11382095073454007
15.461747999999996,8.483343611093053,0.11359644766659016
15.464143999999996,8.502201135571966,0.11338373896223986
15.466531999999996,8.524271465610795,0.1131332702039811
15.468912,8.553698572329234,0.11280143711044227
15.471307999999995,8.58447615348803,0.11244622525786753
15.473695999999997,8.61325163390041,0.11211367451729012
15.47608,8.646031315805622,0.11174421252621831
15.478475999999995,8.679742163270616,0.11136919309031541
15.480863999999997,8.715455111482024,0.11097524051896013
15.483259999999998,8.750097124506796,0.11059662805377751
15.485656,8.783016576038868,0.11022908285326112
15.488044,8.816355336451524,0.10984617653372557
15.490423999999996,8.853838067983872,0.10942387437274974
15.492819999999998,8.884243562090331,0.10906886054980412
15.495207999999998,8.915068365077373,0.1086997420178471
15.497591999999996,8.95455319735614,0.10826572429908608
15.499987999999998,8.995108964821542,0.10782362860586783
15.502375999999998,9.036735667473584,0.10737511358337777
15.504755999999997,9.074218399005932,0.1069700763917416
15.507151999999998,9.11305160497864,0.10654611147687942
15.509539999999998,9.146949443898736,0.10616508961260032
15.511923999999995,9.178193555766356,0.10579740795519763
15.514319999999998,9.205713005394864,0.10545465158784054
15.516707999999998,9.223361720918147,0.10519384214561046
15.519091999999995,9.239148105321872,0.10494544946379063
15.521487999999998,9.252420532299984,0.1047041803980538
15.523875999999998,9.2639703977854,0.1044711081622486
15.526255999999997,9.276730968084314,0.10422297425812353
15.528655999999998,9.293775279129784,0.10393375275473057
15.531043999999998,9.310819590175255,0.10364560127636423
15.533427999999995,9.329074606034222,0.10334344193118022
15.535823999999998,9.348540326706686,0.10302749863246377
15.538211999999998,9.362419054020481,0.1027459113771654
15.540591999999997,9.38286316208097,0.10239503703607061
15.542987999999998,9.400793312715845,0.10205144207883202
15.545375999999996,9.406758080700461,0.10177332568856048
15.547759999999997,9.40992935200574,0.10151183192851468
15.550159999999998,9.405511529205935,0.10129743784472205
15.552547999999998,9.402723720100207,0.10105191803132889
15.554927999999997,9.398213349501784,0.10081229457586686
15.557327999999998,9.397986719649914,0.10053170054055485
15.559715999999998,9.402835226477517,0.10021102074207762
15.562095999999997,9.413038409238311,0.09984081725351954
15.564495999999998,9.43367140461177,0.09938102504569195
15.566883999999998,9.45565487442559,0.0989017643892043
15.569267999999996,9.480711380172467,0.09839848397552119
15.571663999999998,9.505116259613281,0.09789229733324824
15.574051999999998,9.527007181628484,0.09739281548665085
15.576435999999998,9.543171340658157,0.09693081900909122
15.578831999999998,9.557101081515933,0.0964634237506524
15.581219999999998,9.568377095321237,0.09600680066753056
15.583603999999998,9.578070317260703,0.09555169438862135
15.586004,9.58911401364053,0.09507681150417897
15.588392,9.595501882221466,0.09462519637242109
15.590775999999998,9.600958585242621,0.09417745019660728
15.593176,9.614423691249444,0.09367328924834759
15.595564,9.626026466136711,0.09317672000146232
15.597948,9.643775312890085,0.09263238790154135
15.600344,9.659522058897048,0.0921022191801006
15.602735999999997,9.675268804904007,0.09157364657765647
