Time,Force,Position
16.586736000000002,0.15409734207292894,0.0
16.589124,0.14254937244538235,0.0
16.591504,0.1350056043106695,0.0
16.593916,0.13253697285542884,0.0
16.596304,0.13221021177346529,0.0
16.598684000000002,0.12895018438530653,0.0
16.601088,0.12569015699714778,0.0
16.603472,0.12042802886257219,0.0
16.605856,0.11330356960843996,0.0
16.60826,0.10967145516794376,0.0
16.610648,0.10417700960789089,0.0
16.613032,0.09989326886133677,0.0
16.615428,0.09668046330142117,0.0
16.617816,0.09549904605640806,0.0
16.6202,0.09538856399803347,0.0
16.622596,0.09234481563346372,0.0
16.624984,0.08729896652247711,0.0
16.627364,0.08053055591879409,0.0
16.62976,0.07241167087475209,0.0
16.632148,0.06629488657712695,0.0
16.634528,0.05817600153308497,0.0
16.636924,0.05205921723545983,0.0
16.639312,0.04394033219141784,0.0
16.641696,0.03489028158759753,0.0
16.644092,0.024769295797138685,0.0
16.64648,0.018652511499513545,0.0
16.648864,0.012675496828748615,0.0
16.651264,0.007769417344622217,0.0
16.653648,0.004865438606912671,0.0
16.656032,0.0016819206154827038,0.0
16.658428,0.002333546921540605,0.0
16.660816,0.002985173227598506,0.0
16.663196,0.005918439533793679,0.0
16.665592,0.010172892711862176,0.0
16.667976,0.019362712942542694,0.0
16.670356,0.027621367613444893,0.0
16.672752,0.03494885672456877,0.0
16.675140000000003,0.043067741768610765,0.0
16.67752,0.05225756199929128,0.0
16.679936,0.05972482073727538,0.0
16.682324,0.06719207947525947,0.0
16.684704,0.07731306526571831,0.0
16.687108000000002,0.08757382068303736,0.0
16.689492,0.09662387128685766,0.0
16.691872,0.10567392189067798,0.0
16.694276000000002,0.1156551380542766,0.0
16.696664000000002,0.12484495828495712,0.0
16.699048,0.13110151220944247,0.0
16.701444000000002,0.13428503020087243,0.0
16.703832000000002,0.13428503020087246,0.0
16.706212,0.13245198664980143,0.0
16.708616,0.13155010865850875,0.0
16.711004000000003,0.12836659066707876,0.0
16.713384,0.12411213748901025,0.0
16.715784,0.11492231725832976,0.0
16.718168000000002,0.10666366258742756,0.0
16.720548,0.09933617347630368,0.0
16.722952,0.09121728843226168,0.0
16.72534,0.08202746820158116,0.0
16.72772,0.07456020946359707,0.0
16.730116000000002,0.0671108849853705,0.0
16.732504000000002,0.057287372708389614,0.0
16.734884,0.04702661729107056,0.0
16.737280000000002,0.03797656668725026,0.0
16.739668,0.028926516083429943,0.0
16.742048,0.01894529991983131,0.0
16.744452000000003,0.011123888389267264,0.0
16.746840000000002,0.0070271390978165005,0.0
16.74922,0.0060034257394211196,0.0
16.751624,0.009234165559094237,0.0
16.754012,0.015118632431242103,0.0
16.756392,0.023796595982724933,0.0
16.758788,0.0296810628548728,0.0
16.761176000000003,0.03528599047330024,0.0
16.763556,0.04196185327836622,0.0
16.765952000000002,0.048637716083432196,0.0
16.768340000000002,0.049307276649247625,0.0
16.77072,0.049307276649247625,0.0
16.773124,0.04969729796134263,0.0
16.775508000000002,0.05101848483321596,0.0
16.777892,0.051000550573458425,0.0
16.780284,0.05070307705998049,0.0
16.782672,0.05081355911835507,0.0
16.785052,0.05081355911835508,0.0
16.787452000000002,0.05081355911835508,0.0
16.789836,0.05081355911835508,0.0
16.79222,0.0494451504182386,0.0
16.794616,0.04728534578520401,0.0
16.797,0.04512554115216943,0.0
16.799400000000002,0.04189480133249631,0.0
16.801796,0.03601033446034845,0.0
16.804184,0.027332370908865616,0.0
16.806564,0.021447904036717747,0.0
16.808960000000003,0.0158429764182903,0.0
16.811348000000002,0.00916711361322432,0.0
16.813728,0.0024912508081583393,0.0
16.816132,0.0034224163679366596,0.0
16.81852,0.004883372866670195,0.0
16.8209,0.005023142493530405,0.0
16.8233,0.0037019556216570807,0.0
16.825684000000003,0.003952207306891875,0.0
16.828068000000002,0.003952207306891875,0.0
16.830472,0.0038417252485172908,0.0
16.832856,0.0038417252485172908,0.0
16.835236000000002,0.0038417252485172908,0.0
16.837636,0.0038417252485172908,0.0
16.840024,0.0038417252485172908,0.0
16.842404000000002,0.0038417252485172908,0.0
16.8448,0.005023142493530405,0.0
16.847188,0.00620455973854352,0.0
16.849568,0.00620455973854352,0.0
16.851972,0.008317142543334956,0.0
16.85436,0.008427624601709541,0.0
16.856740000000002,0.009469272219862447,0.0
16.85914,0.010650689464875561,0.0
16.861524,0.011552567456168256,0.0
16.863908000000002,0.014066524881782796,0.0
16.866304,0.01979328786731293,0.0
16.868692,0.025520050852843063,0.0
16.871072,0.03284753996396694,0.0
16.873476,0.038853842203217505,0.0
16.875864,0.047112496874119704,0.0
16.878244000000002,0.052158345985106304,0.0
16.880644,0.0543634765885148,0.0
16.883028,0.05731278129659826,0.0
16.885412000000002,0.06030741197505562,0.0
16.887808,0.06679249160927975,0.0
16.890196,0.07620894169182979,0.0
16.892576000000002,0.08825928870922783,0.0
16.894976,0.10831424699655479,0.0
16.897360000000003,0.14244337902319265,0.0
16.899744000000002,0.18488405328409624,0.012523699601501955
16.90214,0.24957446560745472,0.02361829714506808
16.904528000000003,0.33022877450029714,0.034390482126675774
16.906912000000002,0.43522747000062834,0.04434812097185151
16.909316,0.5621963643096941,0.05395049927871356
16.911704,0.7036389111210246,0.06351999524622637
16.914084000000003,0.863838851181174,0.07285019881534156
16.916488,1.049593882662311,0.08189815021400026
16.918876,1.2573191129521823,0.0907563440495242
16.921256,1.4912982827973424,0.09938825929507394
16.92366,1.7467357947720392,0.10786860809881438
16.926048,2.0295454033169062,0.11617219570284937
16.928428,2.3371206032077123,0.12434152258934564
16.930824,2.6656441844067262,0.1323674702941849
16.933212,3.012509641689718,0.14030210864362802
16.935592,3.3712460379664817,0.14817176371851834
16.937988,3.7406898902517605,0.15600089262148314
16.940376,4.120935642202044,0.16374254032251576
16.94276,4.503185390756613,0.17142762157526378
16.945156,4.8807358813997865,0.179047194983653
16.947544,5.253309470735712,0.1740797812638553
16.949924,5.605403105330124,0.17051983091328085
16.95232,5.942651000369932,0.16721813755127568
16.954708,6.251597529137661,0.1647480918449354
16.957092,6.5381092242457015,0.16260298799016604
16.959488,6.803257020880692,0.16050123101143132
16.961876,7.045969983855993,0.1586013834702658
16.96426,7.2614525157458525,0.1569758510365649
16.966656,7.4531497395356645,0.15550906931925007
16.969048,7.614915583359316,0.1542970414042773
16.971432,7.751405875015702,0.15322360604126828
16.973828,7.859360587116661,0.15237198497021737
16.976212,7.944878569700064,0.15164565731692087
16.978596,8.009914701684082,0.15103699517051525
16.981,8.058425962733304,0.1504961781454436
16.983384,8.093158627698825,0.15001079453353308
16.985764,8.118908294006392,0.14950856087868425
16.988164,8.130832142402015,0.1490892283023597
16.990548,8.132887152550284,0.14871972514502207
16.992928,8.127679829675428,0.14840446453105227
16.995332,8.120238088628676,0.1480990491596589
16.99772,8.109164233141433,0.14786651992537642
17.0001,8.096041055079526,0.1476981462644831
17.002496,8.089016727055489,0.14747022840158694
17.004884,8.084226817203344,0.1472349807692914
17.007264,8.085256218135347,0.14695424580002722
17.009668,8.08423629649269,0.1467369637015336
17.012056,8.081306821902235,0.14657631557693773
17.014436,8.0755366288042,0.1464850603699617
17.016832,8.072000853878057,0.1463859990484797
17.01922,8.068278087496815,0.14632992640399392
17.0216,8.072004645593797,0.14618047503822784
17.024004,8.073170024436921,0.14608831660127364
17.026392,8.070191432160353,0.1460639822658514
17.028772,8.065490278391088,0.14605614690444121
17.031168,8.059485872009706,0.1460439457115714
17.033556,8.049105177083154,0.14607522477533377
17.03594,8.041285661410459,0.146048695025553
17.038336,8.035747785737902,0.14597881535609322
17.04072,8.027695952639728,0.14592919916715907
17.043104,8.012846421369389,0.14597194444221812
17.0455,8.005213897151798,0.14590169188369767
17.047888,7.998280221068508,0.1457973507186774
17.050268000000003,7.988692817932741,0.1457194187007822
17.052664,7.974821674050422,0.14571290442916504
17.055052,7.95829680311563,0.14573213740018284
17.057432000000002,7.944705198487029,0.14571156598245238
17.059832,7.937771522403739,0.14560619167464567
17.062216,7.935493674119341,0.1454445237803446
17.064612,7.937592114380112,0.14524014720906828
17.067008,7.94276359057394,0.14498808563560617
17.069396,7.946072735648211,0.1447600750100553
17.07178,7.95753005333501,0.14441052535219037
17.074176,7.974062507701282,0.1439848526658255
17.076564,7.991526127627331,0.14354927183439675
17.078944,8.010712309046077,0.1431005982635318
17.08134,8.026825454531767,0.14269662794837645
17.083724,8.037723693711126,0.14237581886145503
17.086104000000002,8.047131688823264,0.14209468695560387
17.0885,8.064268547667348,0.14171734469587374
17.090888,8.087132169496964,0.1412683279888027
17.093268000000002,8.105712050580026,0.14089099638613312
17.095660000000002,8.124664018715425,0.1405314397244767
17.098048000000002,8.141846203529886,0.14022062798525015
17.100428,8.16196165465054,0.1398696284465864
17.10284,8.184451293569948,0.13950799053435353
17.105228,8.205590458048999,0.13917642263625238
17.107624,8.22537914808769,0.13887739589016299
17.110020000000002,8.244096902939745,0.13859627665969682
17.112408000000002,8.26202326185888,0.13832090148723944
17.114788,8.279809851151153,0.13805333249414406
17.117184,8.299039462682405,0.13778700790018072
17.119568,8.315056268653738,0.137574523296845
17.121948,8.330933304998213,0.13737061433494785
17.124348,8.345599636529188,0.1371898117936119
17.126732,8.358263867313747,0.13703601768456347
17.129128,8.375863465150918,0.13681998431284328
17.131524000000002,8.39825866041384,0.13654888889136987
17.133908,8.420653855676765,0.1362789179633032
17.136288,8.435832043886938,0.13611158677811658
17.13868,8.446866260977416,0.13600191417830637
17.141068,8.459623039560594,0.13587907466738833
17.143464,8.47102934370341,0.13578489417243936
17.145860000000003,8.487510784525698,0.13562377610050505
17.148248000000002,8.50264175090763,0.13549067451269506
17.150628,8.515770616543143,0.13538363676217657
17.153024000000002,8.531972518111713,0.13523546848835108
17.155412000000002,8.549524894120639,0.13506022095033215
17.157792,8.566006334942928,0.13490025764080474
17.160192000000002,8.580345905391942,0.1347719497152424
17.162580000000002,8.591612439907898,0.13468445471101992
17.16496,8.60022524737138,0.1346199899887818
17.167356,8.606835954088448,0.1345810565723863
17.169744,8.612096186365154,0.1345704636338014
17.172124,8.621360620134691,0.13451025923658785
17.17452,8.631276680210291,0.13445298879429818
17.176908,8.640913201032168,0.134408788763317
17.179288,8.64761645554785,0.13439887849080606
17.181704,8.654739018944113,0.1343710664761343
17.184092,8.663212056780736,0.13431580290526332
17.186472000000002,8.674897900177275,0.1342146528776495
17.188868,8.68928469245453,0.13406039045382784
17.191256,8.706232663985643,0.13385866900500373
17.193636,8.723460174770477,0.13364790248328115
17.196032000000002,8.746182131115361,0.13335879629328645
17.198420000000002,8.772396432273885,0.13301598620501248
17.2008,8.798610733432408,0.13267608721516613
17.203196000000002,8.822683164217652,0.13236683231667185
17.205584,8.85183073168237,0.13199909313170485
17.207968,8.884191104707002,0.13158910451228384
17.21036,8.924048024038106,0.13108201406413345
17.212748,8.964044712996069,0.13056944140160867
17.215132,9.003389775647975,0.13005281688457104
17.217528,9.040220880874266,0.1295485493900935
17.219916,9.071325223115027,0.12910304280968896
17.222312000000002,9.102057478303449,0.12864352192034886
17.224708,9.12813390569298,0.12822558731789968
17.227096,9.152208232336095,0.12782889811259943
17.229476000000002,9.17586325009863,0.12745154690682436
17.231872,9.198028023793944,0.12710529117484695
17.234260000000003,9.221775589355094,0.12675648428464792
17.23664,9.242682436408668,0.12646736724686825
17.239036000000002,9.260096938648605,0.12623234053376386
17.241424000000002,9.274019096074905,0.1260517662421789
17.243804,9.284448908687569,0.12592565249340112
17.246208,9.292317542046376,0.1258448193523755
17.248596,9.298975470591689,0.125783604443047
17.250976,9.307635499883412,0.1257012665675626
17.253372000000002,9.312151558055444,0.12566766366336532
17.255760000000002,9.31839017772017,0.125624661758795
17.25814,9.319925747757763,0.12565114137481326
17.260548,9.324115044847831,0.1256603666260436
17.262932,9.330818299363512,0.12565788705714478
17.265316000000002,9.342456920931806,0.1256070703600213
17.267712,9.357028808806296,0.12552815529508288
17.2701,9.37425442373326,0.12543312883566615
17.27248,9.398137967205534,0.12528088418740077
17.274876000000003,9.424023611424223,0.1251073941419865
17.277264000000002,9.448978090083136,0.12494175311370757
17.279644,9.477145374301964,0.12473762813556082
17.282048,9.5006568307219,0.1245711910715411
17.284436,9.521654329716217,0.12441567087348013
17.286816,9.544793699083815,0.12423402931812633
17.289212,9.565558880652656,0.12405741866833565
17.291600000000003,9.587534767035,0.12386346469449948
17.29398,9.60564622155137,0.12370394062625839
17.296384,9.620172783455486,0.12356853290706947
17.298772,9.633768179799823,0.12344159475101084
17.301152000000002,9.646572180211242,0.1233164209545128
17.303548,9.65551174875669,0.12322753572998138
17.305936000000003,9.662868525436297,0.12314264955414501
17.308316,9.665569474317016,0.12309524093336915
17.310712000000002,9.666827400958757,0.12304665672063002
17.313100000000002,9.665012291667443,0.12303114909604046
17.315496,9.66212624718949,0.12302835736837425
17.317892,9.656306936405343,0.12305275738919806
17.32028,9.646483424128363,0.12311653647639512
17.322660000000003,9.638801782224657,0.12315488210209667
17.325056,9.630049205134318,0.12320591601411282
17.327444,9.622227793603754,0.1232491221065991
17.329824000000002,9.617060109125664,0.12327626066148949
17.33222,9.618690122819743,0.12324280652459954
17.334608,9.6224620068871,0.12318497546494081
17.336992000000002,9.632752049872902,0.12307811277133723
17.339396,9.640108826552511,0.12299773763153599
17.341784,9.650818178418897,0.12287486361838348
17.344164,9.66432102696462,0.12273013891403542
17.34656,9.675682005137064,0.12261011462332208
17.348948,9.69211811998898,0.12244004075811592
17.351332,9.707343530027396,0.12228701642205514
17.353728,9.72350010562559,0.12212666445977334
17.356116,9.741658781970202,0.12194642799569252
17.358496000000002,9.760329314994014,0.12177532095865375
17.360896,9.781933114324017,0.12157890280806602
17.363284,9.806470179960218,0.12135746910700124
17.365664000000002,9.82900514485,0.12115437464394375
17.36806,9.854613145672838,0.12092096420776376
17.370448,9.879150211309037,0.12070138470825245
17.372832000000002,9.906760312878294,0.12045106713480148
17.375236,9.929714586648656,0.12023597651447164
17.377624,9.954950500419157,0.11999335749673128
17.380008,9.972317780830853,0.11982148397885105
17.382404,9.985960399003433,0.11967758581006192
17.384792,9.997880455683317,0.11954351760536291
17.387172,10.011942382736477,0.11938617552011987
17.389568,10.028658036842113,0.11921513682782021
17.391956,10.04937789244058,0.11900920266574005
17.39434,10.074241719158746,0.11876297027987837
17.396736,10.09696367550363,0.11854245425203844
17.399128,10.123177976662154,0.11827834884446235
17.401508,10.1484611122609,0.11802024239778333
17.403904,10.178539845285396,0.11772795172028641
17.406292,10.209317426444194,0.11741241198641025
17.408672,10.234508014244321,0.11713496667736059
17.411068,10.25811581017861,0.11686238086597718
17.413456,10.287218051672955,0.11653045497563524
17.415836000000002,10.312083774248986,0.11621599790591991
17.418232,10.338299971265378,0.11588294248863415
17.42062,10.360651736415797,0.11557924808733994
17.423000000000002,10.38593676787241,0.11525249116670977
17.425416000000002,10.411501338582744,0.1149196822094504
17.427804000000002,10.442420585226271,0.11453286014977482
17.430184,10.474410767056435,0.1141356902509859
17.43258,10.501605351460848,0.11377324165586106
17.434968,10.53001064067876,0.1133977595271777
17.437348,10.555901972471059,0.11303245179205361
17.439748,10.580210512397521,0.1126729450907258
17.442136,10.600934159711729,0.11233321535778998
17.444516,10.618072914413682,0.11201192617824805
17.446912,10.632557942063162,0.11170405609441243
17.4493,10.652537415272695,0.11134179821105933
17.451684,10.665347103257721,0.11101613242112016
17.454088000000002,10.67708585605611,0.11070165447712581
17.456472,10.696041615907246,0.11032679323047723
17.458852,10.714345749452326,0.1099495439982291
17.461256000000002,10.731578947810767,0.10958544109796929
17.463644000000002,10.751605642848544,0.1092060442858044
17.466024,10.768699071580125,0.10884832809008402
17.468420000000002,10.79156648512548,0.10842942193850762
17.470808,10.816995077924693,0.10798078868215068
17.473192,10.836696907738375,0.1075684072189896
17.475588000000002,10.856538507178916,0.1071545069695821
17.477976,10.87731127217924,0.10673687426645065
17.480356,10.90315917385903,0.10628115743547999
17.482756000000002,10.927936140352184,0.10583748286862782
17.48514,10.953784042031975,0.10538605999816132
17.487516,10.97776961259221,0.10494657519545053
17.489912,11.007621715764834,0.10447280036505655
17.4923,11.042409185990072,0.10396814223866255
17.494692,11.079710613640925,0.10345993276934544
17.497088,11.112868070172084,0.10298757494117187
17.499472,11.15161252006191,0.10248911877870219
17.501852,11.193290236257932,0.10197586770096286
17.504252,11.230823981334263,0.10149788353160279
17.506636,11.265656777529875,0.10105446801562844
17.509016000000003,11.29634560260579,0.10064273424635885
17.51142,11.326615118801126,0.10024564405151337
17.513808,11.358327657235442,0.09985311240424763
17.516188,11.387059707535316,0.09950651048919851
17.518592,11.410157542648276,0.09921262223205414
17.52098,11.436700500746632,0.09890989463597367
17.52336,11.461892984404626,0.09862612322990569
17.525764000000002,11.490949899928594,0.09832426811357727
17.528152000000002,11.52079821138548,0.0980252214577641
17.530532,11.552508853961925,0.0977202882756429
17.532928000000002,11.585010892471288,0.09741759355655402
17.535316,11.618164557286708,0.09712043504319268
17.537696,11.64330981911646,0.09687302438737504
17.540100000000002,11.662448778706965,0.09666213676200937
17.542488000000002,11.681867277551184,0.09644455796510168
17.544868,11.705010438634524,0.09621313444533466
17.547264000000002,11.723869858971305,0.09601413022250305
17.549652000000002,11.73965624337503,0.09583569673410333
17.552032,11.754231922965262,0.09566920934105182
17.554428,11.774162278488683,0.09546422939995476
17.556816,11.79595496513166,0.09525148303938487
17.559196,11.8178874214015,0.09503548213876407
17.561592,11.841170352111696,0.0948047546398009
17.56398,11.86487259170247,0.09456283856680454
17.566376,11.89364996797272,0.09429119404656247
17.568772,11.920704782750274,0.09402324903862587
17.571160000000003,11.94482633122163,0.09377031994170654
17.57354,11.960008311147543,0.09356668219018482
17.575936000000002,11.97225702476726,0.09337876671189767
17.578324000000002,11.980781076147862,0.09320580825291241
17.580704,11.985300926035631,0.09305510722658811
17.583108,11.987818675176985,0.09291551017009392
17.585496,11.994061086557453,0.09276160470689004
17.587876,12.003096994617254,0.0925967351338339
17.59028,12.009711493050059,0.09245522883012738
17.592668,12.011530394057111,0.09233565208608845
17.595048000000002,12.01469976950452,0.09220073804581293
17.597444,12.01786914495193,0.09206592880893279
17.599832,12.023040621145759,0.09192035857764079
17.602212,12.025139061406533,0.09179345896668033
17.604608000000002,12.033383573533415,0.09163155576845695
17.606996000000002,12.043769956033575,0.09145611520078499
17.60938,12.053364942600817,0.09128096348708871
17.611776000000003,12.060957828421644,0.09111645577615105
17.614160000000002,12.064406743122776,0.09097689275904348
17.616544,12.072791024876517,0.09081411166903221
17.618944000000003,12.086110673682875,0.09062802610033513
17.621332000000002,12.104225919914981,0.09042159017892605
17.623712,12.12047883502753,0.09022148081977248
