Time,Force,Position
5.820396,0.014345062288026655,0.0
5.82274,0.008593789393088665,0.0
5.825084,0.004704847617707316,0.0
5.827424,0.0009556754691861771,0.0
5.829772,0.0,0.0
5.832124,0.0,0.0
5.834464,0.0,0.0
5.836808,0.0,0.0
5.839152,0.0,0.0
5.841492,0.0,0.0
5.843836,0.0,0.0
5.846184,0.00016427953626806636,0.0
5.848524,0.00016427953626806633,0.0
5.850872,0.00016427953626806633,0.0
5.853216,0.00016427953626806636,0.0
5.855556,0.00016427953626806636,0.0
5.857908,0.00016427953626806636,0.0
5.860248,0.00016427953626806636,0.0
5.862592,0.00016427953626806636,0.0
5.864944,0.00016427953626806636,0.0
5.867288,0.000980185378594033,0.0
5.869628,0.00379819196733685,0.0
5.871976,0.007547364115857988,0.0
5.874312,0.007547364115857987,0.0
5.876664,0.009573974771682696,0.0
5.879008,0.012531750987285723,0.0
5.881356,0.015349757576028541,0.0
5.883692,0.02110103047096653,0.0
5.886032,0.03192744004537675,0.0
5.888384,0.04182268406000865,0.0
5.890728,0.05264909363441887,0.0
5.893072,0.06382308035175872,0.0
5.895412,0.08060857033717635,0.0
5.897752,0.09655544256143271,0.0
5.900092,0.11431742407700254,0.0
5.902432,0.13161287488374862,0.0
5.904776,0.15095575240728548,0.0
5.907124,0.17364930925972888,0.0
5.909464,0.200577489172614,0.0
5.911808,0.22913189106384,0.0
5.914152,0.26375684136778726,0.0
5.916492,0.3088984645094088,0.011229692070127547
5.91884,0.36832674869819165,0.022629018516284745
5.921184,0.4566380917180333,0.03331805480316029
5.923524,0.5722460078546558,0.043504101586642564
5.925868,0.7195512955626381,0.05326402821250892
5.928208,0.9005560555883971,0.06271397381634705
5.930552,1.1166107623722918,0.0717672113123612
5.932896,1.3604058610629557,0.08064503663478442
5.935244,1.639577667593719,0.08931637356488856
5.937588,1.9521713030464078,0.09778902433806987
5.939932,2.2937179310772335,0.10615410607035479
5.942276,2.6529037953419965,0.11452244918794467
5.94462,3.037504981400887,0.12285104222018267
5.946968,3.4450075318282902,0.13113773737081202
5.949308,3.8754114466242062,0.139430653867333
5.951652,4.328996265042356,0.14769434481340915
5.953996,4.808742475217177,0.15586571292244522
5.95634,5.307899600804745,0.16402623695739535
5.958684,5.834617710275458,0.17207158755113905
5.961024,6.380378439822318,0.18000917827901902
5.963368,6.936990186720291,0.17659084364697028
5.965708,7.496401117871207,0.17288233120671861
5.96806,8.042271457937508,0.16977768482227534
5.970408,8.560495849753526,0.16712377535784992
5.972744,9.043811960296138,0.1648596187711487
5.975092,9.48635325695295,0.1629152177453205
5.97744,9.882345754910196,0.16139863873458685
5.979784,10.239843183123911,0.16008511629553854
5.982128,10.562103673124389,0.1589814268907255
5.984472,10.845819975695225,0.15814577475135522
5.98682,11.099976985352239,0.15746564403067917
5.989156,11.337471250305468,0.1567735354957777
5.9915,11.560397419099948,0.15608561971000218
5.993856,11.768615722108816,0.15540516803418203
5.996204,11.960450819667617,0.15470117107896153
5.998548,12.132737128044681,0.15399971321315983
6.000888,12.276954387575145,0.15338853631124802
6.003232,12.400227057513137,0.15274784676289374
6.005568,12.495290908977664,0.15219262564603706
6.007912,12.565683612752743,0.1517071033176682
6.010252,12.607818380368244,0.15137021297905706
6.0126,12.62769961820555,0.15117779669449138
6.014944,12.635056394885162,0.15109920744937055
6.017288,12.642970354214341,0.15106784210160518
6.019636,12.654979166977105,0.15108065886403282
6.02198,12.682955668025091,0.15102783591570443
6.024328,12.723175195119186,0.15093739301459003
6.026676,12.7711689119156,0.15081876833183663
6.029028,12.824190543563244,0.1506738400970158
6.031372,12.885826878532239,0.1504110449027833
6.033712,12.950118836411578,0.15006609047589586
6.036064,13.010688027909675,0.14969185559184514
6.038404,13.057943258175023,0.14936820295023992
6.040752,13.092164066461343,0.14908596996956588
6.0431,13.120892325045478,0.14880470580112876
6.04544,13.142218480979633,0.1485597497455526
6.04778,13.163963945794366,0.14830312940599746
6.050124,13.180726821728245,0.14811287348813845
6.052468,13.200887598819275,0.14792623144352152
6.054812,13.22095393225382,0.14778436816357216
6.057156,13.24893422501754,0.1476132231799885
6.059504,13.286318721177665,0.14738988083530782
6.061844,13.326077405136543,0.14715780575632098
6.064188,13.363461901296663,0.146934760422821
6.06654,13.40331502891203,0.14666147679152053
6.068876,13.432832787571215,0.14644927667231022
6.071232,13.45988381063303,0.14622905769269987
6.073576,13.488192760336588,0.14597398851858753
6.075916,13.512824269629276,0.1457261231888404
6.07826,13.532752729294826,0.14553464804543936
6.0806,13.551982340826077,0.14536447630104826
6.082948,13.569162629782667,0.1452337168423689
6.085288,13.5963062006431,0.14503946601152615
6.087632,13.630060478220596,0.1448169967311809
6.089972,13.668051274716404,0.1445760509861044
6.092316,13.710697899011102,0.14430329154877727
6.094652,13.752692896999742,0.14403056527504166
6.096996,13.80311560685463,0.14368068436405163
6.099336,13.846508301111875,0.14337106282956535
6.101684,13.887434259771746,0.14305165589616078
6.104028,13.928314892461245,0.14269715173680217
6.106368,13.96258481843368,0.14237152376254278
6.108712,13.993037534368382,0.1420537927607758
6.111044,14.025399803250883,0.14170356834714287
6.113388,14.052966474707635,0.14139041934014582
6.115736,14.080533146164386,0.14107637143027726
6.118076,14.107448191315079,0.14076180979845412
6.12042,14.130498804599798,0.140477264581785
6.122764,14.1515473171381,0.14020900050049642
6.125104,14.175064461131644,0.1398931768801154
6.127448,14.191691359154401,0.1396104683900558
6.129796,14.203989190460229,0.13932947324936615
6.132144,14.20530002650382,0.13909844932052573
6.134488,14.198557133591375,0.13889402788145905
6.136828,14.184272368402084,0.1387216178483776
6.139172,14.164308062055506,0.13856855720112407
6.141516,14.141457711230974,0.1384163368919294
6.143848,14.112648279995433,0.13829027004127653
6.146196,14.0828151354015,0.138153072672927
6.14854,14.05032826375509,0.13802985798018128
6.150884,14.01169532024257,0.1379574473642766
6.153224,13.972690289677713,0.13787527565596913
6.155568,13.935315272806935,0.13776722233521652
6.157912,13.893144658510405,0.13769249513375564
6.160248,13.845526820482068,0.13765072468404976
6.162596,13.798468060961168,0.13759308295481518
6.16494,13.748755574387795,0.13754918932205237
6.167284,13.698391461508365,0.13750307471730125
6.169628,13.646304787136241,0.13746547586065785
6.171972,13.589515063136977,0.13747847414556383
6.17432,13.538312332496384,0.13745497809117774
6.176656,13.491206351147243,0.13741615949140323
6.179004,13.445635939835693,0.13739486955516012
6.181356,13.405884839308293,0.1373496262007646
6.183692,13.369439092139423,0.13729093272351942
6.186036,13.334436367209529,0.13723142523564932
6.188384,13.300317586011174,0.13718699256213185
6.19072,13.260564589625902,0.13720169136016983
6.193064,13.224768572905223,0.13720511905313182
6.195408,13.198144442155469,0.13714951265846206
6.197756,13.176036369577739,0.13706661562670372
6.2001,13.158025046291467,0.13696827686412003
6.202444,13.140897666736725,0.1368852132785222
6.204792,13.128006806100299,0.1367830785768085
6.207128,13.12321689624815,0.13663303478595445
6.209472,13.120801174194762,0.13647644135392184
6.211812,13.122901510313403,0.13629310906793263
6.214156,13.125373933484381,0.13611940057535774
6.216488,13.132502184454253,0.13591474888160898
6.218828,13.141492766543683,0.13569721701459247
6.221172,13.149132874192752,0.13549797328393964
6.223504,13.155702046655183,0.13530895086689307
6.225852,13.17041939173014,0.13505143804502232
6.228192,13.184996967178238,0.1347987817721098
6.23054,13.201157334492171,0.13454291322738524
6.23288,13.221833759978136,0.13426170935012557
6.235224,13.245722991024017,0.13395134699501457
6.237572,13.28148505692154,0.13355013832043428
6.239904,13.320459928378977,0.13312161481228868
6.242248,13.352637101664243,0.13274455974321586
6.244588,13.384814274949512,0.1323691107980857
6.24694,13.415129117115224,0.13200688338043634
6.249276,13.449587930400629,0.13161205034677717
6.25162,13.483255347753117,0.13122018917497844
6.25396,13.51827323954596,0.13081405247996877
6.256308,13.553430900965667,0.13040589636562533
6.258652,13.58551552645232,0.13002355487363898
6.260996,13.622023662312387,0.12960141166286565
6.263344,13.65932319410537,0.1291798811108243
6.265688,13.700766697018047,0.12872681847720677
6.268036,13.748775580677416,0.12821785041078174
6.27038,13.799205873963784,0.12768434400691733
6.272732,13.842838469077982,0.12719924406234823
6.275072,13.88661083381904,0.12671221366503688
6.27742,13.926798305947843,0.12624358130135632
6.27976,13.964192281397313,0.12579314679993148
6.282096,13.99679065942103,0.1253733730376456
6.284444,14.02152040408594,0.125009201290306
6.286784,14.0431771128178,0.1246697367090129
6.289128,14.067255231176652,0.12430527914113684
6.291472,14.087748456923249,0.12395772491134568
6.293816,14.111454488229764,0.12358554051351414
6.296164,14.130784230991111,0.1232332272535729
6.2985,14.151324678565954,0.12286956085111075
6.300848,14.167860924647965,0.12253444574937074
6.303188,14.18546810591661,0.12219228452335715
6.305528,14.205636466439117,0.12182287695881094
6.307868,14.219798524722371,0.12149440320866664
6.310212,14.23251756076665,0.12116592021364825
6.312556,14.241511934571815,0.12085778454607658
6.314896,14.242497905391316,0.12060306039330478
6.317244,14.243344106583951,0.1203525457900317
6.319592,14.248474048523146,0.1200693430112737
6.321928,14.25323190341,0.11977717715520583
6.324272,14.258129527923714,0.11948091170757588
6.32662,14.261584130198452,0.11918319375943952
6.328956,14.268111768406248,0.11886414639554863
6.331296,14.275850111427543,0.11853303527658435
6.33364,14.281074497023225,0.11820835066466422
6.335992,14.284017242618763,0.11790352832151141
6.338328,14.292966290453556,0.11756096424094223
6.340672,14.293906935302681,0.11726912660821946
6.343032,14.292426170524807,0.11700015169294055
6.345372,14.286941204254099,0.11675637404980894
6.347716,14.280664842050475,0.11651323009208792
6.35006,14.26759078167468,0.11630872879375856
6.352404,14.252095311671889,0.11612739571678879
6.35474,14.242606143908349,0.11590821759832827
6.357084,14.235630933570425,0.1156830809814804
6.359428,14.228236414351919,0.11546835068309975
6.361768,14.224426787745664,0.11523919300743259
6.364112,14.218335521139274,0.11502957638958577
6.366456,14.206889578599691,0.11485955790030196
6.3688,14.195024327179526,0.11469998926238381
6.371136,14.18995677393153,0.11450318751945168
6.37348,14.18633224292251,0.11430812602790089
6.37582,14.182707711913492,0.11411316635881849
6.378164,14.178663872023893,0.11392855751744593
6.380504,14.180067255866103,0.11372199431030747
6.382848,14.184543675641367,0.11349577372376866
6.385192,14.182874023550525,0.11330910812216136
6.387524,14.18828160888557,0.11307879314758557
6.389868,14.197041769407388,0.11282168103822397
6.392208,14.207012634742705,0.11255275925154062
6.394552,14.217263039331744,0.11227651311449217
6.396892,14.233379976533174,0.1119675777571322
6.399236,14.248705517801682,0.11165907303782448
6.401588,14.256302195338243,0.11139128214624298
6.403932,14.253516282090386,0.11117245982659013
6.406276,14.248775489924355,0.11094451172772873
6.40862,14.244733545892625,0.11069937984127669
6.410964,14.241250680368335,0.11044000323222493
6.413308,14.240049454844183,0.110161253310103
6.415652,14.23391286226742,0.10990957499240858
6.417988,14.220978571518486,0.10969422921780607
6.420328,14.21153662558319,0.10944939405851777
6.422676,14.199952809274615,0.10921939875315659
6.425016,14.18864853221976,0.1089821302789193
6.42736,14.16989493068668,0.10877685342872494
6.429708,14.148208062847404,0.10858680208232954
6.432048,14.126381425381268,0.1083997028651674
6.434392,14.101481751982076,0.10823131228165067
6.436728,14.076442308956024,0.10806591952803271
6.439076,14.055267297795945,0.10788077380002288
6.441428,14.035675078501706,0.10769427888800664
6.443772,14.014080758461049,0.10751879595626533
6.446116,13.99248643842039,0.10734280171377894
6.44846,13.97661888136526,0.10713938882921024
6.4508,13.9675490224823,0.10690053625431718
6.453144,13.963367308823711,0.10665552339723489
6.455488,13.954762084791707,0.10644340410573133
6.457836,13.946156860759702,0.10623104638752391
6.460172,13.936620471167917,0.10602218280289277
6.462512,13.93444085825574,0.10576507813803959
6.464864,13.935613820530342,0.1054826353148183
6.4672,13.932503042058391,0.10522994961481444
6.46954,13.9307427380268,0.104962733934569
6.471884,13.931264073995342,0.10467787552033558
6.474232,13.940445439255612,0.10435278307008986
6.476568,13.952420301195216,0.1040168020482115
6.478912,13.969610069441153,0.10364879692990722
6.481268,13.988662168806647,0.1032740998014053
6.483616,14.007574498545278,0.10290361512270031
6.48596,14.022203087537362,0.10256205897108375
6.488304,14.035760741342798,0.10222777595495255
6.490644,14.049318395148239,0.10189351256268986
6.49298,14.06874258156607,0.10153222267255094
6.495324,14.086024897610624,0.10118552643421652
6.497676,14.104890005521012,0.10083926148406996
6.500016,14.12082184712521,0.1005075763169414
6.502364,14.137405315035462,0.10017823227564616
6.504708,14.156083431490748,0.09985630598832577
6.507056,14.175925030931285,0.09954439946351316
6.5094,14.19306568149111,0.0992611477359513
6.511748,14.20336141205052,0.09902887686139186
6.514088,14.21244643779643,0.09880663759074648
6.51644,14.222974485781318,0.09858819992301347
6.518784,14.231872520072129,0.0983907676845157
6.521128,14.233413777683328,0.09823769797879828
6.523476,14.231090603428555,0.09810138245409972
6.525808,14.226485789173644,0.09798211888227039
6.528156,14.218807938985679,0.09787950783281091
6.5305,14.212573111036686,0.09778049843712915
6.53284,14.210202714953674,0.09766496595460536
6.535184,14.211836520363489,0.09752988304417574
6.537528,14.213982182452504,0.09740163664328426
6.539876,14.208771067861909,0.09731629444993557
6.542216,14.20435134920423,0.0972310276181892
6.54456,14.199931630546555,0.0971458401229878
6.546904,14.1945807463291,0.09706370243745605
6.549248,14.1935136028582,0.09695542733891463
6.551592,14.189932501961685,0.09685006792277244
6.553932,14.191194220319165,0.0967058310953985
6.556276,14.192455938676643,0.09656166233352535
6.55862,14.200143268153957,0.09637841934676258
6.56096,14.210763863937462,0.0961825277024234
6.563308,14.218311423787917,0.09600266594106723
6.565644,14.224136422145671,0.09582559906867012
6.567992,14.234524700503702,0.09561604645755573
6.57034,14.24984834591434,0.09538458727469563
6.572676,14.265171991324985,0.09515347879050282
6.575012,14.282637507108902,0.09490955932080647
6.577352,14.294935338414732,0.09467395850001924
6.5797,14.303648277108309,0.09444757413959307
6.58204,14.309427949495689,0.09423441070389063
6.584384,14.316046239644228,0.09400168041155266
6.586732,14.327088040166187,0.09374032075558218
6.589068,14.33654704882231,0.0934782218189262
6.59142,14.343212560799092,0.09322512357020458
6.593764,14.356163914268848,0.09293861798878501
6.596108,14.36604223180555,0.09266811739204246
6.598444,14.376200088595972,0.092391038200619
6.600788,14.377790463893286,0.0921637083602136
6.60314,14.37872921288454,0.09193268932270722
6.60548,14.375523990756102,0.09172283672946525
6.607824,14.373809012694881,0.09149760007450482
6.610168,14.377588480193715,0.09123905400341552
6.612516,14.385511918812242,0.09095990284363746
6.614852,14.39208488299041,0.09069385701063264
6.617196,14.396515976795303,0.09044044735811262
6.619536,14.401226609853914,0.09018084570541843
6.62188,14.406216782166245,0.08991514501122026
6.62422,14.418144422277607,0.08962130832908388
6.626564,14.435147199068439,0.08930542559843264
6.628908,14.452429515112994,0.08898380587211857
6.631244,14.4720860189563,0.0886654793163909
6.633592,14.487878090933636,0.08836082020756005
6.635944,14.506743198844024,0.08804254068274135
6.638284,14.52896088194119,0.08770439520209612
6.640628,14.545312032425967,0.08738907381327415
6.642972,14.56394482291088,0.0870598788681495
6.645316,14.582577613395793,0.08673092022071177
6.647652,14.605773683880981,0.08637253671773429
6.65,14.627247192873472,0.08601557947101271
6.65234,14.653004442612517,0.0856362561561544
6.654684,14.672475850858591,0.08528765455530156
6.657028,14.689945158358247,0.08494898503816807
6.659372,14.701547933245516,0.08463105417932554
6.661724,14.7158516570135,0.08429069147578626
6.66406,14.730295150408343,0.08394763067510344
6.666408,14.742736543056772,0.08361241314814924
6.668752,14.752896295705062,0.08329125552413798
6.671096,14.755839041300604,0.08300193219120129
6.673436,14.748771283164062,0.08275046850430576
6.67578,14.74035305058716,0.08251058276975545
6.678124,14.72448549353203,0.08228830550694817
6.68046,14.710480267596457,0.0820610058772227
6.682812,14.696335272034025,0.08183698965615957
6.685156,14.680979571658094,0.08162139060244428
6.687496,14.664413166468663,0.08141353018308219
6.689836,14.647706991652376,0.08120882887613583
6.692188,14.632071752022723,0.08099862657205129
6.694524,14.615645116460154,0.08078712468784734
6.69686,14.606155948696616,0.08055188205284229
6.699204,14.594664680186657,0.08032381554829478
6.701552,14.586525986863478,0.08007663163203023
6.703888,14.574383092047464,0.07984344477040221
6.706232,14.569177665030479,0.07958690103704066
6.70858,14.554473590960606,0.07937227148073027
6.710916,14.538326494651756,0.07915194490295362
6.713264,14.522598707223487,0.07892172317933034
6.715604,14.50715045904894,0.07868471510961922
6.717952,14.494263390128248,0.07842744095401956
6.720296,14.490455659379863,0.07813649671761948
6.722636,14.483202805646085,0.0778460907994222
6.724984,14.481956254151559,0.0775342756506464
6.727328,14.485133213030448,0.07720015477944725
6.729672,14.486447840789777,0.07687014348326852
6.732016,14.483898036683138,0.07655008701876523
6.734356,14.487773843696326,0.0762008132704805
6.736696,14.486062657350844,0.07586190517256473
6.739036,14.484211701378502,0.07552641039873045
6.74138,14.48301237171222,0.07519545787269748
6.74372,14.475806739806687,0.07488491341025239
6.746064,14.469532273460931,0.0745726151892788
6.748408,14.465120138234733,0.07425714981658775
6.750752,14.461918707822033,0.07393309322357983
6.753084,14.451640039983445,0.07363292206049002
6.755424,14.451371875876939,0.07330023986923984
6.757764,14.455899309196187,0.07295710168500882
6.760104,14.46214930400813,0.07261393593101015
6.762452,14.473753974753267,0.0722486503320861
6.764792,14.487220976617959,0.07188062924464413
6.767132,14.500827748109511,0.07151152613103352
6.769472,14.522303152959871,0.07112186604525404
6.771816,14.542055996317535,0.07073331057567692
6.774156,14.555942307062809,0.0703604856992423
6.7765,14.571458631502162,0.06997199818314027
6.778844,14.594331732621123,0.06955674678557502
6.781188,14.612409236314335,0.06915283789435726
6.783528,14.635981185567598,0.06872438102917215
6.785864,14.659041278141663,0.06828912973292012
6.788208,14.681589514036531,0.06784706545825427
6.790552,14.703486123625341,0.06739984226796006
6.792892,14.726361120602173,0.06693334037846875
6.795236,14.747653325713166,0.06646453790175083
6.79758,14.76936483970474,0.06598692156364923
6.799928,14.794708468136813,0.06548761187059762
6.802272,14.815955347277432,0.0649839252891955
6.80462,14.831615233059383,0.06448809178679872
6.806972,14.849696528468332,0.06398038374831783
6.809316,14.86084035607825,0.06348952857128508
6.81166,14.871984183688168,0.06299963055799354
6.814004,14.878472183499195,0.06251521437877104
6.816348,14.880164585884469,0.062039422388198116
6.818684,14.884650484949079,0.06156206518630356
6.821032,14.893000815879661,0.061078618339405436
6.82338,14.897998571623472,0.060609214501756596
6.82572,14.896990025128028,0.06015407542256424
6.828064,14.896633104938642,0.059703614229125505
6.830404,14.890502199935481,0.059278977627791656
6.8327480000000005,14.881577798252987,0.05885563012633576
6.835096,14.871862000637577,0.058429709709424536
6.837436,14.865219238955222,0.05799563639582112
