Time,Force,Position
7.010835999999999,0.28600300070858725,0.0
7.013168,0.2802762377230571,0.0
7.015511999999999,0.2724076043642499,0.0
7.017860000000001,0.26761200693849807,0.0
7.020199999999999,0.26388734469938474,0.0
7.022539999999999,0.2575089554077967,0.0
7.02488,0.2529928972357653,0.0
7.027224,0.2519219620491268,0.0
7.029564000000001,0.252061731675987,0.0
7.031904000000001,0.2504789398101508,0.0
7.034243999999999,0.24633496869045685,0.0
7.036592000000001,0.24004912719748592,0.0
7.038931999999999,0.2374879479436283,0.0
7.041271999999999,0.2326451286896333,0.0
7.043616,0.2213766983158072,0.0
7.045956,0.21425223906167495,0.0
7.048296000000001,0.20926965018081975,0.0
7.05064,0.2049386876060225,0.0
7.052984,0.20312168245683976,0.0
7.055327999999999,0.2037714129050284,0.0
7.057668,0.20753950525664636,0.0
7.060008,0.21144547137725525,0.0
7.06236,0.22186770055844315,0.0
7.064708,0.23647733097182966,0.0
7.067052,0.2628634567225015,0.0
7.0694040000000005,0.29925629448951907,0.008976705743069262
7.071744000000001,0.34728585796696176,0.01760021503318586
7.074083999999999,0.40951332640868743,0.025913463025619116
7.076428,0.4833775205608381,0.034104659579488814
7.078768,0.5727428722893875,0.04214920735530778
7.081116,0.673652401929745,0.05009781939582522
7.0834600000000005,0.7847556350415515,0.05803472723911551
7.085808,0.9012569741990555,0.06610609529710895
7.088151999999999,1.0265089945890324,0.0741940715698115
7.090496,1.1675889336373717,0.08214943595212404
7.092836,1.3191421154108807,0.09002718894027956
7.095184,1.4767450295361446,0.09799605439733175
7.097531999999999,1.6420276897072434,0.10598534062059838
7.099880000000001,1.8159212614839548,0.11398009394487027
7.102216,2.0018255418812982,0.12183020635604327
7.104559999999999,2.194200759368847,0.12965717488375472
7.106908000000001,2.394724149468923,0.1373852941849279
7.10924,2.5972043143450416,0.1450354381274566
7.11158,2.800524992840191,0.1525725680945397
7.11392,2.993791737490752,0.1600802110842913
7.116268,3.1789141012445237,0.1585466451734474
7.118608,3.3496062426085342,0.1574069180889171
7.120951999999999,3.507730492702343,0.156553649152857
7.1233,3.6531470818990877,0.15584287830234664
7.125636,3.7858560101987675,0.15527875622988702
7.127984,3.90674122133292,0.15485847653132737
7.130324,4.016873650488181,0.15449804116988147
7.132672,4.12384239176964,0.15394730450182872
7.135012,4.223084165177021,0.15342168121581165
7.1373560000000005,4.309523834030852,0.153123518949941
7.139704,4.384791412025212,0.1529415011964335
7.142047999999999,4.451727617667681,0.15269224792806116
7.144387999999999,4.5103324509582565,0.15240141159009546
7.146732,4.558511263351905,0.15207857364685687
7.149072,4.589978213355658,0.15193731811521408
7.151415999999999,4.6139051869404355,0.151746980936908
7.153756,4.6293137967182165,0.15159570364369856
7.1561,4.636808447166817,0.15154022344519447
7.158443999999999,4.637552621271492,0.15159470612273326
7.160788,4.633501197950416,0.15176705142112373
7.163131999999999,4.6260971994425635,0.1520503579170394
7.165468000000001,4.620415762427406,0.15230538864132448
7.167804,4.618039678770782,0.15250956709516536
7.170147999999999,4.62031942291305,0.15260904655857166
7.172488,4.62138846224182,0.15275326546968054
7.174835999999999,4.624878911197587,0.15280788435354684
7.177175999999999,4.629719834593713,0.15280557148013985
7.17952,4.633537044631442,0.15277485085189693
7.18186,4.635539145377859,0.1527224659158812
7.184203999999999,4.639730338325797,0.15254357031950416
7.186544,4.64755364571423,0.15223632061765613
7.188888,4.659520924222357,0.15181820429518736
7.191228000000001,4.674002160156097,0.15136974843670187
7.193572,4.691089901314072,0.15093720107059833
7.195912,4.7127862484426934,0.15046432558519696
7.198252,4.73601816560891,0.15004265177005516
7.200595999999999,4.757992156133383,0.14972353520305587
7.2029440000000005,4.784342435203027,0.14933375797782686
7.205284000000001,4.812275506138507,0.14892967329542278
7.207636000000001,4.847565353753596,0.14832775722812322
7.20998,4.886487315809182,0.14760564602385326
7.21232,4.928110226745487,0.14678874476129017
7.214663999999999,4.964425683576841,0.14606815986114025
7.217003999999999,4.993291815929968,0.14549652857911202
7.219352000000001,5.022856796417398,0.14486571513997124
7.221696,5.0500475891060725,0.14426209565545203
7.22404,5.0755158203020505,0.14368369306496556
7.226380000000001,5.095117518885639,0.14323952950957072
7.228724,5.118071792656002,0.1427003912112993
7.231071999999999,5.1413056056800865,0.14214570594433254
7.233411999999999,5.15909219497236,0.1416927101414493
7.235759999999999,5.172083186838883,0.14134306885151277
7.238099999999999,5.176321601615063,0.14112434172269847
7.240444,5.178744907099931,0.14088436304339633
7.242784,5.179073564039764,0.14064345893395855
7.245127999999999,5.175165702061285,0.14045771694455875
7.247468,5.172748084150027,0.14021207477378703
7.249815999999999,5.171261631798546,0.13995199150695156
7.252155999999999,5.17242890649954,0.13965422968671037
7.254504000000001,5.167682426759901,0.13953407280357216
7.256848,5.16074685481874,0.13952320911350855
7.259188,5.152134047355259,0.13963440058358784
7.26154,5.1471986803026475,0.13973622586090814
7.263876,5.152878221459933,0.1396841571213092
7.266220000000001,5.165959865267204,0.13956182022664743
7.268564,5.1815082446718455,0.1394667209070504
7.270911999999999,5.202224308554576,0.13930928826349792
7.273251999999999,5.226897352101898,0.139119810276546
7.275596,5.252174800127035,0.13899375964894442
7.277948,5.280989918936181,0.13887513713753144
7.280284,5.316555514089253,0.1386881708025625
7.282628000000001,5.358219959280192,0.1384303109164958
7.284967999999999,5.412361643800588,0.1380060294738182
7.287312,5.4684582072391565,0.13760114568319004
7.289652,5.527301045528817,0.1372051626059853
7.291995999999999,5.589449237177011,0.13677526317009547
7.29434,5.6533199903178994,0.13633364410645454
7.296683999999999,5.714909103458652,0.13595965441205005
7.299028,5.774635885479848,0.1356245637723463
7.301372000000001,5.839717343434236,0.13517331348495315
7.303716,5.90843091582912,0.1346315903301331
7.306051999999999,5.981056141918223,0.133985355654938
7.308391999999999,6.056010229835705,0.13325150900766247
7.310732,6.125424546222759,0.13257295407101807
7.313079999999999,6.189810947758585,0.1319577736412422
7.31542,6.255175736682433,0.13129073713084047
7.317764,6.318306107434386,0.13064140374364525
7.320104000000001,6.383346031134139,0.12992872511037043
7.322456000000001,6.44522037110222,0.12923494613401115
7.324804,6.502486105099653,0.12856613438894304
7.327152,6.554444384992134,0.1279612015800714
7.329496000000001,6.60058335410047,0.12740603696552685
7.33184,6.63820206354394,0.12697033177674882
7.33418,6.676100312241131,0.12652415946370818
7.33652,6.714837178699482,0.12603615221477177
7.338856,6.75706638997147,0.12548481591627667
7.341203999999999,6.79943537087032,0.12493384696616754
7.343544,6.8402215599033305,0.12438965546709452
7.345888,6.880076583376566,0.12385929373569914
7.348228000000001,6.919419750170602,0.12332779548324656
7.350567999999999,6.954898485098664,0.12285121400211758
7.352912,6.983859061108278,0.12245094807371741
7.355252,7.00760473081156,0.12213530308500375
7.3576,7.03065155238054,0.121858404148931
7.35994,7.051044646897045,0.12160509013487349
7.362296000000001,7.070786115107493,0.12135115781359955
7.364635999999999,7.090807122571662,0.12108619289110886
7.36698,7.110688360408971,0.12083283330492278
7.36932,7.132059842313496,0.12054257607783907
7.371663999999999,7.153151784964306,0.12026713200257579
7.374012,7.175733971682332,0.11995501197345665
7.376355999999999,7.200178489519917,0.11962539556009953
7.3787,7.229745365865218,0.11919071124945395
7.381043999999999,7.257077824038624,0.11875886960048389
7.383392000000001,7.284038195159692,0.11831464695967939
7.385724,7.3055513425489504,0.11792169492433016
7.388064,7.323759136579675,0.11754535868731529
7.390408000000001,7.343736713931337,0.11712084365815897
7.392756,7.365344304977081,0.11665672887601765
7.395092,7.38280792490313,0.11624952444413475
7.397432,7.403484350389094,0.11579966299133268
7.39978,7.4261628766214764,0.1153254025722592
7.40212,7.448841402853858,0.1148494330351121
7.404476000000001,7.470356446100984,0.11435672929060087
7.406815999999999,7.492942424534749,0.11384878686964478
7.409164,7.513386532595236,0.11337409277359936
7.4115,7.529686669536029,0.11295378702336162
7.41384,7.5425416834914305,0.11255530400817469
7.416192000000001,7.557119258939528,0.11215076210405457
7.418536,7.571836604014483,0.11173976069474108
7.42088,7.587996971328417,0.11133591088425485
7.423223999999999,7.604669195321545,0.11094611666384706
7.425572000000001,7.620223262299793,0.11061361257851036
7.427908,7.637360121143878,0.11028063311975848
7.430251999999999,7.651796031107245,0.11000356550925693
7.432592,7.667674963309587,0.10973123772401099
7.434939999999999,7.686999018497324,0.10944347369110273
7.437279999999999,7.705344686297039,0.1092022160519
7.439624,7.720198009283118,0.10901607154311023
7.44196,7.737053433015614,0.10880895856725822
7.444296,7.748554180814917,0.10867098457913126
7.44664,7.763360281972754,0.10852416076887327
7.448976,7.783101750183202,0.10832997433296214
7.451319999999999,7.804146471005765,0.10814699838374839
7.453659999999999,7.828636314813722,0.10795016636508678
7.456004,7.850844518621542,0.10778531902842306
7.458347999999999,7.878919255041751,0.10756658484911319
7.460684,7.9050844385141605,0.10739722013377989
7.463032,7.926034715680239,0.10728906275110182
7.465375999999999,7.9477763887792365,0.10718057104655222
7.467715999999999,7.963931068519561,0.10711467611886237
7.47006,7.977432021207413,0.10706387129235881
7.472403999999999,7.985625519790315,0.10704306723227906
7.474743999999999,7.989954586507243,0.10705687898018544
7.477088,7.996565293224307,0.10703800972642771
7.479431999999999,8.002384604008457,0.10702006351657133
7.481776,8.006481353299906,0.1070102031921783
7.484120000000001,8.00927484997924,0.10698945614881925
7.486459999999999,8.012487655539156,0.10695005392446696
7.488804,8.012906964419738,0.10693145878583417
7.491144,8.015747682927316,0.1068740067527849
7.493484,8.009416515463972,0.10688023429248032
7.495832,7.996147880201596,0.10695395627344094
7.498172,7.981575992327106,0.10701650721108828
7.500524,7.960765484787889,0.1071148013307166
7.502872,7.943447322062307,0.10716126653892162
7.505216000000001,7.918540065231639,0.10726894748727776
7.50756,7.893680030229214,0.10734180077741474
7.5099,7.870729548174588,0.10736396229440799
7.512248,7.842471612015012,0.10741663464468384
7.514595999999999,7.814772754362878,0.10744486804105201
7.516932000000001,7.7879125144719055,0.1074341414296254
7.519276,7.762123209767573,0.10741034590056928
7.521623999999999,7.736473674690099,0.10738076775905282
7.523968,7.7032350455075385,0.10741630684687907
7.526308,7.668273854832281,0.107459874104162
7.528651999999999,7.629448232291051,0.10753913864116643
7.531000000000001,7.5895516745631815,0.10763266448203776
7.533344,7.552588383141509,0.10769550071262819
7.535684,7.514554156533196,0.10777410585600901
7.538031999999999,7.474657598805327,0.10786703786671512
7.540367999999999,7.443421070369183,0.10788092945248215
7.542719999999999,7.417259678612512,0.10783813771543407
7.545059999999999,7.391330604281317,0.10782077736039161
7.547404,7.366704782562239,0.1078158315075795
7.54974,7.342451047895498,0.10782862843340797
7.552084000000001,7.324575702520344,0.10779611178485143
7.554435999999999,7.312659437556199,0.10773777237034163
7.556775999999999,7.305491548189562,0.10767438458425242
7.55912,7.312151372592739,0.10751010813359822
7.561463999999999,7.325282134086121,0.10733463963070142
7.563803999999999,7.337806595243823,0.107222794750064
7.566148,7.354567575319831,0.10709516811946114
7.568491999999999,7.375053217634955,0.10693954639613466
7.570831999999999,7.401497940361085,0.10675718857863224
7.573180000000001,7.431387786072609,0.10655959438470403
7.575524,7.4677957907025805,0.10631300812441226
7.577868,7.507928457571666,0.10603852790541257
7.580208000000001,7.544429010000253,0.105824973966951
7.582552,7.587727260601011,0.10555011398418411
7.584899999999999,7.637403900493355,0.10523586613617986
7.587244,7.687080540385701,0.10492848298077073
7.589587999999999,7.735826014718268,0.10463221114620314
7.591932,7.788063833864471,0.1042868953760704
7.594272,7.845516559317006,0.10388533412287378
7.596615999999999,7.899524161784148,0.10349817632811309
7.598952000000001,7.951809202758595,0.10312229223066606
7.6013,8.002930760747786,0.10273527616456356
7.603648,8.048605095005168,0.10238401158834332
7.605992,8.083896838478127,0.10211561564890993
7.608332000000001,8.11816486859269,0.1018282684897854
7.610676,8.15727571796125,0.10147031629860657
7.613020000000001,8.196666106583528,0.10110471672653433
7.615364,8.236056495205807,0.10074262529044045
7.617711999999999,8.277076897522164,0.10034695248395333
7.620063999999999,8.319028465398302,0.09994906295240617
7.622403999999999,8.356836062154745,0.0995946370347503
7.624748,8.395435054844105,0.09924379672653726
7.627096,8.435524291600686,0.09886273310334943
7.629436,8.473471657983989,0.09850942059965259
7.631779999999999,8.508625527687956,0.09817806485685725
7.634124,8.54056659183201,0.09788239936611229
7.636471999999999,8.5728797430284,0.09760528687177877
7.638804,8.600909153478236,0.0973740368489189
7.641147999999999,8.626936463181655,0.09716231983628347
7.643504,8.658271226990024,0.09693029540234668
7.64584,8.694261818597285,0.09667544611631554
7.648187999999999,8.734349159495995,0.09642194474350473
7.650532,8.77709022744718,0.09615862359637749
7.652868,8.821693626517924,0.09588498776927203
7.655203999999999,8.864946551148307,0.0956362782967759
7.657548,8.908711332457889,0.09540399065233807
7.659903999999999,8.951405178580831,0.09518460081756763
7.662248,8.995961355823331,0.09495883972810551
7.664588,9.045964756797638,0.09471542036298643
7.666931999999999,9.09983258963792,0.09445365157487308
7.669271999999999,9.157844393597895,0.09415990981093136
7.671607999999999,9.215856197557871,0.09386963444536733
7.673952,9.2786635989436,0.09355573577852327
7.676292,9.342541935515966,0.09323578520721854
7.67864,9.406560041715194,0.09291444602670895
7.680984,9.475001658287836,0.09255441524336949
7.683324000000001,9.543210957434997,0.09217634159729575
7.685675999999999,9.616914702142214,0.09175084458555469
7.688015999999999,9.691968921289792,0.09131228027780952
7.69036,9.763997326332557,0.09087039114028267
7.6927,9.825782910217761,0.09047578278548965
7.695055999999999,9.879747082572402,0.09010321538269635
7.697395999999999,9.935760577501702,0.08969312979587722
7.69974,9.993543855751941,0.08925431859988825
7.70208,10.049372255084005,0.08880144752444943
7.704420000000001,10.100592048445423,0.08834354680894863
7.706764,10.15279022919486,0.08785745557818601
7.709108,10.201822826212625,0.08737211143851838
7.711460000000001,10.24145121983399,0.08690467085787143
7.713799999999999,10.270604474872318,0.08646018116563568
7.716144,10.294078188753355,0.08601501682632934
7.718488000000001,10.313874462223522,0.08555700738320594
7.720824,10.332367483081576,0.08509281212025117
7.723172,10.349836790581232,0.08461143681022786
7.725516000000001,10.362790039908855,0.08414240132698814
7.727855999999999,10.370296065504672,0.08369050313901219
7.7302,10.37729023442129,0.08322974105261441
7.732544000000001,10.380419971471934,0.08278858296257957
7.734895999999999,10.378893880723686,0.08236394949599415
7.737235999999999,10.382442926654912,0.08191346062874522
7.73958,10.39628201557194,0.0814030918013839
7.741928,10.415056471541579,0.08087097340414376
7.744260000000001,10.430757891578164,0.080359536690783
7.746604,10.445388376428111,0.07985816112679821
7.748951999999999,10.463603753890313,0.07935229821893951
7.751284,10.48312238396463,0.07885943234696166
7.753627999999999,10.501290539598587,0.0783849847723553
7.755972,10.522252191911877,0.0779053816222665
7.758319999999999,10.547170823889761,0.07743471819044552
7.760655999999999,10.580050637025067,0.0769545368030559
7.763,10.619029300198243,0.07647186061922888
7.765356000000001,10.66224448228973,0.07599218701991536
7.767692,10.703317794007939,0.07553002261161715
7.770028,10.744902962405344,0.07508173365746663
7.772372000000001,10.79528792972134,0.07460349726596266
7.77472,10.85032872483622,0.07411681411898324
7.777051999999999,10.90909418219022,0.07362649786646813
7.779396,10.969210113984575,0.07312541197987767
7.781751999999999,11.034401182458405,0.07260507135813658
7.784096,11.094796653506478,0.07210596271018749
7.786440000000001,11.149837448621364,0.07164264161921265
7.788784,11.20287614298983,0.07119193973438585
7.791124,11.259779269224271,0.07073415895177418
7.79346,11.319755431391766,0.07026838399521279
7.795804,11.379871363186123,0.06980449012395615
7.798147999999999,11.442408704607477,0.06932613950963627
7.800488,11.504154650095915,0.0688485837025902
7.802832,11.566040365211212,0.06837297652169144
7.805172000000001,11.630627029207227,0.06787682459831909
7.807516,11.693119044658207,0.0673720281102231
7.809851999999999,11.754168037870212,0.0668648825181867
7.812196,11.816707275149433,0.0663478432937825
7.814532,11.880457217242157,0.06582600945203874
7.816872,11.950213461574128,0.06529252983577641
7.819215999999999,12.017176209226763,0.06477075436014218
7.82156,12.089214093558875,0.06424041003460823
7.823907999999999,12.160972438637263,0.06372363235743914
7.826248,12.236036137074185,0.06321824618785216
7.828588,12.311611692190304,0.06272824234566603
7.830932000000001,12.386767938425844,0.06225105111488957
7.833276,12.468070256527495,0.061758651202950106
7.835616,12.5524456105622,0.06126172478168864
7.837960000000001,12.63281676310407,0.06078030017998424
7.840304,12.710114879712888,0.06031390064578485
7.842644,12.786342061135064,0.05985662112708149
7.844991999999999,12.860427372183963,0.05941239062097558
7.847332,12.938237345471977,0.0589685592966281
7.849688,13.011111951707377,0.058538466693589676
7.852028000000001,13.080773752382864,0.05812547885518202
7.854372,13.14987647455091,0.057728934662136556
7.856716,13.222564089331211,0.05733808910182564
7.859052,13.289897028178315,0.05697031646871019
7.8614,13.356578340719363,0.056600519594871126
7.86374,13.41366845840891,0.05624754901702769
7.866084000000001,13.471177884979035,0.055889318211576416
7.868423999999999,13.517885411884158,0.05555319611308565
7.870768,13.560076880617245,0.05521862705906426
7.873112000000001,13.60082532711136,0.054879155184384965
7.875448,13.637057715433444,0.054540849384737085
7.877791999999999,13.676502909315445,0.054193735061772226
7.880144,13.707288073905717,0.05385879852588857
7.882488,13.733929267376299,0.0535366728049429
7.884828000000001,13.759639295287101,0.05321543511118882
7.887172,13.78506978394418,0.0529014436758455
7.889524,13.80570467517551,0.052592755072584416
7.891868,13.827270731966623,0.052285161327366186
7.894212,13.846043292078392,0.05198028851456226
7.896559999999999,13.869471679989056,0.05167481721445272
7.898896000000001,13.892760298272862,0.05137348756113919
7.90124,13.91511775099689,0.05107324867605417
7.903587999999999,13.92746469998883,0.05079107624726465
7.905924000000001,13.944607246406523,0.05050585107090768
7.908268,13.95769836950314,0.05024812036982734
7.910612,13.973303450025371,0.049996025026920424
7.912955999999999,13.98299477610697,0.04977197830551054
7.9153,13.992127023681125,0.04955903764626331
7.917643999999999,13.999769027188062,0.04935790085825098
7.92,14.002847750694723,0.049175540024567234
7.922336,14.004436230134168,0.049004895338928045
7.92468,13.99945932882692,0.048855626594746876
7.927023999999999,13.996577076064707,0.048720585376224486
7.929372000000001,13.992344348862131,0.04859443608501829
7.931708,13.988483708711897,0.04847996040896633
7.934051999999999,13.978476996695552,0.048377445880897194
7.936404,13.971775638037737,0.04828338614703353
7.938744,13.961721704193149,0.0482013293836727
7.941088000000001,13.945381928855587,0.04813402122606412
7.943432,13.924106786465416,0.048072629456744724
