Time,Force,Position
5.169463999999999,0.27232058793105046,0.007504794766649166
5.171843999999999,0.21380031051349613,0.005047111453249948
5.17424,0.1627293575741683,0.0025807298901480025
5.176624,0.12124959948634409,0.0
5.179004,0.08642776994382835,0.0
5.181408,0.06105736562595603,0.0
5.183796,0.043276055413170485,0.0
5.186175999999999,0.031221508185915056,0.0
5.188572,0.020141965125061508,0.0
5.19096,0.015720350609516414,0.0
5.19334,0.008833487860350287,0.0
5.195735999999999,0.003808956230740798,0.0
5.198123999999999,0.002509086840244593,0.0
5.20052,0.002509086840244593,0.0
5.202924,0.002509086840244593,0.0
5.205308,0.002509086840244593,0.0
5.207688,0.009620683583411015,0.0
5.210091999999999,0.02613458786510846,0.0
5.212476,0.04990892931205987,0.0
5.214856,0.08681024053665559,0.0
5.217259999999999,0.13762991747181375,0.01030928328623002
5.219648,0.19985400269191975,0.019989775659701003
5.222027999999999,0.26961806433100016,0.02964491731776396
5.224424,0.34641024570985723,0.039248042304616565
5.226807999999999,0.430230546828491,0.048807873552265804
5.229188,0.5220101332466798,0.05825881975142052
5.231583999999999,0.6226801705242019,0.06755386860501046
5.233968,0.7295869316085826,0.07686716400087282
5.236347999999999,0.846131700878591,0.08597578366689114
5.238751999999999,0.9704959858212946,0.0949586222750608
5.241139999999999,1.107519222469068,0.10381106625286037
5.243519999999999,1.257809198521346,0.11243374262584663
5.245916,1.422995927672208,0.1207425370883317
5.248304,1.6021954661901188,0.12873740385665347
5.250683999999999,1.7877261721713742,0.13662941247170424
5.253087999999999,1.9805664330039958,0.14432377298215499
5.255472,2.169507902653367,0.15190006517726612
5.257851999999999,2.3501179999508452,0.15943785652258438
5.260251999999999,2.5230955730307323,0.16694381545588818
5.262636,2.679640822974443,0.17450535462009273
5.265016,2.8209644545954746,0.1717500838842872
5.267423999999999,2.949440655692583,0.16963046576678797
5.269808,3.070237110743856,0.16755071074045821
5.272192,3.186379633854107,0.1654910427744048
5.274587999999999,3.297868225023336,0.16344351521354097
5.276972,3.402421244251405,0.16154066782028437
5.279355999999999,3.501389165978673,0.15973916355975454
5.281752,3.597425717257616,0.15786663560144654
5.284135999999999,3.6849439047295625,0.15619318067944435
5.286532,3.7669242165289516,0.15451600382845457
5.288927999999999,3.838850594483752,0.15293002821368143
5.291311999999999,3.896346750048792,0.15155189825420284
5.293691999999999,3.937503130276272,0.15049182753248058
5.296096,3.965066010017284,0.14970619197984786
5.298483999999999,3.9875084271084504,0.14897575130689866
5.300864,4.001710123788471,0.14846438253063668
5.303256,4.008834583042605,0.14817215112768592
5.305644,4.016750438229655,0.1478740420322669
5.308035999999999,4.028483503454436,0.14754736647044642
5.310432,4.046827275396281,0.14711944274647823
5.312815999999999,4.071130127749134,0.1465971820729562
5.315195999999999,4.09817925495308,0.14607787205161227
5.3176,4.126299317343664,0.14552427706862026
5.319988,4.1528365878684115,0.14499525162003365
5.322363999999999,4.176068505034626,0.14451704912937038
5.324759999999999,4.200278809588863,0.14395169769754868
5.327148,4.219181660038149,0.1434922543006107
5.329539999999999,4.233568452315405,0.14313022361080727
5.331943999999999,4.244230582353547,0.142851969999795
5.334328,4.249398266831636,0.14276198623498296
5.336712,4.255869203921842,0.14268216065569203
5.339104,4.2621531495569425,0.14268310930332603
5.341492,4.270391974110218,0.14269689250449388
5.343872,4.2797942816487495,0.14273346030922482
5.346275999999999,4.289708445866478,0.14278874676179862
5.348664,4.304278437883099,0.14274161912007163
5.35104,4.324435423258389,0.14256603168580384
5.353443999999999,4.341659142327484,0.14246671482961548
5.355831999999999,4.3555775080380466,0.14241562656973186
5.358211999999999,4.366330290016936,0.1423980512462312
5.360608,4.368283273077242,0.14259993543324195
5.362991999999999,4.3701437083389285,0.14274673503550217
5.365372,4.374146013973893,0.14282884376709393
5.367776,4.3762859884892995,0.14295027628734303
5.370159999999999,4.381219459684043,0.14301255643605976
5.37254,4.386292700505646,0.14306346893828087
5.374935999999999,4.394438977260305,0.14303211135565116
5.37732,4.4047271243882395,0.14293728083874477
5.379715999999999,4.4215806522628665,0.1426443108681226
5.382108,4.439784654577853,0.14229257403813647
5.384496,4.459339131333198,0.1418940703039363
5.386876,4.484108514394874,0.1413571249321958
5.38928,4.509436975963991,0.14077540670841218
5.391664,4.534393350480772,0.1401719390003944
5.394044,4.558837868318355,0.13955934278357215
5.396439999999999,4.575553522423991,0.1391155582725823
5.398824,4.59133801096985,0.13869350038019695
5.40122,4.608984830635263,0.13823392370463317
5.403624,4.6268639677261545,0.1378139099347263
5.406007999999999,4.646325896682882,0.13738381779469236
5.408388,4.672445754184918,0.13680876237279055
5.410792,4.696656058739155,0.13633310457619693
5.41318,4.718165414412674,0.13596881564296592
5.41556,4.744470367511944,0.13550733610178192
5.417963999999999,4.771566716544132,0.13504820668460768
5.420348,4.796101886322462,0.13468341629610053
5.422728,4.8242219487130455,0.13427150589785036
5.425123999999999,4.852342011103629,0.1338631665920073
5.427507999999999,4.875619254240218,0.13361598332032287
5.429892,4.900339519615783,0.13336897131244632
5.432296,4.920496504991073,0.13325444845809126
5.434679999999999,4.938511619993086,0.1331987987828288
5.43706,4.955967656487659,0.13318627247857764
5.43946,4.970722744101514,0.13326902472489177
5.441843999999999,4.983708048394429,0.13343134623072095
5.444228,5.002420115672874,0.13348452207123412
5.446632,5.025136384444153,0.13345593558176455
5.449015999999999,5.051996624335126,0.13333884504306173
5.451399999999999,5.079555712360399,0.1331700750645427
5.453791999999999,5.108185735572311,0.13298079129583942
5.456179999999999,5.136583441358746,0.13276214252876867
5.458559999999999,5.165679995279482,0.13248936836341485
5.460952,5.19440446214788,0.1321896887912535
5.46334,5.220195662710084,0.13195101684241403
5.465732,5.2429138273392315,0.13177810901383152
5.468136,5.266563157528157,0.13158837643004273
5.47052,5.283135250291195,0.13154321985206283
5.4729,5.30021919973343,0.13151386662435915
5.475303999999999,5.32065572436244,0.13140127882103708
5.477692,5.340440622685393,0.13128415775782115
5.480071999999999,5.361436225821845,0.1311293059686256
5.482475999999999,5.379358793025241,0.13103773779815997
5.48486,5.397840438736078,0.13090723452488978
5.487239999999999,5.41953489000683,0.13070158315490105
5.489643999999999,5.442719585344801,0.13044065589591167
5.492031999999999,5.467114985496273,0.13015097892758953
5.494407999999999,5.486575018595131,0.12995801046228547
5.496804,5.494813843148406,0.12998928731864634
5.499192,5.505054768448098,0.12998377177448936
5.501568,5.507706599642704,0.1301010574660018
5.503963999999999,5.506214459717617,0.1303040021336426
5.506351999999999,5.506864190165804,0.13045876973713336
5.508731999999999,5.509655790987271,0.13056610881413763
5.511128,5.511935535129538,0.1306586531752149
5.513512,5.5119808610999135,0.13075518751456175
5.515907999999999,5.5100713081521135,0.13083647083098088
5.518304,5.509931538525254,0.1308461434350984
5.520692,5.508628285913138,0.130835943729263
5.523072,5.502948744755852,0.1308769074770947
5.525463999999999,5.495965950986447,0.1309073536206136
5.527848,5.489682005351345,0.1308896995035942
5.530243999999999,5.48116364154435,0.13087704502169836
5.53264,5.473576443297132,0.1308493670302241
5.535028,5.465756927624437,0.13078699137650696
5.537408,5.455283684899268,0.1307568562378527
5.539811999999999,5.443087880681402,0.1307432770437414
5.542196,5.430100680530618,0.13073445035304396
5.544579999999999,5.4268916666864415,0.13050576948409878
5.546976,5.420609616909208,0.13033816783194194
5.549359999999999,5.4221962004907835,0.130031276423289
5.551744,5.430440712617666,0.1296211208334299
5.554139999999999,5.435472419184634,0.1292812191376731
5.556523999999999,5.437942946497743,0.12901660145926214
5.55892,5.439574856049692,0.12880826931483288
5.561312,5.448516320453007,0.1285026286492233
5.563695999999999,5.463556634894189,0.12813485841486535
5.566079999999999,5.482833468253683,0.127732370158208
5.568483999999999,5.504484489411931,0.12732220087144328
5.570868,5.53009249023477,0.1268937122874865
5.573247999999999,5.563521902588173,0.126397101544508
5.575651999999999,5.598766424232888,0.12592980546211072
5.578039999999999,5.644905393341222,0.1253364144101353
5.580415999999999,5.691276679875035,0.12478234157504034
5.582819999999999,5.7401147020062195,0.12426917941445494
5.585207999999999,5.795703200481328,0.12370772901364682
5.587587999999999,5.855108908994168,0.12315088180717515
5.589984,5.919542532358237,0.12256163665745788
5.592368,5.984952647252458,0.12206465128659155
5.594748,6.052038101811132,0.12159875455311792
5.597151999999999,6.119867730474483,0.12118886645474225
5.59954,6.185787806190032,0.12085957957987371
5.601919999999999,6.258737897503228,0.1204720520002565
5.604316,6.336343816615314,0.12003259319999535
5.606699999999999,6.416883002033598,0.11955014533516888
5.60908,6.497002878571299,0.11910909626150724
5.611484,6.574561575855142,0.11873904065964161
5.613872,6.652911669071905,0.11837922668151968
5.616252,6.730842453408086,0.11804801797537176
5.618647999999999,6.809564633677185,0.11771912416620575
5.621031999999999,6.879487015027699,0.11750871454059163
5.623428,6.948757770072157,0.11729457186104007
5.625832,7.013232927690863,0.11714697942962844
5.62822,7.077475767884093,0.11697525270702644
5.6306,7.13762185878587,0.11682228618214509
5.633003999999999,7.193671200396198,0.1166908258122966
5.635388,7.240688425662463,0.11663523790256722
5.637768,7.281606800890859,0.11662186959368145
5.640164,7.3174047134694105,0.11660105861844741
5.642551999999999,7.350875660077449,0.11654421923620667
5.644932,7.3795982310879795,0.11649924479631608
5.647336,7.402641260941223,0.11647418220764692
5.649719999999999,7.416931713704126,0.1165118587763581
5.6521,7.427404956429297,0.11655285490726636
5.654495999999999,7.437925420982711,0.11655449716636462
5.656883999999999,7.444349136244675,0.1165725819498529
5.659263999999999,7.44602447590913,0.116601568200212
5.661659999999999,7.442392361468635,0.11666890661164103
5.664048,7.435874202550188,0.11672963217512936
5.666427999999999,7.425678603220872,0.11678526113266816
5.668831999999999,7.417113017585635,0.11679847367636598
5.671216,7.405242078591865,0.1168259495186108
5.6736,7.386992750306503,0.11690826879568678
5.675992,7.365670386088087,0.11703017572896866
5.67838,7.344627561123391,0.11713835151520599
5.680775999999999,7.322793340225776,0.11724776928138003
5.683172,7.307244960821134,0.11727106504971063
5.685555999999999,7.295840552536184,0.11723879353269587
5.687931999999999,7.286158705743929,0.11719572922920084
5.690335999999999,7.280201521190791,0.11711787002011356
5.692723999999999,7.276525976637788,0.11700233264006715
5.695104,7.274572993577481,0.11687594459914569
5.697508,7.275553276823371,0.11671613141774066
5.699891999999999,7.279047517494874,0.11654499409146674
5.702272,7.282122449285799,0.11639557711626106
5.704676,7.284266215516943,0.1162545184767356
5.707059999999999,7.293207679920256,0.11604142526630566
5.70944,7.301217978763791,0.11583569567171852
5.711844,7.312021774286661,0.1156055190051044
5.714227999999999,7.324408361675368,0.11537271379397296
5.716611999999999,7.336003553131154,0.11514153559248975
5.719015999999999,7.353185737945613,0.1148616288058825
5.7214,7.376653764253043,0.11449737553143274
5.723779999999999,7.400401329814194,0.11411807821957938
5.726183999999999,7.423217729815567,0.11374700183451729
5.728568,7.444032029070524,0.11339839925295703
5.730947999999999,7.462424918698482,0.11309552237073119
5.733351999999999,7.479886642766663,0.11280354155026162
5.735739999999999,7.496556970901924,0.11251421534701399
5.738119999999999,7.508291931984574,0.11227998040047305
5.740524,7.517605483440226,0.11208910575255901
5.742907999999999,7.533624185269431,0.11179917917270224
5.745288,7.5517847574719115,0.11148201596419222
5.747683999999999,7.56500996262178,0.11121810947371796
5.750072,7.576093297398371,0.11098400670682426
5.752451999999999,7.590109898481158,0.11072076224555726
5.754855999999999,7.597980427697834,0.11053142160886385
5.757243999999999,7.606921892101148,0.11032688263910242
5.759619999999999,7.612790320571408,0.11015926887447897
5.762023999999999,7.616656648295251,0.11001375559526576
5.764407999999999,7.619032731951873,0.10990172860105318
5.766787999999999,7.617823922996245,0.10981464206640255
5.769191999999999,7.615264639600257,0.10975495412971874
5.771579999999999,7.615638622510464,0.1096662077306955
5.77396,7.617874936540227,0.10956247894033422
5.776355999999999,7.62611755280924,0.10939509296652009
5.778743999999999,7.636641809078393,0.10919424235762042
5.781119999999999,7.645024194974266,0.10902128726883484
5.783528,7.656200077549475,0.10882770368832917
5.785911999999999,7.671380161617518,0.108592444644655
5.788291999999999,7.688841885685697,0.10832361061542388
5.7907,7.7013210208730225,0.10814410060905512
5.793084,7.715522717553044,0.10795950223665902
5.795464,7.73293721979298,0.10773491438127582
5.797864,7.750631261286639,0.10749778458668052
5.800252,7.764041562033742,0.10731370805605644
5.802632,7.783318395393236,0.10707603421041148
5.805036,7.80725105655162,0.10680558639288888
5.80742,7.833046048829564,0.10652132107837282
5.809803999999999,7.864847343346756,0.10618051083558601
5.812207999999999,7.903725875289838,0.10576945887571408
5.814592,7.9433958031658385,0.10535973122472661
5.816971999999999,7.983717357347896,0.10495798962107039
5.819368,8.027763573769066,0.10453783116281652
5.821756,8.072601186123155,0.10412010795894182
5.824136,8.114086223290467,0.10375059964210781
5.826531999999999,8.15529172120406,0.10339670351764244
5.828919999999999,8.202363751730042,0.10299687825364454
5.8313,8.249156243002306,0.10261442421514912
5.833695999999999,8.297671295767266,0.10223142952378046
5.836083999999999,8.348840075584699,0.10184129603036766
5.838468,8.398146524282575,0.10146154123930574
5.840863999999999,8.445311102607176,0.10111051052721134
5.843251999999999,8.49391870317075,0.1007681029301269
5.845631999999999,8.545319800413662,0.10041113901833595
5.848028,8.603798135082464,0.09999319183908499
5.850412,8.662556009004986,0.09957254117376954
5.852795999999999,8.722384818114142,0.09914957690412392
5.855192,8.7851468935295,0.09870922435024083
5.857575999999999,8.843625228198299,0.09831834253234811
5.859975999999999,8.901312166934181,0.09793622301752002
5.862379999999999,8.959650731976122,0.09756183359563388
5.864764,9.016266735525367,0.09719354023008726
5.867143999999999,9.065014105715806,0.09688559534383243
5.869547999999999,9.112690540719605,0.09658951221429968
5.871935999999999,9.160506745350265,0.09628895507101332
5.874315999999999,9.207391784421146,0.09599518483011134
5.876711999999999,9.25199518349189,0.09573178266442942
5.8791,9.296738352189493,0.09546651868969941
5.881479999999999,9.34069012495418,0.09520529676678523
5.883883999999999,9.382779566599309,0.09495702720996085
5.886268,9.429292518617853,0.09466563327378218
5.888652,9.473011973957062,0.09438889566028004
5.891047999999999,9.516359342243936,0.09409961749482244
5.893435999999999,9.557984149038111,0.09381731872893481
5.895815999999999,9.594813358406531,0.09356582160865073
5.898212,9.627498596655258,0.09334944888387267
5.9006,9.65352590635868,0.09317065950137517
5.902979999999999,9.675828553822987,0.09301084924112782
5.905376,9.70055261091429,0.09282413528688023
5.907763999999999,9.721924092818817,0.09267141377959483
5.910144,9.746787919536981,0.09248406035497785
5.912544,9.775655947747978,0.09227189351052414
5.914927999999999,9.810670047825088,0.09201672169419375
5.917307999999999,9.851038823835388,0.09172072731905412
5.919716,9.895691340592244,0.09139336853868332
5.9221,9.941694331789456,0.09105015444135742
5.924483999999999,9.984252200001277,0.09071447784810693
5.92688,10.021734931533626,0.09041290641088551
5.929268,10.054142526386503,0.09014572814836029
5.931648,10.087760826052879,0.0898679892327975
5.934043999999999,10.121239356092394,0.0895981047126443
5.936431999999999,10.157651152438104,0.08931274180726793
5.938812,10.189779208037258,0.08906138225240404
5.941207999999999,10.220556789196056,0.08882810496865562
5.943596,10.253196701474412,0.08858829250439822
5.945992,10.287047318566263,0.08833628703619287
5.948387999999999,10.321549561964172,0.0880886124306621
5.950772,10.359124841295138,0.08782241470287776
5.953152,10.394418480625964,0.08757935423922747
5.955559999999999,10.429200263277597,0.08732689842526488
5.957943999999999,10.456765038876478,0.0871241520391209
5.960323999999999,10.481536317796023,0.08693415052549772
5.962723999999999,10.502303395222736,0.08676879519963546
5.965111999999999,10.514410443357724,0.08664507623761458
5.967491999999999,10.518509088507043,0.0865673157718284
5.969888,10.524470064775919,0.08648342234326652
5.972276,10.530570810671653,0.08639505007519738
5.974655999999999,10.541514375821388,0.08625814969928781
5.977052,10.556881451344534,0.08608600835027037
5.979439999999999,10.56624222462843,0.0859474197009413
5.981823999999999,10.567874134180379,0.08584426850854088
5.98422,10.565781381493215,0.08575453775944805
5.986608,10.567972369552605,0.08563390983782157
5.988988,10.572864306492711,0.08548073421210702
5.991392,10.574171350820563,0.08533648765892145
5.99378,10.57254512884222,0.08520641831534856
5.996159999999999,10.576273582797073,0.0850386356869212
5.998556,10.574926900072452,0.08490036783872879
6.000944,10.572276964735714,0.08475121289664214
6.003324,10.569766799025837,0.08459776279490837
6.005727999999999,10.570748978129595,0.08441293582306976
6.008112,10.57000859574066,0.08423026053242709
6.010495999999999,10.566474716672387,0.08405669036396536
6.012887999999999,10.561730132790613,0.08389409032712408
6.015275999999999,10.55926718890898,0.08371137733909555
6.017672,10.549215150922258,0.08355869833840132
6.020067999999999,10.541025444055093,0.08339957262939199
6.022455999999999,10.527201522001015,0.08328670668812527
6.024836,10.509233628827246,0.08319930641548333
6.027228,10.49433877158653,0.08309349549675436
6.029616,10.486381382144842,0.08295214102211808
6.031995999999999,10.48242819419599,0.08278940863444116
6.034392,10.475401970314081,0.0826449254954904
6.036779999999999,10.462741531245257,0.08254647174041943
6.039176,10.45273481922891,0.08244292370964819
6.041572,10.445661373518757,0.08232557224132614
6.043959999999999,10.431370920755855,0.082251633555124
6.04634,10.421224439112647,0.08215219974265893
6.048735999999999,10.412241440454697,0.08206839269531567
6.051123999999999,10.402978902543026,0.08199319635355748
6.053503999999999,10.393297055750775,0.0819309687787963
6.055908,10.383056130451083,0.08188602142716365
6.058296,10.37854196813692,0.08181867833771332
6.060676,10.3846899358609,0.08170587251381763
6.063076,10.39521419213005,0.08158754667872745
6.065459999999999,10.410114736944374,0.08146288591952992
6.06784,10.427017382505113,0.08132911472998645
6.070244,10.44592212881227,0.08118442676876617
6.072632,10.468551537358541,0.08102826081127529
6.075008,10.493834672957284,0.0808686621675288
6.077403999999999,10.518698499675446,0.08072311797907925
6.079788,10.540209751206834,0.08060364520248667
6.082183999999999,10.566935909044554,0.08045421099920662
6.08458,10.599016742815467,0.08026934484265279
6.086963999999999,10.632308281399878,0.08007454757762306
6.089344,10.664389115170792,0.07989156954447944
6.091748,10.702616020807815,0.0796753683247898
6.094136,10.738840825698421,0.07947032661177927
6.096516,10.77562470909647,0.07924929980514774
6.098919999999999,10.813479527681157,0.07902216612424127
6.101304,10.849611784773145,0.07879673599509324
6.103687999999999,10.891238487425188,0.07853439497172325
6.106084,10.931142628584535,0.07827541289340802
6.108467999999999,10.963317906011932,0.07804797968425874
