Time,Force,Position
8.716472,0.011409059072235017,0.0
8.718867999999999,0.014819928383267301,0.0
8.721255999999999,0.017439401761381475,0.0
8.72364,0.020058875139495648,0.0
8.726035999999999,0.02388905333110856,0.0
8.728423999999999,0.02388905333110856,0.0
8.730808,0.02388905333110856,0.0
8.733203999999999,0.023889053331108565,0.0
8.735591999999999,0.023889053331108565,0.0
8.737972,0.023889053331108565,0.0
8.740368,0.023889053331108565,0.0
8.742756,0.023889053331108565,0.0
8.745135999999999,0.023889053331108565,0.0
8.747539999999999,0.02388905333110857,0.0
8.749927999999999,0.02388905333110857,0.0
8.752308,0.02388905333110857,0.0
8.754704,0.02388905333110857,0.0
8.757092,0.02033841439321607,0.0
8.759471999999999,0.018755622527379848,0.0
8.761871999999999,0.020897492900656914,0.0
8.764256,0.02117703215437733,0.0
8.766639999999999,0.02252750659473628,0.0
8.769036,0.026531708087569984,0.0
8.771424,0.028533808833986835,0.0
8.773819999999999,0.031467075140182,0.0
8.776216,0.04144332519790569,0.0
8.778604,0.05221097118854747,0.0
8.780984,0.06297861717918926,0.0
8.78338,0.0725355583563323,0.0
8.785768,0.0792990028541404,0.0
8.788152,0.08485174253844974,0.0
8.790548,0.08919377740926034,0.0
8.792931999999999,0.09339604265321075,0.0
8.795316,0.09852947345693946,0.0
8.797711999999999,0.10180057314111154,0.0
8.800099999999999,0.10199863689222824,0.0
8.80248,0.10340740545684368,0.0
8.804879999999999,0.10340740545684367,0.0
8.807267999999999,0.10237072394456571,0.0
8.809648,0.0985405457529528,0.0
8.812044,0.0947103675613399,0.0
8.814432,0.08994902380994864,0.0
8.816816,0.08332534893900077,0.0
8.819211999999998,0.07870377481446975,0.0
8.8216,0.07194033031666167,0.0
8.823984,0.06196408025893799,0.0
8.826384,0.05119643426829619,0.0
8.828768,0.0404287882776544,0.0
8.831164,0.030871847100511343,0.0
8.833568,0.024108402602703256,0.0
8.835951999999999,0.01855566291839391,0.0
8.838332,0.016880323253940635,0.0
8.840736,0.017346853962764416,0.0
8.843124,0.019024089485086937,0.0
8.845504,0.02628831836607938,0.0
8.847907999999999,0.038487914299683845,0.0
8.850296,0.048405870233151044,0.0
8.852672,0.060523990664151775,0.0
8.85508,0.07157117590851399,0.0
8.857467999999999,0.0826183611528762,0.0
8.859848,0.08938180565068429,0.0
8.862243999999999,0.09707641570827069,0.0
8.864631999999999,0.10383986020607877,0.0
8.867011999999999,0.10874097358433021,0.0
8.869408,0.11229161252222271,0.0
8.871792,0.11677341701989354,0.0
8.874175999999999,0.12204661745048248,0.0
8.876572,0.12690050900049077,0.0
8.87896,0.13161463092363884,0.0
8.88134,0.13632875284678692,0.0
8.883735999999999,0.141042874769935,0.0
8.886123999999999,0.1402968048073908,0.0
8.888508,0.13562800885461662,0.0
8.890903999999999,0.1288173425285654,0.0
8.893291999999999,0.11828201396340089,0.0
8.895672,0.10588435427867972,0.0
8.898076,0.09455762978059708,0.0
8.900459999999999,0.08243950934959636,0.0
8.902844,0.07139232410523415,0.0
8.905247999999998,0.06034513886087194,0.0
8.907632,0.05358169436306385,0.0
8.910012,0.04588708430547745,0.0
8.912415999999999,0.03912363980766936,0.0
8.914804,0.03422252642941791,0.0
8.917183999999999,0.03067188749152541,0.0
8.919588,0.026190082993854592,0.0
8.921975999999999,0.020916882563265668,0.0
8.924356,0.016062991013257377,0.0
8.926751999999999,0.011348869090109293,0.0
8.929136,0.006634747166961207,0.0
8.931516,0.0019206252438131225,0.0
8.933919999999999,0.0,0.0
8.936307999999999,5.82941242564811e-05,0.0
8.938687999999999,0.000396127502233384,0.0
8.941092,0.0003961275022333839,0.0
8.94348,0.0003961275022333839,0.0
8.94586,0.0016651264399886075,0.0
8.948255999999999,0.005867391683939002,0.0
8.95064,0.009790117674168975,0.0
8.953019999999999,0.015575174783955592,0.0
8.955416,0.020289296707103676,0.0
8.957799999999999,0.02500341863025176,0.0
8.96018,0.026924043874064885,0.0
8.962575999999999,0.027913503558099684,0.0
8.964964,0.028763193615274275,0.0
8.967343999999999,0.030823588485947608,0.0
8.96974,0.033023752983481154,0.0
8.972123999999999,0.03302375298348115,0.0
8.97452,0.03302375298348115,0.0
8.976916,0.03302375298348115,0.0
8.979299999999999,0.03302375298348115,0.0
8.981684,0.034712060801817005,0.0
8.984079999999999,0.03465376667756052,0.0
8.986464,0.03431593329958362,0.0
8.988847999999999,0.0362837803716399,0.0
8.991252,0.03825162744369617,0.0
8.993635999999999,0.036982628505940945,0.0
8.996016,0.032780363261990554,0.0
8.99842,0.028857637271760578,0.0
9.000808,0.023072580161973964,0.0
9.003188,0.018358458238825877,0.0
9.005592,0.013644336315677796,0.0
9.007976,0.011723711071864673,0.0
9.01036,0.01073425138782987,0.0
9.012764,0.00988456133065528,0.0
9.015148,0.007824166459981945,0.0
9.017532,0.005624001962448402,0.0
9.019928,0.005624001962448402,0.0
9.022316,0.005624001962448402,0.0
9.024696,0.005624001962448402,0.0
9.0271,0.005624001962448402,0.0
9.029488,0.003935694144112548,0.0
9.031868,0.004692836402670082,0.0
9.034272,0.004692836402670082,0.0
9.036656,0.0033423619623111304,0.0
9.039036,0.00278328345487029,0.0
9.04144,0.006333922392762785,0.0
9.043828,0.010955496517293809,0.0
9.046204,0.017579171388241686,0.0
9.048612,0.02513401181896788,0.0
9.050996,0.03534257930216883,0.0
9.053376,0.04592323383770725,0.0
9.055772,0.05552550098522421,0.0
9.058156,0.06736218630463528,0.0
9.06054,0.08329562091549711,0.0
9.062936,0.10425697037758803,0.0
9.06532,0.12638180282493452,0.0
9.0677,0.1491110397500958,0.0
9.0701,0.16853302745885515,0.0
9.072488,0.19209709042943915,0.0
9.074868,0.21980322866184784,0.0
9.077272,0.25579541327577515,0.0
9.07966,0.29731440126624664,0.008070855203705896
9.08204,0.34429168528454124,0.016139618074496643
9.084432,0.3940494978282881,0.02419103900224174
9.08682,0.4471126637305677,0.031967365530009964
9.0892,0.499337211871686,0.03976460218542422
9.091604,0.5517940774382816,0.04758179410081043
9.093992,0.6067649004304917,0.055034841797040754
9.096372,0.6610368752884007,0.06263418580379089
9.098768,0.7126079012655918,0.07046908936059626
9.101152,0.7679035894818963,0.07808998731003401
9.103548,0.8258530047506755,0.08582340642588258
9.105944,0.8852454422584307,0.09348223044415396
9.108332,0.9450099668185233,0.1010464878482377
9.110716,1.0011423769381198,0.10878232598326802
9.113112,1.0595092052296105,0.11652136496855153
9.115495999999998,1.1215081479615971,0.1240657159346389
9.117876,1.1923087854700387,0.1311607411443717
9.120284,1.2571522384253422,0.13819036880027563
9.122668,1.315107341267729,0.14520146329732392
9.125048,1.360959187690867,0.15227787325927167
9.127444,1.397501274374091,0.1513333714023675
9.129832,1.4289701202357121,0.15030917098863347
9.132216,1.4548991945669063,0.14948631256026265
9.13462,1.4737510314722115,0.1493578985331276
9.137004,1.4917642506163555,0.14945250875608668
9.139384,1.5108011831188948,0.14962773367533236
9.14178,1.5255071530466366,0.1504749785798219
9.144172,1.545380807452468,0.1509859517316963
9.146552,1.5704693681646318,0.15099213485265628
9.148948,1.5939751370109598,0.1511049664969434
9.151336,1.6198097676856675,0.15083272209006832
9.153716,1.642246497203226,0.15057632029443438
9.15612,1.6597025336977982,0.15037616020767142
9.158508,1.6752509131024405,0.14996567098710983
9.160888,1.683025102804761,0.14974996827044484
9.163284,1.6868423128424916,0.1496666072630771
9.165672,1.6820920413871137,0.1502624282774266
9.168052,1.6807396710888851,0.1508743719271303
9.170448,1.6846475330673634,0.15140331562432424
9.172836,1.6916737569492708,0.15202237120277898
9.175216,1.7040999827347445,0.1525208443553831
9.177612,1.7192724833713104,0.15303405219806365
9.18,1.7401717469934064,0.15319399490544924
9.182396,1.7689868658025527,0.152653426461681
9.184792,1.7993394505071612,0.15175876182158574
9.18718,1.8295069396145356,0.15063238185973526
9.189564,1.8588377068186182,0.14918699020381088
9.191956,1.8829082417459944,0.14790636091569215
9.194344,1.898086429956168,0.1470567156201046
9.196728,1.9058152936881152,0.14658996611058167
9.199124,1.9066066896210332,0.1465691219371654
9.201512,1.9061873807404524,0.14665738276507423
9.203892,1.9021359574193755,0.14708963154459737
9.206292,1.8984566211506362,0.147592084543891
9.20868,1.9025986964124608,0.14773835592805049
9.21106,1.9060419235399844,0.14803765930298501
9.213464,1.9181451799592333,0.14780007458526828
9.215848,1.9261044652587882,0.14785558776771848
9.218228,1.9301993186923698,0.1481545013341136
9.220632,1.9365758121260888,0.14825048928778928
9.22302,1.9395071825744148,0.14850015103542372
9.225404,1.9409955307837647,0.14876325072301305
9.2278,1.9378280511942232,0.14927910868601754
9.230188,1.9277231038056526,0.15021811968923846
9.232568,1.9144053508571663,0.151387594208881
9.234968,1.8975952530950444,0.15284381446717843
9.237352,1.8800863071986211,0.15447154017932835
9.239732,1.8630892179813954,0.15612586326199898
9.242136,1.8523307484288982,0.1574956116216446
9.24452,1.8498129992875454,0.15844627353162052
9.2469,1.8553962009304763,0.1589835894283924
9.249296,1.866007317424637,0.15932917962189222
9.251684,1.884207528023884,0.1592325997010713
9.254064,1.9059926312353845,0.15897654976266862
9.256468,1.9261949425810485,0.1587931321821361
9.258852,1.949470289859768,0.158419616626155
9.261232,1.9645974645259596,0.1585571777676668
9.263636,1.9860104806851226,0.15828479252031846
9.266024,2.012498633523758,0.15771471609749582
9.268404,2.0371244552428363,0.1572375974361282
9.2708,2.0653351695741677,0.15660985838697927
9.273188,2.092986805398059,0.15608763929948116
9.275568,2.123943794580482,0.15545973001241115
9.277972,2.1608598641739127,0.1546193802497665
9.280356,2.204154323058932,0.15351919197208566
9.28274,2.252104609742842,0.1521957353916196
9.285136,2.3036397890390057,0.1506968404068086
9.287524,2.3559663642680873,0.14919311959823917
9.289904,2.409084335430087,0.14774979674174665
9.292308,2.4607592843531108,0.14639247394261237
9.294696,2.506195613611406,0.1453221357589785
9.297076,2.5472556543245313,0.1444300763608618
9.29948,2.5864533639180993,0.1436533099618264
9.301868,2.622717807205472,0.14303051145826323
9.304248,2.660425272731821,0.1424339957142995
9.306644,2.697201572698391,0.141899446793876
9.309032,2.7401239445310726,0.1410713824229619
9.311412,2.781835611550255,0.14036590427858173
9.313808,2.820474242636382,0.1398242603961686
9.316196,2.8623256792824248,0.1391459984939168
9.318576,2.901523388875993,0.13855163710183827
9.32098,2.941280176977002,0.13788099790082084
9.323368,2.9788025469061172,0.13723255571693763
9.325748,3.0092949012375856,0.13676172675876694
9.328144,3.0326174703445488,0.13649856994276477
9.330532,3.0526346860929783,0.1363030810563896
9.332916,3.071488418856153,0.1360800039398665
9.335312,3.0909012301267684,0.13579321968771996
9.3377,3.1019335513593784,0.13574855500769228
9.34008,3.11189493740535,0.13575185124423483
9.34248,3.125580985690436,0.13564643694529352
9.344868,3.139546573229241,0.13550411704911813
9.347248,3.155933570395044,0.13524965759132146
9.349652,3.1708775453218716,0.13499379756147672
9.35204,3.1826559365170257,0.13478090415112837
9.35442,3.192711766219484,0.13460545621181208
9.356815999999998,3.1982515377499108,0.13454420015483326
9.359204,3.198483855175388,0.13460238941021385
9.361584,3.2002064166680846,0.13456866384727265
9.36398,3.1969936111081685,0.1346932454724252
9.366368,3.196993611108169,0.1346932454724252
9.368764,3.1962022151752514,0.13470130670407285
9.371168,3.1986236248022477,0.13458963976362587
9.373552,3.207330875922216,0.13425565526142746
9.375932,3.2181799974154623,0.13383806566826095
9.378328,3.2302398237222065,0.13336787637878347
9.380716,3.247514556335283,0.13274149643190375
9.383096,3.2641376626423018,0.13211916510363014
9.3855,3.2894680200692883,0.13117549506140352
9.387884,3.3152176863768563,0.13019545411861724
9.390264,3.3347287330196966,0.12933572032516555
9.39266,3.3534483837296185,0.12848027088964417
9.395048,3.363508005147815,0.12785369974372002
9.397428,3.3707741298866765,0.1272827797755678
9.399832,3.3740360531327047,0.12682756576590576
9.40222,3.3732937748858993,0.12649257135970624
9.4046,3.3728310358928137,0.12612341012268222
9.407004,3.3773036639523406,0.1256014911535536
9.409392,3.377632320892173,0.12522420001551857
9.411772,3.3810340137650616,0.12474122109523644
9.414168,3.3784294043986995,0.12445094650428795
9.416556,3.3748936294725587,0.12418389794567394
9.41894,3.364140847493669,0.1241662170625221
9.421332,3.3533880655147787,0.12414103025327745
9.42372,3.341843887602971,0.12412177148642256
9.4261,3.327366443384968,0.12418602374529542
9.4285,3.2985947546883256,0.12472259198092098
9.430888,3.2675414259915474,0.12534949597897152
9.433268,3.2337871484140503,0.1260908066602519
9.435672,3.198822166023055,0.12687807501580922
9.43806,3.169304407363869,0.12755330836156392
9.44044,3.1425801453840183,0.12815472180737986
9.442848,3.1195805456432804,0.1286863806667458
9.445232,3.1032388744478516,0.12904435086232563
9.447612,3.0949056062380897,0.1291561500112415
9.450008,3.096862381014133,0.1289336823726474
9.452395999999998,3.097748220603538,0.12874768104334725
9.454776,3.0947696283269686,0.12866613239651334
9.457172,3.094072676050536,0.12849174404804706
9.45956,3.0935154934009645,0.1283024701977016
9.461939999999998,3.0949604114978104,0.12805017898421023
9.464336,3.097196725527573,0.1277909766137384
9.466724,3.104508176236809,0.1273648646750825
9.469104,3.1072563469457695,0.1271306860532141
9.4715,3.1114475398937076,0.1269003392620835
9.473888,3.117221524707481,0.12665504135114708
9.476284,3.134868344372895,0.12603575929803207
9.47868,3.154517264784725,0.12535330065220607
9.481068,3.1712329188903605,0.12475479686523619
9.483448,3.188088342622857,0.12414068656711116
9.485844,3.2024298089297383,0.1235695876364849
9.488232,3.213838008930425,0.12308895705378824
9.490612,3.229902036730003,0.12250023413046794
9.49302,3.245034898969803,0.12195008856940164
9.495408,3.25495285490327,0.12158162102135278
9.497788,3.2585849693437656,0.12142720065735149
9.500184,3.266872911583153,0.12117213876306818
9.502572,3.2807478471812113,0.12080001146123043
9.504952,3.2951346394584666,0.1204562771200207
9.507348,3.306029086922086,0.12024660193435709
9.509736,3.3186460958784028,0.12001139934832912
9.512116,3.3339168318871937,0.11973531924738559
9.514516,3.352120834202179,0.1193972047396262
9.5169,3.36781087909155,0.11907476538756445
9.519284,3.3857825639810586,0.11867642054962996
9.52168,3.405756349616984,0.11822770905628668
9.524068,3.4218657033869357,0.11787951349439789
9.526452,3.4346224819701114,0.11764386406491195
9.528848,3.4528264842850973,0.11730992340516531
9.531232,3.4735444440256975,0.11695463936368294
9.533628,3.4980796138040287,0.1165976408266215
9.536028,3.52685130250067,0.11619486321879581
9.538416,3.554552056010673,0.1158402115276222
9.540796,3.579831399893679,0.11557920042653431
9.543192,3.607764470829159,0.11527769842535301
9.54558,3.6360696288169776,0.11501184611559755
9.54796,3.6610222116180196,0.11485819091560744
9.550356,3.682622219232286,0.1148166367612501
9.552744,3.704082457219692,0.11478848419727965
9.555124,3.7315489974463483,0.1146168122746031
9.557524,3.7619488039792,0.114388665338217
9.559912,3.7906260490193553,0.1141865953993661
9.562296,3.8146002444323757,0.1141451005380051
9.564692,3.844952829136984,0.11399830827460036
9.567076,3.8718130690279566,0.11396960291702664
9.569456,3.894249798545515,0.11406732589277674
9.571852,3.9181295503020492,0.11417101504778515
9.57424,3.947875834670974,0.11414922612482196
9.576636,3.978041427920479,0.11409815160564346
9.57904,4.0074156252370665,0.11405539702595238
9.581424,4.03469517400862,0.11399905084821661
9.583808,4.057738203861862,0.11398162008473366
9.586204,4.07677703222227,0.11404782977878114
9.588592,4.0970265653961775,0.11407265315244368
9.590972,4.118207264129863,0.11408363857877656
9.593368,4.13980727174413,0.11405644260348914
9.595756,4.166482416037868,0.11392185764692193
9.59814,4.192226394771828,0.11379844693726543
9.600536,4.217970373505789,0.11367427524046775
9.602924,4.241852021120192,0.11358593840959454
9.605304,4.26387133761504,0.11353158068972438
9.6077,4.2866820500428044,0.11347680188388846
9.610088,4.311262545791509,0.11333688340253059
9.612472,4.336402120047654,0.11315772996110529
9.614868,4.365545895796633,0.1129035681711253
9.617256,4.401115282665444,0.11249935163098546
9.619636,4.436033043228196,0.11208779403864685
9.622032,4.468297076738473,0.11171350373778097
9.62442,4.4945548080095,0.11145405151572392
9.626804,4.516808337787693,0.11126800722020765
9.6292,4.538782328312167,0.11110606423046998
9.631588,4.563410045889116,0.11091644053553087
9.633972,4.586454971600227,0.11072409851494881
9.636368,4.6097794365650575,0.11051173708882406
9.638756,4.630869483357995,0.11029793224229675
9.64114,4.654241170151071,0.11003046461641007
9.643536,4.670815158771977,0.10987602599542973
9.645928,4.689950326646741,0.10964355802374269
9.648308,4.71336923526806,0.10932497626756642
9.650704,4.736788143889378,0.10901136090621416
9.653092,4.75741355583136,0.10873534863222098
9.655472,4.775385240720869,0.10848564152428333
9.657868,4.7904236593041825,0.10828222513537666
9.660256,4.80224927232758,0.10814849384580148
9.662652,4.808627661619168,0.1080761580972474
9.665048,4.812352323858281,0.10803009812744405
9.667436,4.815704899045057,0.10795507488114703
9.66982,4.815193042365859,0.1079358933754006
9.672216,4.818033760873437,0.10784089244525083
9.674604,4.821154018634736,0.10772395012650333
9.676984,4.825904290090115,0.10754520993522143
9.67938,4.828420143373599,0.1073608054097933
9.681772,4.836290672590275,0.10706755362311
9.684152,4.846163302553368,0.10674537441733939
9.686552,4.854825227702962,0.10645452706386016
9.68894,4.859762490613444,0.10621056725844256
9.69132,4.867260932777782,0.1058927060715632
9.693724,4.871826108635927,0.10561954642194997
9.696112,4.868941960015844,0.10543507179391785
9.698492,4.86154175322373,0.10529454771448221
9.700888,4.853350150498698,0.10515446414957072
9.703276,4.844367151840748,0.1050149044239726
9.705656,4.841530225048907,0.1047692263689358
9.708052,4.840323311951147,0.10446298863952562
9.71044,4.839675477360828,0.10411429951663313
9.71282,4.839446951651089,0.10373745218726976
9.71522,4.841220526687768,0.10333204144749701
9.717607999999998,4.850211108777193,0.10280625217388764
9.719988,4.857339359747065,0.10230224570598938
9.722384,4.86875135146349,0.1017193242864034
9.724772,4.8749484368735825,0.1012265977141714
9.727156,4.882076687843454,0.10072440560851945
9.72956,4.8890651691864635,0.10023827408290463
9.731944,4.891537592357444,0.09979261031855408
9.734324,4.894569094035863,0.0993070944601621
9.736724,4.8946673294080885,0.09885596870485056
9.739108,4.894625795153453,0.0984152482043844
9.741492,4.896074504966036,0.0979260347088154
9.743888,4.898454380338397,0.09742314170421239
9.746276,4.904838457203593,0.09686114981010333
9.748656,4.912573008509147,0.09625777289678457
9.751052,4.925522466121036,0.09557128197726958
9.75344,4.931394686307034,0.09499233790831758
9.755836,4.934193870559977,0.09446090415350533
9.758232,4.937644681118976,0.09393798652560749
9.76062,4.9366719813045625,0.09349944508084883
9.763,4.9286220440642605,0.09316185669191436
9.765396,4.909909976785815,0.09295190476762094
9.767784,4.89105813988051,0.09275079612304343
9.770164,4.870204202228787,0.0925750273966004
9.77256,4.850421199763704,0.09238014774108358
9.774948,4.827565161365565,0.09223091225076331
9.777328,4.800704921474593,0.09213571934016448
9.779728,4.775567243076317,0.09203063149860455
9.782112,4.750010255797461,0.09195361670273525
9.784496,4.729528405198077,0.09180049980583523
9.786892,4.709326093852412,0.09162502599314247
9.78928,4.68656260325289,0.09151519823965751
9.791664,4.667803314146202,0.09134849274800763
9.79406,4.648904255412653,0.09118995712535588
9.796452,4.630377283731442,0.09106136600671218
9.798836,4.607566571303677,0.09100240494342218
9.801232,4.585035398129632,0.09092429030209383
9.80362,4.565157952008063,0.0908302758647556
9.806004,4.549144937752467,0.09069185951766982
9.8084,4.536204959429926,0.09050866475812402
9.810788,4.530993844839332,0.09023980753077036
9.813168,4.535373925100242,0.08986716492678824
