Time,Force,Position
8.015984,0.15473704285007062,0.0
8.018363999999998,0.1489630580362973,0.0
8.02076,0.14332884284938424,0.0
8.023152,0.14356116027486154,0.0
8.025531999999998,0.14630743512595337,0.0
8.027932,0.1453290477379319,0.0
8.03032,0.14262809885721398,0.0
8.032699999999998,0.13471224367016366,0.0
8.035096,0.12772755404289163,0.0
8.037488,0.11888053329606296,0.0
8.039871999999999,0.11132745838120947,0.0
8.042268,0.10405392272007641,0.0
8.044656,0.09570945187230481,0.0
8.047039999999999,0.08522311065125615,0.0
8.04944,0.07501630868392792,0.0
8.051828,0.0658804419032382,0.0
8.054212,0.05888644549582555,0.0
8.056608,0.05096128352863458,0.0
8.058992,0.044898452681000255,0.0
8.061371999999999,0.03790445627358761,0.0
8.063768,0.03320140664645285,0.0
8.066156,0.031850932206093904,0.0
8.068535999999998,0.03450465925856865,0.0
8.070931999999999,0.028498357019318098,0.0
8.073319999999999,0.020061338372929446,0.0
8.075699999999998,0.016336676133816164,0.0
8.078104,0.013123870573900567,0.0
8.080492,0.01619690650695595,0.0
8.082871999999998,0.01926994244001133,0.0
8.085268,0.0215515824401486,0.0
8.087655999999999,0.026403708474284186,0.0
8.090035999999998,0.03125583450841977,0.0
8.092431999999999,0.03797029166211199,0.0
8.094819999999999,0.04468474881580422,0.0
8.0972,0.05032827078285791,0.0
8.099604,0.057834123869468256,0.0
8.101992,0.06613137288899669,0.0
8.104371999999998,0.0725662907889685,0.0
8.106767999999999,0.07699910794252346,0.0
8.109151999999998,0.08036098990943988,0.0
8.111547999999999,0.0812921554692182,0.0
8.113944,0.0820835514021363,0.0
8.116332,0.07751096462172113,0.0
8.118711999999999,0.0801646916741959,0.0
8.121116,0.08352657364111232,0.0
8.123504,0.08711146625336538,0.0
8.125884,0.09218660293283762,0.0
8.12828,0.09404893405239426,0.0
8.130668,0.09605103479881111,0.0
8.133047999999999,0.10084663222456292,0.0
8.135444,0.10671316483695326,0.0
8.137832,0.11486133744948089,0.0
8.140211999999998,0.12422021487550725,0.0
8.142608,0.13371886192839383,0.0
8.144995999999999,0.14643031454119598,0.0
8.147375999999998,0.15835037122108003,0.0
8.149771999999999,0.1656146001020725,0.0
8.152159999999999,0.17460139047576134,0.0
8.154556,0.1866612167825056,0.0
8.156952,0.2028650142089438,0.0
8.15934,0.21827741570246384,0.0
8.161719999999999,0.2346209827557622,0.0
8.164116,0.25418666214911684,0.0
8.166504,0.26545509252294297,0.0
8.168887999999999,0.2755128180832704,0.0
8.171284,0.2804954069641255,0.0
8.173672,0.2841275214046217,0.0
8.176055999999999,0.28710800953906007,0.0
8.178452,0.2887380232331395,0.0
8.18084,0.28808639692708166,0.0
8.183224,0.28128869875491297,0.0
8.18562,0.2700674902093299,0.0
8.188004,0.2556334761038313,0.0
8.190383999999998,0.24185108830439064,0.0
8.192779999999999,0.22886009643786806,0.0
8.195167999999999,0.21386700382492863,0.0
8.197551999999998,0.20795324938429513,0.0
8.199948,0.20217926457052182,0.0
8.202335999999999,0.19519457494324982,0.0
8.204732,0.1842056838231441,0.0
8.207128,0.1761500590092335,0.0
8.209519999999998,0.16744280788926505,0.0
8.2119,0.1579441608363785,0.0
8.214299999999998,0.15738508232893764,0.0
8.216684,0.15710554307521724,0.0
8.219068,0.16190114050096904,0.0
8.221464000000001,0.16562580274008235,0.0
8.223848,0.17586862389764385,0.0
8.226227999999999,0.1873221498687041,0.0
8.228624,0.1981240495337065,0.0
8.231012,0.21120758919884614,0.0
8.233395999999999,0.22722439517018095,0.0
8.235792,0.23760698595460267,0.0
8.23818,0.2430069878581692,0.0
8.240559999999999,0.2413750783062206,0.0
8.242956,0.24695827994915204,0.0
8.245348,0.2478365361070795,0.0
8.247727999999999,0.25560314237792336,0.0
8.250124,0.27063018581402126,0.0
8.252512,0.2963155675725228,0.0
8.254895999999999,0.3339625402655438,0.010745662951443639
8.257292,0.3875280835576748,0.020778098010115972
8.25968,0.45580149263541714,0.030589826944815855
8.262076,0.5329162348863805,0.04043306906764283
8.264471999999998,0.6300935188561476,0.04978182923990024
8.266859999999998,0.7406754159994103,0.05897786788324857
8.26924,0.8732294078092767,0.06774063306978434
8.271636,1.0140203283145492,0.07649591869346278
8.274024,1.1686823927021412,0.08514341084050804
8.276404,1.3396370105990498,0.09360714872671136
8.2788,1.5266046427515547,0.10192886078013023
8.281188,1.7212047991216508,0.11033319008176859
8.283572,1.9353575363892226,0.11862464439000722
8.285968,2.1704133289946292,0.12673780552361014
8.288356,2.423625902086778,0.1347450958742057
8.290735999999999,2.6767440315224404,0.14284570026337706
8.293140000000001,2.94303824842186,0.15082680441574012
8.295524,3.211753874948278,0.15876911746477154
8.297908,3.4834972114373786,0.16661810287561798
8.300304,3.7531950170675583,0.1743629537378979
8.302692,4.01558705956211,0.1712566681589249
8.305072,4.260477739591716,0.1688592498448473
8.307472,4.490987314917673,0.16660844990145124
8.30986,4.707674864047424,0.1642562089324275
8.312252,4.8991794088085205,0.16243284718249051
8.314647999999998,5.071879338492557,0.16075894752150627
8.317035999999998,5.2181383371662005,0.15957584314286183
8.319416,5.348850852293072,0.1584310165700023
8.321819999999999,5.467275015403461,0.15737971956190255
8.324203999999998,5.571221734295847,0.15654535885302534
8.326588000000001,5.662553340089785,0.15586221978606737
8.328983999999998,5.751140566890503,0.15503831908755702
8.331371999999998,5.832048047645387,0.15424433541094712
8.333752,5.897966227503068,0.15360681821393626
8.336151999999998,5.95518094795652,0.15295609761964837
8.338539999999998,6.0110489856853535,0.1520855301442113
8.34092,6.048482599531592,0.1513684507509936
8.343315999999998,6.074279487667405,0.1506609381717494
8.345703999999998,6.0908138378915435,0.14994811585414433
8.348084,6.095989105801107,0.14934951095336257
8.350483999999998,6.092411796620328,0.14886992946570168
8.352871999999998,6.087623782626051,0.14842067429890152
8.355252,6.0792962019898935,0.14810806650512168
8.357648000000001,6.072317199936225,0.14788655940381812
8.360039999999998,6.0745554098238586,0.1476068260453754
8.36242,6.0825657086673965,0.1473128034738178
8.364823999999999,6.098489966840116,0.14695278115579088
8.367211999999999,6.120513075050702,0.14651315091934916
8.369592,6.139742686581955,0.1461195042896228
8.371991999999999,6.157157188821895,0.14570710198155767
8.374379999999999,6.172244725091322,0.1452679942282368
8.37676,6.180209697964485,0.1448896102855265
8.379155999999998,6.179701633001025,0.1446113871592746
8.381543999999998,6.177098919492531,0.14433414953655796
8.383924,6.166627572625227,0.14420226349485318
8.386319999999998,6.149590845011237,0.1442176752322372
8.388707999999998,6.142098090420503,0.1441166569373006
8.391088,6.139586028852758,0.14401060143337857
8.393487999999998,6.136280675494225,0.14404139068349275
8.395875999999998,6.1380957847855395,0.14405968512814227
8.398256,6.144239960793782,0.14407071805770974
8.400652000000001,6.155551821280114,0.1440220554590223
8.40304,6.173661379938616,0.14385543592623742
8.405435999999998,6.190467685985001,0.1436813710919588
8.407836,6.20625027867299,0.1434868980728243
8.410224,6.218727518002446,0.14332356006270802
8.412603999999998,6.226316612107533,0.14320139590505537
8.415,6.229669187294308,0.1431247921484713
8.417387999999999,6.235722711361802,0.14296861585150694
8.419767999999998,6.24592020654899,0.14273224613920885
8.422168,6.253975831362902,0.14254018561767692
8.424555999999999,6.267199140654902,0.14229225639229082
8.426935999999998,6.282377328865076,0.1420521188263984
8.429336,6.299230856739704,0.1418396486501291
8.431719999999999,6.317619954651925,0.14165925942125654
8.434103999999998,6.335030665176124,0.1415357959231252
8.436499999999999,6.348157634953771,0.14150638386687492
8.438887999999999,6.360213669544775,0.1415006332128562
8.441268,6.37403948745672,0.14142946049312236
8.443663999999998,6.389215779809025,0.14132046045907698
8.446051999999998,6.402949049922354,0.14121343877751213
8.448432,6.413749053729486,0.14115670173755068
8.450827999999998,6.4206846256706465,0.14116365007585616
8.453215999999998,6.4313448598509195,0.14111696608208793
8.455611999999999,6.438372979590696,0.1411607338190129
8.458008,6.448706452689005,0.141175669087291
8.460396,6.4659301717580995,0.14111681973930243
8.462775999999998,6.487110870491785,0.14103388160340943
8.465171999999999,6.508895973703286,0.14100043785727084
8.467555999999998,6.528491984713266,0.14105494077760125
8.469939999999998,6.554047076134253,0.14105118692654414
8.472339999999999,6.577180757928243,0.14110701608175846
8.474727999999999,6.602968166774709,0.14113172371422197
8.477107999999998,6.6339704819275065,0.14106481356014305
8.479503999999999,6.668465141893939,0.14091913463290856
8.481891999999998,6.7124584489132575,0.14060032156234362
8.484272,6.755800129626521,0.14027722127580222
8.486667999999998,6.797279479220227,0.13997938208136582
8.489055999999998,6.832612756947821,0.13978442702121377
8.491451999999999,6.861799962809304,0.13969520657511048
8.493848,6.893920434976982,0.1395620835542079
8.496236,6.9329783749436915,0.13932406992327517
8.498615999999998,6.974690041962873,0.13905847768197205
8.50102,7.014911464914836,0.13883932502864516
8.503408,7.062489664546408,0.13849361163717722
8.505787999999999,7.111837647498922,0.1380993215401798
8.508184,7.153364218920871,0.1377816550780545
8.510572,7.190794041051368,0.13749500703889223
8.512951999999999,7.227339919450331,0.13718187648376723
8.515348,7.263281393371478,0.1368254529215225
8.517736,7.294474491695117,0.13649702601486358
8.520119999999999,7.325714811847,0.1361306814406078
8.522516,7.3560711882673475,0.13573906597356789
8.524904,7.376184743530133,0.13547419157115254
8.527283999999998,7.394063880621024,0.13521563360478778
8.529684,7.405564628420327,0.1350314175428967
8.532072,7.4125493180476,0.1348929616878794
8.534451999999998,7.419581229503115,0.1347149072044676
8.536856,7.432666665026124,0.1344079671924486
8.539244,7.453807725363043,0.13394510830178566
8.541623999999999,7.468710166035234,0.13354484399848512
8.54402,7.471786993684029,0.13327430049462594
8.546408,7.469044510548676,0.13304407174134575
8.548791999999999,7.465697622935506,0.13277130152284505
8.551188,7.451828374911056,0.1326325758052808
8.553576,7.429950723900939,0.13260903791243464
8.555955999999998,7.415662166995909,0.13249130171907442
8.558356,7.401513379717738,0.1323661426525006
8.560744,7.388435527626206,0.13222244713509018
8.563123999999998,7.372564178855339,0.1321102556075267
8.565524,7.355901434151554,0.1320011997513848
8.567912,7.33351192646224,0.1319637308032885
8.570291999999998,7.309539626907089,0.13193154739386162
8.572688,7.289059672165573,0.13183126783270097
8.575076,7.266996925558221,0.13173725159660887
8.577455999999998,7.240929977458037,0.1317011090173062
8.579851999999999,7.222871432343519,0.13154882900437773
8.582239999999999,7.2091891757741715,0.13135633958208756
8.584636,7.194808071070524,0.13119919070604147
8.587032,7.172139024127487,0.1311676119584708
8.58942,7.154405344237064,0.1310689745736897
8.5918,7.143469362518809,0.130881896575282
8.594203999999998,7.139610618226444,0.13059243526342404
8.596591999999998,7.133889542814521,0.13032319368376363
8.598972,7.133011286656594,0.12995277456382995
8.601371999999998,7.137255389006383,0.12946663989112556
8.603756,7.134469475758525,0.1290425524977774
8.60614,7.132102871391247,0.12859609368662933
8.608536,7.122286942545743,0.1282306622270664
8.610924,7.1166149848199325,0.12780128326269544
8.613308,7.111222566347843,0.12735560953896544
8.615704000000001,7.1099741189954475,0.12684346559473875
8.618092,7.1065838012697755,0.12636497455760193
8.620472,7.101051613170825,0.12592027357238214
8.622872000000001,7.094588259512097,0.12548374054131334
8.625256,7.090546315480367,0.12499331871309623
8.62764,7.081057147716827,0.12455871164963327
8.630036,7.0601144539822265,0.12426352226808288
8.632424,7.036937342075731,0.12396872422773773
8.634803999999999,7.0159021005425135,0.12363658836562987
8.6372,6.9910024271433215,0.12335288180714267
8.639588,6.959956681878019,0.12316192974925998
8.641967999999999,6.920762764000187,0.1230912918457103
8.644368,6.881289306868636,0.12303457200816312
8.646756,6.838183735296589,0.12305412754459046
8.649135999999999,6.792097675590101,0.12315266800459451
8.651532,6.747314868495731,0.12326261991275668
8.65392,6.701041817334142,0.1234136447998029
8.656303999999999,6.659284824344582,0.12352205635400045
8.6587,6.611102220235193,0.12374335608711508
8.661088,6.563431472805003,0.12397634180494993
8.663467999999998,6.516412351680868,0.12421036736687248
8.665868,6.472326496862931,0.12440300426462206
8.668256,6.430102973164549,0.1245744740715873
8.670648,6.391743881332139,0.12469180320894781
8.673047999999998,6.35389664617893,0.1248210592641351
8.675432,6.3194945340111115,0.1249209141318369
8.677816,6.29268151594838,0.12492981885617017
8.680219999999998,6.26423848419157,0.12499065498379332
8.682603999999998,6.239799653927593,0.12498892975844303
8.684988,6.217083385156312,0.12497350977098588
8.687383999999998,6.20223574974384,0.12484584679039493
8.689771999999998,6.191904172503401,0.12467101233288264
8.692156,6.18129305600924,0.12451181537060856
8.694551999999998,6.1751979976871105,0.12430456922649649
8.696939999999998,6.169102939364982,0.12409645580374482
8.69932,6.164078816229491,0.1238680378711089
8.701723999999999,6.160125628280639,0.12361912840639665
8.704107999999998,6.159105706637984,0.12332844955949487
8.706487999999997,6.165814648727272,0.12292990663643669
8.708891999999999,6.176248253055677,0.12248870880354153
8.711279999999999,6.186262548503499,0.12207297837691178
8.713659999999997,6.196509161376799,0.12168876806315085
8.716064,6.207267630929297,0.12131808146378716
8.718447999999999,6.216256317160855,0.12100920551608642
8.720827999999997,6.227898730444888,0.12067698094940141
8.723232,6.239121834848341,0.12037122218161521
8.72562,6.252067500744489,0.12005410598346798
8.727999999999998,6.270600159999306,0.11967279576993467
8.730404,6.289225367052742,0.1193347020878308
8.732788,6.312226862651349,0.11896365406127746
8.735167999999998,6.332527409369238,0.11866487275541618
8.737572,6.355481683139603,0.11834613702652207
8.73996,6.383883180641776,0.11797679622904184
8.742339999999999,6.414938405196423,0.11759067542972469
8.744743999999997,6.450230148669382,0.11717878864730034
8.747131999999997,6.49082934624729,0.11672893702906213
8.749512,6.534594127556873,0.1162732609809839
8.751907999999997,6.577660060732152,0.11586154180102129
8.754292,6.618956210586492,0.11550967030489086
8.756671999999998,6.655689080440559,0.11524213672206621
8.759075999999997,6.694656368466519,0.1149771985587213
8.761464,6.737208549104731,0.11468638467753689
8.763839999999998,6.78814121978095,0.11432214222132177
8.766247999999997,6.8413083086290625,0.11395970029100265
8.768632,6.8944281756489305,0.11364218417014467
8.771011999999999,6.949502921586973,0.11334312922596837
8.773408,7.006672316070048,0.11305927402413428
8.775796,7.063282632045684,0.1128080377339824
8.778171999999998,7.118123164700382,0.11260846793413257
8.780576,7.172125079593917,0.1124550721354276
8.78296,7.227570016726427,0.11230499099447176
8.785343999999998,7.283107501657556,0.11219070952950735
8.78774,7.339808469573939,0.11209918756460946
8.790123999999999,7.397672920475579,0.11202996624828448
8.792507999999998,7.457399702496774,0.1119481966465191
8.794912,7.51684694526425,0.11188588021564315
8.797296,7.578156519151283,0.11181140952157052
8.799679999999999,7.640257488971235,0.11173660018988568
8.802076,7.703708933231545,0.11163551851514088
8.804464,7.774097845290885,0.1114624866662826
8.806843999999998,7.845697462163723,0.11127161470220485
8.809239999999999,7.91264125123767,0.11112054389845512
8.811627999999999,7.969574536579531,0.1110787589528344
8.814007999999998,8.028277605242334,0.11099438020574783
8.816403999999999,8.089029996479796,0.11085570484872917
8.818791999999998,8.14996937917236,0.11067794062206168
8.821171999999997,8.208674343693032,0.1105002207066991
8.823567999999998,8.268217925974865,0.11028947453678925
8.825955999999998,8.327157103778882,0.11003744426680495
8.828336,8.384560711545307,0.10975467645825544
8.830739999999999,8.443873872259532,0.10942742944009112
8.833123999999998,8.500860067003245,0.10907062865764681
8.835503999999997,8.55230649021653,0.10872293243054855
8.837907999999999,8.596071271526116,0.10840702766945119
8.840291999999998,8.63373720279783,0.10812229002810561
8.842675999999997,8.667958011084153,0.10785549077571786
8.845071999999998,8.697802530825303,0.10761220269993281
8.847459999999998,8.72448146683478,0.10737256864747136
8.849839999999997,8.74957761097842,0.10713629737309478
8.852235999999998,8.76936630101711,0.10692970455719605
8.854623999999998,8.785198011391213,0.1067278113461767
8.857015999999998,8.804522066578947,0.10647995791841328
8.85942,8.824033113221788,0.10619161013356208
8.861808,8.839959267252375,0.10592507645669427
8.864187999999999,8.85122959348407,0.10569136085583467
8.866591999999997,8.859846192663293,0.10547199747324673
8.868979999999997,8.868090704790177,0.10523776621718757
8.87136,8.870468684304669,0.10505108386199485
8.873756,8.87419713825952,0.10484238507696546
8.876144,8.878065361841232,0.10462907416769734
8.878523999999999,8.878628232064413,0.10442407756499467
8.880927999999997,8.880913663780287,0.10421369053285585
8.883315999999997,8.882267929936384,0.10400854837449425
8.885696,8.889116641652535,0.10374213358524577
8.888091999999997,8.897967454115102,0.1034583969045351
8.89048,8.903373143592276,0.10318624421530191
8.892859999999999,8.908266976390252,0.10290337152325058
8.895256,8.915442449188365,0.10259310574322122
8.897644,8.920103964560864,0.10228903063096376
8.900023999999998,8.923182688067529,0.10198503889609863
8.902427999999997,8.927192577133969,0.10167544575797281
8.904815999999997,8.925335933588022,0.10141084296001275
8.907195999999999,8.927064182654327,0.10112941976417202
8.909592,8.92800103578771,0.10084811364310929
8.91198,8.928658349667378,0.1005771904181218
8.914359999999999,8.929175893920183,0.1003119340485121
8.916756,8.929553668546129,0.10005295995929397
8.919144,8.935937745411323,0.09974507181254703
8.921523999999998,8.94055203895558,0.09947567301411801
8.923924,8.939811656566642,0.09925981981383192
8.926312,8.937301490856765,0.09908172038314968
8.928691999999998,8.93264945477361,0.09892554641631454
8.931087999999999,8.934003720929708,0.09872164261276496
8.933475999999999,8.932657038205084,0.09856095235549142
8.935859999999998,8.933172686600019,0.09839022844479416
8.93826,8.940486033167122,0.09817311728126112
8.940648,8.950732646040422,0.09793618565617279
8.943027999999998,8.958837388540443,0.09772053200972203
8.945424,8.9697356277198,0.09748995119927661
8.947811999999999,8.984358529138271,0.09723991121768227
8.950195999999998,8.998981430556741,0.09699061093512776
8.952599999999997,9.016817137535128,0.09671018426068673
8.954984,9.029717477460899,0.09646508289521391
8.957363999999998,9.043269443692731,0.0962256840204255
8.959764,9.060173985111339,0.09595126942358553
8.962148,9.077078526529949,0.09567741602455351
8.964527999999998,9.089699327202,0.09544376268866793
8.966928,9.09952663119472,0.09522620197087951
8.969311999999999,9.10977324406802,0.09499305316436184
8.971695999999998,9.127097094367207,0.09470504399737543
8.974091999999999,9.14404885761406,0.09440002744339901
8.976479999999999,9.159138289741353,0.09410421566071223
8.978876,9.167941880375679,0.09386484802538746
8.981271999999997,9.176093844703944,0.09361969424695585
8.983659999999997,9.182663017166371,0.09337469977691033
8.98604,9.181363556269996,0.09318338926254185
8.988436,9.17298685794773,0.09304545562039702
8.990824,9.165541325185243,0.09290261786977355
8.993203999999999,9.155953922049479,0.09277946359013226
8.9956,9.140360216674459,0.0926997485863875
8.997988,9.126489072792141,0.09261559696352298
9.000367999999998,9.109125584096182,0.09257116518103817
9.002768,9.095114670587005,0.09249167371825644
9.005151999999999,9.080312361144903,0.09241137409514778
9.007531999999998,9.060574684650192,0.09236409816104696
9.009932,9.040837008155481,0.092316395413483
