Time,Force,Position
8.112172000000001,0.0032680005511572757,0.0
8.114552,0.005024700983681984,0.0
8.116955999999998,0.010925372535900606,0.0
8.119344000000002,0.01696581371497944,0.0
8.121724,0.02193531970741974,0.0
8.124120000000001,0.02676505607299983,0.0
8.126508000000001,0.030384087625081182,0.0
8.128888,0.033071953617384214,0.0
8.131284,0.03575981960968724,0.0
8.133672,0.03937885116176859,0.0
8.136052,0.04271834346012952,0.0
8.138448,0.047408310198849404,0.0
8.140832,0.052098276937569285,0.0
8.143211999999998,0.056788243676289166,0.0
8.145608,0.062409375974787365,0.0
8.147996,0.06882190420620367,0.0
8.150376000000001,0.07258070538514522,0.0
8.152771999999999,0.07258070538514523,0.0
8.155159999999999,0.07175517051239885,0.0
8.157540000000001,0.06999847007987414,0.0
8.159935999999998,0.06931270483398796,0.0
8.162320000000001,0.06786968259501196,0.0
8.1647,0.06307408516926014,0.0
8.167116,0.06107198442284329,0.0
8.1695,0.05906988367642643,0.0
8.171880000000002,0.06121175404970349,0.0
8.174292000000001,0.06470409886333951,0.0
8.176680000000001,0.06912760923675386,0.0
8.17906,0.07248018442352966,0.0
8.181452,0.07303926293097049,0.0
8.18384,0.07108438401279679,0.0
8.186219999999999,0.06639441727407691,0.0
8.188635999999999,0.061704450535357024,0.0
8.191020000000002,0.05701448379663714,0.0
8.1934,0.051393351498138944,0.0
8.195803999999999,0.04498082326672264,0.0
8.198191999999999,0.04122202208778108,0.0
8.200572000000001,0.04122202208778108,0.0
8.202967999999998,0.04122202208778108,0.0
8.205352000000001,0.04335080957264326,0.0
8.207732,0.04335080957264326,0.0
8.210135999999999,0.04303713137909456,0.0
8.212523999999998,0.04193205725262776,0.0
8.214904,0.037893716819965784,0.0
8.217308,0.034926311573942326,0.0
8.219695999999999,0.02795470483508517,0.0
8.222076000000001,0.020843328469367806,0.0
8.22448,0.013731952103650443,0.0
8.226863999999999,0.007691510924571611,0.0
8.229247999999998,0.003513400865049419,0.0
8.231644,0.0021287874848621886,0.0
8.234032,0.0021287874848621886,0.0
8.236408,0.004629662022061857,0.0
8.238804000000002,0.007270306186121735,0.0
8.241192000000002,0.013123755910097205,0.0
8.243572,0.017906270447434144,0.0
8.245968000000001,0.020826453865214443,0.0
8.248352,0.024817572469633276,0.0
8.250732,0.03174195738024728,0.0
8.253128,0.03681709405971951,0.0
8.255516,0.04523172303755267,0.0
8.257895999999999,0.05378612164224605,0.0
8.260307999999998,0.06112981543344067,0.0
8.262695999999998,0.06982398366499426,0.0
8.265076,0.07972885671004659,0.0
8.267479999999999,0.08856279456846038,0.0
8.269863999999998,0.09339253093404047,0.0
8.272244,0.09929320248625911,0.0
8.274648,0.103983169224979,0.0
8.277035999999999,0.1096043015234772,0.0
8.279416000000001,0.1160168297548935,0.0
8.281811999999999,0.1224293579863098,0.0
8.284199999999998,0.12433891093410959,0.0
8.28658,0.1238270542549119,0.0
8.288984,0.11810029126938176,0.0
8.291367999999999,0.11637772977668535,0.0
8.293752000000001,0.11651749940354555,0.0
8.296147999999999,0.11637772977668533,0.0
8.298532000000002,0.11037142753743477,0.0
8.300916,0.10316750337310034,0.0
8.30332,0.09475287439526718,0.0
8.305703999999999,0.08619847579057381,0.0
8.308088000000001,0.07885478199937918,0.0
8.310483999999999,0.0701606137678256,0.0
8.312868000000002,0.06025574072277329,0.0
8.315263999999999,0.053410820722361474,0.0
8.31766,0.05550546926739538,0.0
8.320044,0.055318477812292016,0.0
8.322424000000002,0.058344291917104246,0.0
8.324819999999999,0.05950777490235983,0.0
8.327203999999998,0.056946595648502144,0.0
8.329595999999999,0.05424564676778424,0.0
8.332004000000001,0.05354679863348319,0.0
8.334392000000001,0.05620052568595794,0.0
8.336772,0.05978541829821101,0.0
8.339175999999998,0.060437044604268915,0.0
8.341560000000001,0.06108867091032681,0.0
8.34394,0.06001773572368828,0.0
8.346336,0.06281123240302323,0.0
8.348724,0.06545187656708312,0.0
8.351099999999999,0.06916345591778153,0.0
8.353504000000001,0.07208363933556182,0.0
8.355892,0.07686615387289877,0.0
8.358272,0.07686615387289877,0.0
8.360676000000002,0.07686615387289877,0.0
8.36306,0.07537590980567961,0.0
8.36544,0.06845152489506562,0.0
8.367836,0.06273784479795035,0.0
8.370224,0.055022063954418235,0.0
8.372603999999999,0.04823744867066444,0.0
8.375008000000001,0.04438609969310583,0.0
8.377392,0.04067452034240742,0.0
8.379776,0.03696294099170901,0.0
8.382172,0.035980761887949055,0.0
8.384556,0.043144859538847474,0.0
8.38694,0.05561451543682614,0.0
8.38934,0.07776601812705626,0.0
8.391728,0.1099714546618753,0.0
8.394108,0.1528824513473412,0.009731898421382898
8.396512000000001,0.2075227215418492,0.019419400118797336
8.398900000000001,0.2722622515513201,0.0291117314710735
8.40128,0.3482645243610094,0.03900164462356855
8.403676,0.43674024478441587,0.048704217954559294
8.40606,0.5451256544113511,0.05823589919612175
8.408439999999999,0.6677070731447001,0.06769175733988869
8.410848000000001,0.8022631657009832,0.07716165060334519
8.413236000000001,0.9537956811546002,0.08642905003249479
8.415612,1.1219456153416283,0.09551594517488766
8.418019999999999,1.3069925075157878,0.10442283284664547
8.420404000000001,1.5094954361845196,0.11312190764832471
8.422784,1.7278716094819877,0.12167183763225714
8.425180000000001,1.9597468396094373,0.13012806125785448
8.427568,2.1993943635813387,0.138652194486965
8.429948,2.4466459604046107,0.14710157282743103
8.432352000000002,2.6974352280118934,0.1554929773833022
8.434740000000001,2.951157761925371,0.16386045963229437
8.43712,3.2018544817340358,0.1722246911561326
8.439516000000001,3.4487812133332154,0.18058439127338244
8.441904000000001,3.6879809770583183,0.17921645418053858
8.444284,3.923133109178083,0.17779998446732928
8.446688000000002,4.150560169281639,0.1763241174180791
8.449076000000002,4.369006126585113,0.17459401703521252
8.451456,4.572883987729837,0.1730213683476951
8.453852000000001,4.763823766409888,0.17151623748801967
8.456240000000001,4.941685692998408,0.17001155915805277
8.45862,5.107912789734371,0.16843668492153427
8.461016,5.257150380684587,0.16705327290737498
8.463404,5.388699617714751,0.1658767882200527
8.465784,5.503072357504064,0.16489910963957494
8.46818,5.599569751918224,0.16415750779006677
8.470568,5.680565988755986,0.16358544986560147
8.472952,5.748435255816103,0.1631274467620097
8.475356000000001,5.813979452763579,0.16250827627621983
8.477744000000001,5.866628997358887,0.16201780234386007
8.480124,5.9086655296021675,0.1615853021960951
8.482520000000001,5.944744877292308,0.1611152193040247
8.484904,5.973656335615811,0.16063752928845296
8.487283999999999,5.997634322744571,0.16013680195557065
8.489688000000001,6.0150488249845075,0.15967286356427143
8.492076,6.027063325320877,0.15926654786156616
8.494456,6.037634803418269,0.15887241540086822
8.496848,6.049369764500918,0.15849497799079892
8.499236,6.065853101181074,0.15807641255033034
8.501628,6.081450598271827,0.15776519356899052
8.504024000000001,6.096441795026897,0.15754015549181755
8.506408,6.113899727379339,0.1573352626707572
8.508792,6.134243704209734,0.15712136888231268
8.511196000000002,6.156589781786544,0.1568658084025523
8.513584000000002,6.182148664923271,0.15653771196784216
8.515964,6.208266626567437,0.1561728282822629
8.518367999999999,6.236294141159403,0.15573261661914115
8.520755999999999,6.263158172766115,0.15527825225012035
8.523136000000001,6.281129857655621,0.15495935395194693
8.525531999999998,6.303152965866207,0.15451434616665555
8.527920000000002,6.3237330518378165,0.15407319503305264
8.5303,6.3403089363165925,0.1537145532440597
8.532696000000001,6.354742950422092,0.1534030242700221
8.535084000000001,6.3667555549005925,0.1531580969122568
8.537464,6.381421886431569,0.1528721194016192
8.539867999999998,6.3952968220296285,0.15259531544876542
8.542259999999999,6.406518030575211,0.15235867379611276
8.544640000000001,6.41522528169518,0.15215327603415965
8.547044,6.417973452404139,0.15202313528108427
8.549427999999999,6.416764643448509,0.15192635199742988
8.551812000000002,6.413041877067265,0.15185884618943232
8.554208,6.403779339155594,0.1518389200201615
8.556591999999998,6.390699591206193,0.15184381872176236
8.558972,6.377247756204454,0.1518279079906436
8.561376,6.357557301537987,0.15190239291150615
8.563759999999998,6.337354990192325,0.15196502901283526
8.566144000000001,6.3124968510477695,0.1521035824313161
8.568536000000002,6.290851517463129,0.15216722322430892
8.570924000000002,6.273862011677381,0.15215470488184468
8.573304,6.255382261824413,0.1521896623252033
8.575707999999999,6.241278800516615,0.1521654640492185
8.578092000000002,6.229689296634433,0.15211386637628643
8.580476,6.22354701648406,0.15198070434156002
8.58288,6.218335901893466,0.15183232026292942
8.585263999999999,6.218199923982345,0.15158370412737351
8.587644000000001,6.214292062003866,0.1514401901648599
8.590039999999998,6.210104660771668,0.15131388792283443
8.592428000000002,6.207779590659027,0.15115770002941004
8.594808,6.207688938718281,0.15099116557168804
8.597204000000001,6.209181078643368,0.15081083008947554
8.599592000000001,6.212954858568595,0.15057298386502765
8.601976,6.221477014091329,0.15029672067963093
8.604372000000001,6.230371256666401,0.15003899585615285
8.606756,6.2384268814803105,0.14983466453852765
8.609152000000002,6.252301817078367,0.14956681108233863
8.611547999999999,6.266129530848182,0.14934515700958484
8.613935999999999,6.283774454655727,0.1490989705270772
8.616316000000001,6.298718429582554,0.14893867587949755
8.618711999999999,6.315105426748357,0.1487771288241625
8.621099999999998,6.331352654287299,0.14862584125131484
8.623484000000001,6.344526845893187,0.14853833470346955
8.625879999999999,6.359191281566293,0.14840330354375134
8.628267999999998,6.3710622205600655,0.14831358177952753
8.630648,6.390289936233447,0.1480754408853901
8.633044000000002,6.403651119294438,0.14794290200009425
8.635432000000002,6.426650719035177,0.1476110362212664
8.637812,6.452583585082108,0.14723034999244813
8.64022,6.475583184822846,0.14690113838175983
8.642608,6.4980709278843864,0.14656209284992056
8.644984000000001,6.525773577252259,0.1461251098506053
8.647379999999998,6.558923450351941,0.14562407441751068
8.649764000000001,6.588767970093089,0.14515430352314804
8.652148,6.622896230580793,0.144602313591271
8.654551999999999,6.658514735135715,0.14400602573398188
8.656936000000002,6.6931095263322415,0.14339478605031372
8.659316,6.7313364319692655,0.14270095536205196
8.661712000000001,6.768260084994174,0.14200324595570094
8.664100000000001,6.807744917272939,0.14124378385651373
8.666495999999999,6.844995331379811,0.14049748472126591
8.668892,6.881594119180623,0.1397509531318322
8.671275999999999,6.91647034548874,0.13901804967877035
8.673656000000001,6.947062831050305,0.1383688308606411
8.67606,6.981799287731561,0.1376530947723356
8.678448,7.00810803254657,0.1370987193161127
8.680828000000002,7.035347942921358,0.13653160325516486
8.683232,7.05229781031034,0.13614460441984608
8.68562,7.067385346579766,0.1357839647977864
8.687999999999999,7.08354381803583,0.1354029830352023
8.690396,7.100493685424813,0.1350192114576828
8.692784,7.11343935132096,0.1347024186284405
8.695163999999998,7.120286167179241,0.13444858938044554
8.69756,7.127272752664382,0.1341866658446144
8.699948,7.1310465325896075,0.13398363069283917
8.702328000000001,7.1337493773281935,0.1338001161301843
8.704723999999999,7.132959877253146,0.13368835284377895
8.707111999999999,7.127095240498624,0.1336560907930734
8.709496000000001,7.120578977438046,0.13362005377443387
8.711891999999999,7.112200383257912,0.13360599156877306
8.714279999999999,7.102611084264276,0.13361779532295034
8.716660000000001,7.093021785270643,0.13362918844624613
8.719055999999998,7.088647392583342,0.13355496460822538
8.721440000000001,7.088556740642592,0.13340684516638301
8.72384,7.083530721649232,0.1333287487423944
8.726236,7.08106588190973,0.13319176148638942
8.728624,7.079532207730006,0.13304399775082343
8.731003999999999,7.0836327487371955,0.13278923147756475
8.7334,7.087873059371244,0.13252736869512668
8.735783999999999,7.092532678885874,0.1322439033542791
8.738168000000002,7.094538571348029,0.13198556753445945
8.740564,7.098826103810321,0.13168482845150783
8.742947999999998,7.099761061085838,0.1314442523162773
8.745332000000001,7.100696018361354,0.131203245215621
8.747736,7.101398658211397,0.13093612313767208
8.750119999999999,7.101729211009098,0.1306502888456947
8.752500000000001,7.106623043807076,0.13027754266352815
8.754904,7.1108652502989935,0.12989824526221194
8.757292,7.1158988527238325,0.12951556175965045
8.759671999999998,7.116928253655836,0.129189547871985
8.762068,7.117957654587838,0.1288627882386628
8.764456,7.1160537892136455,0.12857533128785725
8.766836000000001,7.111356427160118,0.1283215982207115
8.76924,7.104145107680976,0.12808533559626467
8.771628,7.096421931522636,0.12783674685800026
8.774011999999999,7.085253632378905,0.12761498775329758
8.776408,7.073061619876777,0.12736932614557803
8.778796,7.055794470695177,0.127198046429626
8.781175999999999,7.037084299274602,0.12702463024669652
8.783572,7.017582731921108,0.12685286372475674
8.78596,7.002364905314168,0.12660847373133388
8.788340000000002,6.981699854975418,0.12641760433345703
8.790735999999999,6.96760018538336,0.12611179784983023
8.793123999999999,6.957784256537856,0.12573558494107145
8.795508000000002,6.946757622878854,0.12538296462816323
8.797903999999999,6.935730989219851,0.12502926884521467
8.800291999999999,6.919768988508234,0.12473973366654328
8.802688,6.905948858169897,0.12441402295231585
8.805084,6.890825475219441,0.12407771749561747
8.807468,6.879846063388682,0.12367750749375121
8.809847999999999,6.866632233386027,0.12327575715096944
8.812252,6.856770978570147,0.12281228462631275
8.814636,6.842905522261434,0.12240250415378519
8.817015999999999,6.830902397072279,0.12197193860153886
8.819420000000001,6.817968106323344,0.12154906520948248
8.821808,6.811412204865998,0.12106271483865955
8.824183999999999,6.801224188968154,0.12064906787821979
8.82658,6.797182244936422,0.12014418615093163
8.828968,6.7916500568374705,0.11967684497476078
8.831347999999998,6.78476739429816,0.11924089117653418
8.833752,6.7677344583999055,0.11894946860829457
8.83614,6.754938041419962,0.1186288756969521
8.838519999999999,6.735576243693326,0.11842163663499275
8.840924000000001,6.7100683741005795,0.11830373125107543
8.843312000000001,6.68656260525425,0.1181567329286916
8.845692,6.662497757900479,0.11803922019123282
8.848092000000001,6.640295241666268,0.11790094686543737
8.850476,6.6239592580444455,0.1176860502384853
8.852856,6.609066296661599,0.11747313605559773
8.855260000000001,6.596035666398308,0.11724028792774438
8.857644,6.58817272061311,0.11697200484042472
8.860024,6.5789593003875515,0.11673530321773089
8.862428000000001,6.575332873520662,0.11644120653723825
8.864812,6.5671431666535,0.11622971220981868
8.867196,6.56118787795823,0.11601934608834939
8.869592,6.552159553329904,0.11585255595618955
8.87198,6.548718222060251,0.11562920024305749
8.874364,6.544018964148854,0.11547433253805796
8.87676,6.547700196275463,0.11523769072871505
8.879144,6.555478177693523,0.11498560810232776
8.881528,6.5772236425082555,0.11459572180293934
8.883924,6.597199324002051,0.11425991792104583
8.886312,6.62527595628013,0.11385656515906
8.888691999999999,6.658240733782579,0.11343484975997402
8.891096000000001,6.6928808509494795,0.11304821496281903
8.89348,6.731757487034691,0.11264085734703173
8.895859999999999,6.774591102784495,0.11222896501321826
8.898264000000001,6.812442129653442,0.11192624049883208
8.900652000000001,6.8531792010003425,0.11163559877930146
8.903036,6.891075553839664,0.11141500955748157
8.905432000000001,6.9276214322386265,0.11122720790159188
8.907820000000001,6.965470563249704,0.11105095744035492
8.9102,7.001829450193563,0.11091381052586227
8.912596,7.042424856055733,0.1107526822254716
8.914984,7.086605154530156,0.11056706752877017
8.917364,7.134090806363112,0.11037264257765732
8.919764,7.182228084502126,0.11018804127594331
8.922148,7.229341649282745,0.10997952149534268
8.924532,7.269145659211997,0.10983382651132832
8.926936000000001,7.306063624663296,0.10968094384348426
8.929324000000001,7.334880639330311,0.10958938283556942
8.931704,7.365886746198847,0.10942913603540681
8.934107999999998,7.389211211163679,0.10930628625615359
8.936496000000002,7.411651732396976,0.10915338547529918
8.938876,7.430414813219403,0.1089920293458998
8.941272000000001,7.442287648071044,0.10886550746896603
8.943660000000001,7.449272337698316,0.10875208491210774
8.94604,7.454581687661134,0.10860771574132161
8.948436000000001,7.4552824316533055,0.10846263364453684
8.950824,7.45495946228708,0.10829206657010161
8.953204,7.452541844375821,0.10811063104794401
8.955604000000001,7.44709841235975,0.10792572797631932
8.957992,7.43676683511931,0.10775259751520054
8.960372,7.422106191161943,0.10756449985629347
8.962768,7.397622034927593,0.10744160393561973
8.965156,7.36517669753582,0.10736862368543396
8.967552000000001,7.325049718240343,0.10733204617693044
8.969947999999999,7.280266911145974,0.10733484716654984
8.972335999999999,7.234832477745548,0.10733157606003252
8.974716,7.190329209904899,0.10731733346393142
8.977112000000002,7.148247351691249,0.10725700416127097
8.979500000000002,7.103371996798264,0.10721639410214238
8.98188,7.060638512278555,0.10714535784061766
8.984276000000001,7.011666408094118,0.1071127790527602
8.986664000000001,6.963113612790262,0.10705673526449926
8.989048,6.916051061553626,0.10696392056012224
8.991444000000001,6.8681971143840705,0.10687065835335262
8.993828,6.819132462401016,0.10679790632337628
8.996212,6.769136644858183,0.1067314184492155
8.998608,6.722353632875268,0.10661577196508455
9.000996,6.677572721638767,0.10647397293646102
9.003392000000002,6.634793911148685,0.10630761873857474
9.005787999999999,6.596019302151436,0.10609383306024207
9.008176,6.562040290579939,0.10583059184110867
9.010556,6.535138516434332,0.10548154096960695
9.012952,6.509447447102222,0.10510697465900792
9.015339999999998,6.486410104822587,0.10471238386645088
9.017724,6.46509532403565,0.10430592468363328
9.02012,6.44443216955477,0.10390388891540055
9.022507999999998,6.418833648021279,0.10355561599951824
9.024888,6.3888116161143715,0.10327618212056482
9.027284000000002,6.359441210513523,0.1030014252984732
9.029672,6.332724531965149,0.10270735103466813
9.032056,6.309964833081366,0.10240852415959902
9.034452000000002,6.284643954943725,0.1021626405762302
9.036840000000002,6.264350991657313,0.10189689334319581
9.039224,6.245920359490457,0.10161284322538314
9.041620000000002,6.2292122888162975,0.1013187284465026
9.044008000000002,6.215157945194614,0.10100637496702528
9.046392,6.1988219615727935,0.10073243161408676
9.048787999999998,6.183137604257029,0.10046516544032123
9.05118,6.168244642874184,0.10019668027289574
9.05356,6.1558656389169535,0.09991976874120256
9.055955999999998,6.140925455705865,0.09969574104682262
9.058344000000002,6.132363661786364,0.09942784293086351
9.060724,6.132322127531729,0.09908787954735652
9.063128,6.137867586635762,0.09870576105026997
9.065511999999998,6.150350513538825,0.09825391594071751
9.067896,6.168979512307999,0.0977346639595196
9.070291999999998,6.195337374809121,0.09714560073777312
9.072679999999998,6.229563870669049,0.09648162543869454
9.07506,6.264302223208175,0.09583334030138972
9.077456000000002,6.296619166120303,0.09523044527043915
9.079844,6.331077979405709,0.09460127776691934
9.08224,6.372474260490143,0.09390416200541161
9.084636,6.4121479800818815,0.09322177325266955
9.087024,6.4523335563528175,0.0925564114942015
9.089403999999998,6.495312629303089,0.09187527702913156
9.0918,6.5390830981862775,0.09119954099505721
9.094188,6.585227754868222,0.09052973630244437
9.096568,6.6312326419233045,0.08987324094986644
9.098964,6.6809621912175015,0.08920139595794838
9.101352,6.727758474205503,0.08855978558372511
9.103736,6.779769663499836,0.08786770888456463
9.10614,6.821910118688946,0.08727191795634914
9.108528,6.857624962758222,0.08675890062619171
9.110907999999998,6.89427097238728,0.0862501713116951
9.113304,6.929566507575977,0.08577714711117637
