Time,Force,Position
9.162264,0.5280511760976005,0.0
9.164652,0.5294488723662026,0.0
9.167047999999998,0.5277735327017494,0.0
9.169444,0.5291712289703515,0.0
9.171831999999998,0.5317796300524523,0.0
9.174212,0.5362503622541099,0.0
9.176607999999998,0.5395103896422686,0.0
9.178995999999998,0.5414199425900684,0.0
9.181376,0.5423983299780898,0.0
9.183771999999998,0.5393725158732775,0.0
9.18616,0.5342048313951882,0.0
9.18854,0.5291769165439593,0.0
9.190936,0.5240092320658699,0.0
9.193324,0.516979216468224,0.0
9.195719999999998,0.5122308408707152,0.0
9.198124,0.5092050267659031,0.0
9.200508,0.5021750111682571,0.0
9.202887999999998,0.4957966218766692,0.0
9.205284,0.48899892370450054,0.0
9.207672,0.4828528518383898,0.0
9.210052,0.47177141291966695,0.0
9.212447999999998,0.4649737147474983,0.0
9.214835999999998,0.45817601657532964,0.0
9.217219999999998,0.44565155541763085,0.0
9.219615999999998,0.4311249935135152,0.0
9.222003999999998,0.4158070356764815,0.0
9.224384,0.404912588212862,0.0
9.226788,0.3962997807493799,0.0
9.229176,0.3898288436591748,0.0
9.231555999999998,0.38764164731552386,0.0
9.233956,0.3857339902255933,0.0
9.236339999999998,0.38596820350893973,0.0
9.238723999999998,0.38434008567272965,0.0
9.24112,0.383782903023158,0.0
9.243508,0.38122361962716955,0.0
9.245891999999998,0.38001481067154,0.0
9.248288,0.37694367059635386,0.0
9.250676,0.37429183940174837,0.0
9.253059999999998,0.3700572163413067,0.0
9.255456,0.3650311973479468,0.0
9.257848,0.36386961022056047,0.0
9.260227999999998,0.35949521753325864,0.0
9.262624,0.3563315296594554,0.0
9.265012,0.35582156883812704,0.0
9.267392,0.3543804424570203,0.0
9.269787999999998,0.3548016471954701,0.0
9.272175999999998,0.34893701044094905,0.0
9.274556,0.33985956812651236,0.0
9.276955999999998,0.3286402554387986,0.0
9.279343999999998,0.31779302980342233,0.0
9.281724,0.3109500056608797,0.0
9.284116,0.2975416007716457,0.0
9.286504,0.28506436144219005,0.0
9.288899999999998,0.2733785180456525,0.0
9.291296,0.266628041701727,0.0
9.293679999999998,0.2593184868503607,0.0
9.296063999999998,0.2537314934916907,0.0
9.298468,0.24679402569266182,0.0
9.300852,0.241299580132609,0.0
9.303235999999998,0.23496651681139485,0.0
9.305636,0.2322183461024338,0.0
9.308024,0.23184436319222707,0.0
9.310403999999998,0.228489892147582,0.0
9.312808,0.23109450151394434,0.0
9.315196,0.23644538573139853,0.0
9.317576,0.24053834330711077,0.0
9.319972,0.25338387797316547,0.0
9.32236,0.2706982489830083,0.0
9.324735999999998,0.29420401782933586,0.0
9.327144,0.3203162918998951,0.0
9.329528,0.34526318712732934,0.0
9.331908,0.3786831201913856,0.006773997480938637
9.334304,0.41680420702470733,0.013767308357661396
9.336692,0.4586952820675163,0.020946660947399554
9.339068,0.5042165756929522,0.027992622837239828
9.341463999999998,0.5576518286475692,0.03486747489055096
9.343851999999998,0.6168591705580904,0.041761785102904285
9.346248,0.6792774221706579,0.04897202450080678
9.348644,0.7456054316195727,0.0562684710963767
9.351028,0.8138410981584181,0.06386119891965586
9.353412,0.8806318466004184,0.07176807887345214
9.355816,0.956407489558238,0.07940074196335457
9.358204,1.0411680270318773,0.08696107040853455
9.360584,1.1257415730504137,0.09454374704214187
9.36298,1.2159946602262366,0.10205834389974007
9.365368,1.3129982237459852,0.10951255697484812
9.367748,1.4107459613704085,0.1169737024766562
9.370152,1.5116592827265043,0.12441955079035157
9.372536,1.6113618992691017,0.1318809476327747
9.374916,1.7087828758115615,0.13944853334153243
9.377316,1.8069952482869396,0.14710346470903315
9.3797,1.906930182255014,0.1479239092305523
9.382079999999998,2.009286525850086,0.14843212574194053
9.38448,2.113133113512377,0.1486992649108364
9.386864,2.2115324774428586,0.14920406712405304
9.389243999999998,2.3008997250292773,0.15006016012634243
9.391648,2.3872411585108835,0.15091250415494564
9.394032,2.471535165275699,0.15149214385476348
9.396411999999998,2.55508499793584,0.15193386159075695
9.398808,2.6421743972378597,0.15195416387683017
9.401196,2.731220571315922,0.1515830812965152
9.403592,2.8111420812513055,0.15153899773344565
9.405988,2.885151732603924,0.15157543750756242
9.408376,2.9546925476127552,0.15164175939153318
9.410756,3.020975231091296,0.1517123276443609
9.413159999999998,3.083068617479769,0.1518085828190498
9.415544,3.140041541218396,0.15193294911790164
9.417928,3.1940358726804536,0.15200793542866417
9.420331999999998,3.243421598171863,0.15212847224075265
9.422715999999998,3.2923426888123175,0.1521202309309389
9.425096,3.3421496190421767,0.15192128341547967
9.427504,3.3874877129282477,0.15177659867499646
9.429887999999998,3.4274258049107527,0.1517144472404662
9.432268,3.463546686855527,0.1517013045542453
9.434672,3.4999943298822647,0.15156359119039134
9.43706,3.5412847921629975,0.15117795256767066
9.439443999999998,3.5815515410853345,0.15075753636904665
9.44184,3.6255901740750285,0.15016619378959428
9.444228,3.665392288146412,0.1496671556910738
9.446607999999998,3.6983041562470085,0.149329468942249
9.449012,3.7289816061757115,0.14902392532273415
9.4514,3.761009530544773,0.1486480620982307
9.453779999999998,3.7934567637944157,0.14823348696775737
9.456176,3.8301877377906117,0.14767320516417662
9.458564,3.865475689547833,0.14713538144401658
9.460943999999998,3.895968043879301,0.1467253669594943
9.46334,3.928742038210907,0.14623043644691103
9.465728,3.9603053277290146,0.1457971766661684
9.468108,3.9938707179935387,0.14529985190947534
9.470503999999998,4.026365173071424,0.14484249761569787
9.472891999999998,4.0547156570296154,0.14452631298796664
9.475272,4.081343579495111,0.14424164332022876
9.477671999999998,4.110764998639942,0.14389822703894137
9.480059999999998,4.141257352971412,0.14352576053376093
9.48244,4.1720292465566,0.1431344804077333
9.484835999999998,4.201078578649093,0.1427844825053456
9.48722,4.231059076301364,0.14242053972864074
9.489604,4.25661606358022,0.14221287892802034
9.492,4.286177252351911,0.141901987674093
9.494388,4.319323333735855,0.14152350847486295
9.496768,4.355914538105192,0.14110698287105045
9.499164,4.392505742474528,0.1406958866475509
9.501552,4.4286776379632835,0.14032542703178727
9.503932,4.4587034615859285,0.14012121534411306
9.506328,4.487099271514493,0.13999669265931391
9.508716,4.524155110734784,0.1396808312388521
9.511112,4.562142115514854,0.13935939880898746
9.513507999999998,4.598127019548507,0.13908365658756625
9.515895999999998,4.636905420261494,0.13876121192500518
9.518276,4.679128943959874,0.13839395509565625
9.520671999999998,4.72279548989723,0.13801921290805932
9.52306,4.768836223633341,0.13762330401590214
9.52544,4.810173907742318,0.1373785306061592
9.527836,4.851092282970713,0.13717224953135063
9.530224,4.891032270811087,0.1370446578841826
9.532604,4.933346446450215,0.13690502565486262
9.535,4.973239212462345,0.1368429329006778
9.537388,5.014854539967173,0.13675520091337995
9.53978,5.053768918591281,0.136768473616979
9.542179999999998,5.090122117961533,0.13686708448148868
9.544567999999998,5.1201894758388145,0.13711897264400752
9.546948,5.149697755208654,0.13741078096852108
9.549343999999998,5.179066264951633,0.13771007318172773
9.551731999999998,5.214161537680143,0.13789602236224469
9.554112,5.253261011901487,0.13799462036692578
9.556508,5.287564888697077,0.13818951669741325
9.558896,5.319167816611951,0.13847624015151155
9.561276,5.354495406765937,0.13869715842799465
9.563676,5.386749960986869,0.13898466524042144
9.566064,5.415419622595547,0.1393221643044103
9.568444,5.449164420883698,0.13955264613622514
9.570844,5.485051089545126,0.1397339177464035
9.573232,5.525081729326247,0.1398212916827331
9.575612,5.565112369107368,0.13990760377364658
9.578011999999998,5.605934404821408,0.1399832044490776
9.5804,5.642472699788893,0.14015416848588388
9.582784,5.6839463618089905,0.14023153159007337
9.585179999999998,5.72900491644134,0.14026207845194233
9.587568,5.776065571820109,0.14025164654544842
9.589948,5.826990659064849,0.1401714969799677
9.592351999999998,5.879778077429147,0.1400533481932182
9.594739999999998,5.937081553965475,0.13987400954420745
9.59712,5.998761319046977,0.13964480982208627
9.599515999999998,6.061884106367454,0.13942497691736186
9.601903999999998,6.122957571113273,0.13929169718446635
9.604284,6.186637541083322,0.1391728544845893
9.60668,6.253762634038765,0.13901447620467725
9.609071999999998,6.32391354109902,0.13885250818060452
9.611452,6.397230031890947,0.13867092104905587
9.613848,6.477157229399939,0.1384373002597173
9.616236,6.557176974707549,0.13825589997573476
9.618627999999998,6.635799023746555,0.13815705097486744
9.621028,6.7171673476366545,0.13806699064282282
9.623411999999998,6.801142176750985,0.13798924434031357
9.625795999999998,6.890144920716545,0.13786883812054518
9.628192,6.9884120984516445,0.13766725269585253
9.630579999999998,7.0864450629033975,0.1375581577603788
9.63296,7.185174979631583,0.13752792484500614
9.635355999999998,7.29004907236801,0.13751047270235545
9.637743999999998,7.406374795217626,0.13746317632375243
9.640128,7.534664004859633,0.13738329460397525
9.642532,7.669050168681639,0.13735698437036828
9.64492,7.810604221870279,0.1373676231069235
9.647299999999998,7.957184294052281,0.1374422562231422
9.649696,8.113493434854776,0.13748598901607112
9.652084,8.276598377971569,0.13753714312232476
9.654467999999998,8.44743028896244,0.13759199760307042
9.656864,8.622264505588277,0.1376901187814362
9.659252,8.803103128595493,0.137801891231761
9.661632,8.985709639065782,0.13795947934938904
9.664027999999998,9.169013101812503,0.13817285049761843
9.666415999999998,9.360789602395846,0.13832486346022946
9.6688,9.55531237783028,0.13847928530908582
9.671195999999998,9.751790032182885,0.13863311140391976
9.673583999999998,9.95050210470739,0.13878620039235895
9.675968,10.144558349433,0.13898091986700353
9.678363999999998,10.341455312666188,0.13911437023504652
9.680751999999998,10.537236014742364,0.13920325420153917
9.683132,10.728595102302993,0.13927076083221174
9.685527999999998,10.90212417045885,0.13941986597606543
9.687915999999998,11.06266603846392,0.1395738253916773
9.6903,11.2138528207587,0.13968033512157083
9.692695999999998,11.353682416596774,0.13976204288239144
9.695083999999998,11.481642969298944,0.13980734738489123
9.69748,11.595313069238216,0.13985378547037816
9.699876,11.698185061228225,0.1398564735874698
9.702264,11.785835434895557,0.13986891443148874
9.704643999999998,11.86427049247946,0.13983389599542426
9.70704,11.932419298793294,0.1397640251464397
9.709428,11.988651840142985,0.13968791554787405
9.711807999999998,12.038834649140922,0.1395539691255377
9.714212,12.07733351060019,0.1394331677159516
9.7166,12.107081690826982,0.13929788074368807
9.718979999999998,12.129941520940859,0.1391333323226442
9.721376,12.142560425755045,0.13897938476400146
9.723764,12.153458664934401,0.13876804106934637
9.726147999999998,12.155419231426185,0.13857053480939355
9.728544,12.151095852282866,0.13836976201771534
9.730932,12.140860614556782,0.1381761326896765
9.733311999999998,12.13109190753952,0.13794479126582326
9.735708,12.12337252309692,0.13767135506603026
9.738096,12.111276850109146,0.13742332863472825
9.740476,12.092011391896872,0.13722080942481174
9.742871999999998,12.071954537751674,0.1370201161785835
9.745259999999998,12.05203745323334,0.13681437499888655
9.747656,12.032492455767338,0.13661895605259172
9.750052,12.01294745830134,0.13642282625709798
9.75244,11.98776824564843,0.13629254223973378
9.754824,11.960959019301438,0.13619112634963637
9.75722,11.937874455193558,0.1360613008971019
9.759608,11.910366380712267,0.1359817178797107
9.761988,11.881507831790618,0.13592254253788078
9.764388,11.850088103615109,0.13590011218112064
9.766776,11.820530706559156,0.1358624847475503
9.76916,11.793766806182541,0.135803182373835
9.771556,11.76178799949959,0.1357960780399969
9.773944,11.732742459122836,0.13576275904436808
9.776324,11.7032776098655,0.13574259740407085
9.77872,11.673812760608167,0.13572218060393146
9.781108,11.651145609522999,0.13564310945843913
9.783487999999998,11.625265652877916,0.1355972782030753
9.785884,11.598035221792477,0.13557204857191288
9.788272,11.577974575931542,0.13550057640925053
9.790651999999998,11.561498822682859,0.1354055464769153
9.793052,11.548747731673291,0.13528260111545523
9.79544,11.53227197842461,0.13518696046996131
9.797819999999998,11.52031228334796,0.13506104988585907
9.800216,11.513567494577643,0.13488187137555324
9.802604,11.510826907300158,0.13466587679318937
9.804987999999998,11.509808881515374,0.13444112954033496
9.807384,11.512655287596559,0.13418361948687513
9.809767999999998,11.520716599984075,0.1338740921593452
9.812168,11.53227025718523,0.13352060369282318
9.814564,11.542473439946022,0.1331885593616168
9.816952,11.551465917893319,0.13287318588481342
9.819332,11.562320726960172,0.13254324961275005
9.821728,11.571964831213526,0.1322301454606745
9.824116,11.584402432146218,0.1318969256645095
9.826496,11.597631429011825,0.1315610938030041
9.828896,11.603224109944103,0.13130942178144836
9.831284,11.60946841718244,0.13105971392695306
9.833668,11.621439487406304,0.13076493987574495
9.836064,11.634201953563089,0.13046934812488759
9.838452,11.646033254160097,0.13018136872889083
9.840832,11.65865595069002,0.12989276960515544
9.843232,11.675934475018833,0.12957093195119748
9.84562,11.693073229720788,0.12925480885209883
9.848,11.709932445169022,0.1289482585870948
9.8504,11.721856293564644,0.12868333078267458
9.852788,11.731778041213847,0.1284366739855617
9.855172,11.738906292183717,0.1282088801147431
9.857568,11.743241046474253,0.12800141062171197
9.859956,11.74822742707085,0.12779698886291785
9.862336,11.754144973227225,0.12758662538370655
9.864736,11.756477626771344,0.12739655345309445
9.867124,11.759229589196043,0.12719307083520082
9.869504,11.761190155687824,0.12699151352484064
9.871904,11.761428160686906,0.1267982727480026
9.874292,11.762737100872627,0.1265943834210974
9.876676,11.766886759565933,0.12634641488741538
9.879072,11.771036418259232,0.12609818840288256
9.88146,11.773882824340419,0.12584558112080213
9.883844,11.774355042622853,0.12559873552846806
9.88624,11.773896095345503,0.12535807636394297
9.888628,11.77292529138896,0.1251111502601111
9.891012,11.772373796312998,0.12485174674145832
9.893408,11.769587883065139,0.124592900992969
9.895799999999998,11.766429882764943,0.12432257523560657
9.898176,11.765413752838024,0.12403089909237214
9.900579999999998,11.762442743992931,0.12373054521578507
9.902967999999998,11.763895245521255,0.12338435818204146
9.905348,11.760552149623821,0.12307133182817122
9.907752,11.756836966674056,0.12274723696834598
9.910135999999998,11.749025034432838,0.12243464145853081
9.912516,11.743494742191759,0.1220958864526934
9.91492,11.7370332843909,0.12176250444223041
9.917307999999998,11.727638560283845,0.1214502162212614
9.919688,11.716381505057235,0.1211489776708057
9.922083999999998,11.705403989084344,0.12083888322007348
9.924471999999998,11.692424372365037,0.12054411080642047
9.926852,11.681074769339808,0.12022122342359695
9.929247999999998,11.666512360754666,0.11992834318305313
9.931636,11.64929622511705,0.1196474906948986
9.934016,11.630497297613596,0.11936856915349969
9.936412,11.606902772684387,0.11912224038795925
9.9388,11.580514751075846,0.11889237592999566
9.94118,11.555057895027083,0.11865574035158115
9.943583999999998,11.52960103897832,0.1184181524591764
9.945971999999998,11.502561391063722,0.11818218614213505
9.948352,11.47510243426854,0.11795815824027345
9.950755999999998,11.446852081540444,0.11773422719640854
9.953143999999998,11.42274569993204,0.11747338413210925
9.955524,11.394914656084525,0.11723373211037448
9.957919999999998,11.369225482610284,0.11697257426232233
9.960307999999998,11.34674911469596,0.11668044136789199
9.962688,11.326694156408632,0.11635870233954909
9.965092,11.3102713125618,0.11599269659393747
9.967479999999998,11.295478482409049,0.11559774732493758
9.96986,11.278171694830682,0.11520942911505697
9.972255999999998,11.265148647998872,0.11478107742527488
9.974643999999998,11.249611643741448,0.11435917608030517
9.977024,11.2357046531781,0.11390836393796377
9.979419999999998,11.225941633734447,0.11342179368035839
9.981804,11.216458153544513,0.11292454227348313
9.984188,11.20953585260844,0.11239265408483023
9.986591999999998,11.200099594246751,0.11186546756530825
9.988976,11.186287047339887,0.11135351484307969
9.991356,11.171311017447772,0.11082847124182553
9.993755999999998,11.154752195689817,0.11030212629497238
9.996144,11.14061478355886,0.10974587474745547
9.998524,11.120750608442373,0.1092232927559919
10.00092,11.098232706273414,0.10870986881357814
10.003304,11.075714804104452,0.108193425125112
10.0057,11.050123866002435,0.10769897604514042
10.008095999999998,11.021739431221087,0.10721887326909467
10.010483999999998,10.99135289569332,0.10675193587049896
10.012868,10.958964259419135,0.1062974319642446
10.015263999999998,10.92536491833145,0.10585455065648203
10.017651999999998,10.889903246124211,0.10541854296822048
10.020032,10.848435271677719,0.10502372577631422
10.022427999999998,10.804825426857953,0.10464476310692994
10.024815999999998,10.758933942038047,0.1042865844582227
10.027196,10.707967320538671,0.1039640053794884
10.029592,10.657652325345351,0.1036429735470105
10.03198,10.603844985338396,0.10335662281763625
10.03436,10.55441393387661,0.10305233792787968
10.03676,10.51336337245283,0.10270172667022094
10.039144,10.47054302770811,0.10238056725759455
10.041539999999998,10.4355913163222,0.10200484243558458
10.04394,10.400360065682568,0.10163628987977999
10.046328,10.36899324690891,0.10124151694638722
10.048707999999998,10.340140385560867,0.10083975231349941
10.051104,10.312078920145744,0.10043539166811373
10.053492,10.291886088089427,0.09997893937229183
10.055875999999998,10.266990206405975,0.09957047268280086
10.058272,10.240743850282163,0.09917849723026259
10.060655999999998,10.21407818527777,0.09879821117103198
10.06304,10.191137182512492,0.09839841932000783
10.065435999999998,10.17429502978508,0.0979797259528081
10.067819999999998,10.160246373737001,0.09754519116490878
10.070204,10.150574006234097,0.09709590720872903
10.072599999999998,10.144626300970303,0.09662756287297304
10.074987999999998,10.143474193132263,0.09613085685573194
10.077384,10.142182315667364,0.09563773048521304
10.07978,10.14382370450866,0.09512419714152898
10.082168,10.146675798163452,0.09459853114180011
10.084547999999998,10.14645485588519,0.09409758085121188
10.086944,10.150098345472905,0.09357399035864836
10.089332,10.149830181366399,0.09310252257158631
10.091715999999998,10.149142708379314,0.092644757521498
10.094112,10.154414315803237,0.09217919431289687
10.0965,10.15847521841366,0.09172635316868574
10.098879999999998,10.16919404956939,0.09124290795067125
10.10128,10.174697974418788,0.09079901373646791
10.103668,10.188489841507575,0.09029621196467257
10.106047999999998,10.206146140462334,0.08977403298605999
10.108452,10.228598036842845,0.08922956352608714
10.11084,10.246766192476807,0.08871880491551973
10.113219999999998,10.262280621058292,0.08821671687409527
10.115616,10.28044877669225,0.0877092429552762
10.118004,10.300619033072625,0.0871928022946508
10.120387999999998,10.321580685385916,0.08667958520701513
10.122784,10.342123028818627,0.0861815161445345
10.125172,10.369463070423505,0.08565418105605194
10.127551999999998,10.403321270946835,0.08510740533113265
10.129948,10.433687126656526,0.08459431504906256
10.132336,10.461911111992942,0.08409740189016127
10.134716,10.489715788448777,0.08361531903069816
10.137116,10.515797903411913,0.08313547933238592
10.139504,10.543742349494607,0.08265070060442836
10.141884,10.565168636658854,0.08219066486230808
10.144279999999998,10.590319586062213,0.08171953476256529
10.146667999999998,10.612909356211714,0.08128037043144376
10.149064,10.640946350093026,0.08083000460528478
10.15146,10.670146826959593,0.08039985237676553
10.153852,10.701861261251771,0.07997365789282782
10.156232,10.737160588156208,0.07954622715138575
10.158628,10.779257613232812,0.07909347842958658
10.161016,10.825730926854584,0.07863939043904124
