Time,Force,Position
10.095316,0.7080096135623485,0.005912899005121717
10.097704,0.6831004608738112,0.002968002237936893
10.100084,0.659122473745052,0.0
10.10248,0.6382175225493483,0.0
10.104868,0.6165211754207265,0.0
10.107264,0.5937538931054661,0.0
10.109660000000002,0.5740596467232613,0.0
10.112048,0.5551567962739744,0.0
10.114428,0.5370453417576057,0.0
10.116832,0.525312276532825,0.0
10.11922,0.5092954705614902,0.0
10.1216,0.49313889496329527,0.0
10.124004,0.4749329967904402,0.0
10.126392,0.4570991856699227,0.0
10.128772,0.4407083967883811,0.0
10.131168,0.4285541268251506,0.0
10.133556,0.41877404466067436,0.0
10.135940000000002,0.4153723517877861,0.0
10.138336,0.4147169337659897,0.0
10.140719999999998,0.4215108402224199,0.0
10.1431,0.43119079115680214,0.0
10.145496,0.45446613843552164,0.005040999804669671
10.147884,0.480487760565333,0.010288198111472777
10.150268,0.511257758292653,0.01556318082565804
10.152664,0.5455654268039828,0.020959763060506564
10.155048,0.5834107660993227,0.02651071894981275
10.157432,0.6238626106188941,0.03220214871073437
10.159828,0.6677123562956152,0.038063731513202304
10.162216,0.7124460457038715,0.044095344196578394
10.164596,0.7543390166045497,0.0504023003577233
10.167000000000002,0.8021910679162353,0.056708224752348595
10.169384,0.850787293332596,0.06319895705776762
10.171768,0.8976137354280169,0.07008804909009116
10.174164,0.9461155171878912,0.07712404066567119
10.176552,0.9945700771195223,0.08442711079619732
10.178932,1.043536493730351,0.09180708029537465
10.181336000000002,1.0947373285130741,0.09916979837574848
10.183724000000002,1.1457511718406939,0.10658783341875952
10.186104,1.1954145407279544,0.1142036285235622
10.188508,1.2363706584952465,0.12228964755044458
10.190892000000002,1.2779784025685965,0.1303277750681312
10.193276,1.3148830970148118,0.13338009734070339
10.195671999999998,1.3555124537001404,0.1360274495160634
10.198060000000002,1.393860170385332,0.13875977304827264
10.200444,1.432068117443663,0.14138953602642115
10.202836,1.468925590061635,0.14403219346698076
10.205224,1.504432588239248,0.1466971465318273
10.207604,1.5448749534694735,0.14889635806610252
10.21,1.5890419809388119,0.15079157535774612
10.212388,1.6402390240057962,0.15227565919264763
10.214768,1.6950209596850336,0.15357114440506303
10.217168,1.7507340609240498,0.15472710352320992
10.219556,1.8151071914547907,0.15531732129137688
10.221936,1.882413588291727,0.15569904557272465
10.224332,1.9535844169946368,0.1557898027251176
10.226724,2.0280605990560794,0.1557681379284768
10.229119999999998,2.104399112237078,0.1556942317276236
10.231516,2.1778043591118816,0.1557038612641696
10.233904,2.256005203412438,0.15544638735444602
10.236287999999998,2.3388618755118853,0.15479229093964747
10.238692,2.4227894827979712,0.15413142358295384
10.241076,2.5067170900840567,0.15345237644114298
10.24346,2.587431891810227,0.15302444763532838
10.245856,2.670009024655954,0.1524906248069062
10.24824,2.753377553434599,0.15194435715912363
10.250623999999998,2.8399588877731596,0.15119523841014176
10.25302,2.9280304661789396,0.1502858201149349
10.255408,3.007581784919854,0.14979395121839648
10.257788,3.0834084414216556,0.14947828127180374
10.260184,3.1514136863928934,0.14940559359308023
10.262572,3.2150426428189594,0.14950573001626932
10.264952,3.2800220736853842,0.14951807613674029
10.267352,3.338762884887082,0.149734235165041
10.26974,3.395269277916885,0.14998169930384564
10.27212,3.450612187961432,0.1502094662556095
10.274515999999998,3.5041399887146665,0.1504166021441483
10.276903999999998,3.5534312705495896,0.1507143259281134
10.279288,3.6075653716385077,0.15077212217060307
10.281688,3.659604824182392,0.15084787499665384
10.284071999999998,3.716766635233992,0.15068848663069845
10.286452,3.7743477551661724,0.15050960479819334
10.288856,3.8298342265533183,0.15032266869953403
10.291244,3.8813637182758742,0.15016599642667333
10.293624,3.930938331080257,0.14999812402424442
10.296028,3.976416194593188,0.14988577252730287
10.298412,4.018216617695249,0.1498004378032776
10.300795999999998,4.059644953744972,0.14968729945658038
10.303192,4.102423764235055,0.14949286031465955
10.30558,4.146041192486298,0.14921885977839117
10.307963999999998,4.19194026073768,0.14884532761794803
10.31036,4.2334630404438895,0.1485575594967678
10.312748,4.2704697619780685,0.14837336225857306
10.315131999999998,4.310037662766105,0.14808198294235375
10.317528,4.350164642061582,0.147752328789718
10.319916,4.392573261357196,0.1473615694141772
10.322296,4.4320486143466145,0.14705378689306955
10.324692,4.469801405843337,0.14677083128288365
10.32708,4.504109074354667,0.14656213698670614
10.32946,4.533621145440245,0.14646988543754963
10.33186,4.557406453540293,0.14652353742956897
10.334248,4.576955242722031,0.146643604626962
10.336628,4.595712635970848,0.14676894459355283
10.339023999999998,4.61954516589914,0.14675821379673798
10.341411999999998,4.64351746545429,0.14673680652493226
10.343796,4.672984210569496,0.14655105539344665
10.346192,4.706035848296952,0.14630742987830903
10.348579999999998,4.736433758971936,0.1461104820917307
10.350976,4.770184244833693,0.14581469940790132
10.353372,4.801001464389257,0.1455878042216321
10.35576,4.834379863198679,0.14527544791864916
10.35814,4.870831297941155,0.14488173456862585
10.360536,4.911706243057045,0.14436215115448883
10.362924,4.94936838261302,0.14393767782602687
10.365303999999998,4.982886551049301,0.14362221606187284
10.367708,5.008256546873055,0.14350562988299123
10.370096,5.036839348256724,0.14330641433342528
10.37248,5.067284480759949,0.14306913009912045
10.374876,5.097450074009455,0.14285641196342713
10.377264,5.130409163938294,0.14258638439496854
10.379644,5.161226383493858,0.14237197621250422
10.382044,5.190413589355343,0.14222559510723312
10.384432,5.22332545745594,0.14200954771371516
10.386812,5.254374994436979,0.1418345007557021
10.389208,5.286215927350938,0.141656046727462
10.3916,5.31428497619754,0.1416066684108702
10.39398,5.3362079531780315,0.1416986566357951
10.39638,5.364369549823251,0.1416965221228694
10.398764,5.389038801654834,0.14179456086710007
10.401144,5.418084342031589,0.14183060317657642
10.403544,5.442147293527488,0.1420206089301628
10.405932,5.466861871329445,0.14221392818300818
10.408312,5.4899464354373215,0.14247251563732607
10.410716,5.516755661784313,0.14266728757696068
10.413104,5.546078845556918,0.14283153822455458
10.415484,5.580337396382136,0.14289312307127672
10.41788,5.610824063139998,0.14306861087632658
10.420268,5.643964456950332,0.1432066021439672
10.422648,5.6773371681861455,0.14337427950353268
10.425044,5.713223836847574,0.14351400649817214
10.427436,5.752415858867534,0.1436172713017554
10.429816,5.795053003872887,0.14367242951548298
10.432212,5.839133171117216,0.14372930282834415
10.4346,5.887030548399277,0.14376897394345814
10.436984,5.9356720997860135,0.14385052469257767
10.43938,5.987758774158143,0.14388989173054897
10.441764,6.046875464127918,0.14383425941953987
10.444147999999998,6.10035793891078,0.14391391839335832
10.446548,6.15872855891801,0.14394714823444965
10.448932,6.218262661910496,0.14399864019331798
10.451315999999998,6.286968650873907,0.14391658901654017
10.453712,6.358932771367605,0.14385078111690622
10.4561,6.435505497831952,0.14376449954906187
10.458496,6.512542859147254,0.14373671177765807
10.460892,6.594188826433204,0.14368678607826202
10.463276,6.68081548674214,0.14363617921273986
10.46566,6.778708681567032,0.14346727871833623
10.468063999999998,6.881303030161191,0.14331905336308667
10.470448,6.995536000323644,0.14308284822650352
10.472828,7.117775477613895,0.1428449249299511
10.475231999999998,7.251466585017338,0.14257215943666837
10.477620000000002,7.396469552907112,0.14226955544893835
10.48,7.548221101282941,0.14202484778001193
10.482396,7.706721230144824,0.14183512703586387
10.484784,7.879466485799235,0.14158138877697962
10.487168,8.062173127499618,0.14133491796136344
10.489572,8.256331399313192,0.14106979501786737
10.49196,8.469809934598764,0.14067826630439323
10.49434,8.69315730813169,0.14027248850155713
10.496744,8.926513289538832,0.1398519759548287
10.499132,9.166944612513992,0.13946330696588383
10.501511999999998,9.413427563698779,0.1390654860919056
10.503908,9.664611668652832,0.13869006021869637
10.506296,9.923058106630005,0.1382852257799529
10.508676,10.186625007257026,0.13788675488005084
10.51108,10.454009117921776,0.1374898655096432
10.513468,10.720694380452226,0.13714392340023987
10.515852,10.986448477422899,0.13681203259827024
10.518248,11.244381162863007,0.1365478764143508
10.520636,11.49640198972035,0.1363010351665901
10.523015999999998,11.739485143890118,0.1360791355471903
10.525416,11.96832317126736,0.13590379074019543
10.5278,12.189481452598764,0.1356979620524666
10.53018,12.402076044152802,0.13544727771528897
10.53258,12.596096442197384,0.13525063461868664
10.534964,12.775267308971626,0.135073563386234
10.537348,12.935304903728973,0.13496237956034565
10.539744,13.073555499416951,0.13493469624799723
10.542132,13.195885628647948,0.13493554229742352
10.544512,13.302155521795106,0.13496929029279475
10.546907999999998,13.393436114045063,0.13502468960404962
10.549295999999998,13.47331229801007,0.13507819963458131
10.551676,13.54313454813049,0.1351117251123703
10.554075999999998,13.600341685152465,0.13515770536763866
10.556463999999998,13.643350917210155,0.13521970585047918
10.558844,13.675467597662095,0.13528539505473589
10.561240000000002,13.693478920948367,0.13538443337085448
10.563628,13.704182585241147,0.13546664290070187
10.566008,13.707671138339046,0.1355498430713227
10.568404,13.704316667294403,0.13564372332396735
10.570792,13.694258941734073,0.13574435352561334
10.573176,13.687089156509568,0.1357843207018461
10.575572,13.673076347142517,0.13583513601943234
10.577956,13.650031421431406,0.13593817821374918
10.58034,13.626893947921678,0.1360241427434201
10.582736,13.601941365120634,0.13610117335524413
10.585124,13.579038104894252,0.13614123880288814
10.587504,13.555762757615533,0.13617227559401984
10.589904,13.534117424030892,0.13617742077613887
10.592288,13.510469989699835,0.13619924299843525
10.594684,13.484820454622362,0.13623748013730427
10.597079999999998,13.456377422865552,0.13629446463154998
10.599468000000002,13.423790419989054,0.13638811994955427
10.601848,13.392925978605247,0.136473317353942
10.604244,13.365506660206831,0.1365419862968902
10.606632,13.333151974755804,0.13665061653580862
10.609012,13.304801490797612,0.1367269345354623
10.611415999999998,13.275380071652783,0.13681321802032334
10.613803999999998,13.246889818067732,0.1368936466370853
10.616184,13.219889808549897,0.13695156111234624
10.618588,13.1956832957114,0.13699040699367962
10.620976,13.168403746939846,0.1370551093045673
10.623356,13.147502587459883,0.13707994601633522
10.625752,13.134609830965584,0.1370392957332977
10.628139999999998,13.123439635963981,0.13699011499966282
10.630524,13.115994103201496,0.1369160593375403
10.63292,13.109479735998786,0.13683571749058562
10.635307999999998,13.107249109542632,0.1367146393215212
10.637688,13.10315615196692,0.1366057201127706
10.640088,13.101764143271925,0.1364601532964912
10.642472,13.098929112337954,0.13631431566554153
10.644852,13.102240153270094,0.13611535891838186
10.647251999999998,13.106901668642593,0.13589736488934018
10.649636,13.110539470656697,0.13566771521424661
10.652016,13.113153559312405,0.13542638671551677
10.654419999999998,13.123543733528305,0.13510520290835284
10.656808000000002,13.132630655132084,0.13478014262568916
10.659192,13.14013478487003,0.13445860276107297
10.661596,13.14819799311542,0.1341206691977718
10.663984,13.154538639868113,0.13379098132445755
10.666368,13.157294394008549,0.13348167160863586
10.668764,13.159678061096653,0.1331619935717781
10.671152,13.155543569266301,0.1328852019151376
10.673536,13.148755350383478,0.13262292846869422
10.675932,13.138382238888404,0.1323803308500995
10.67832,13.127217731460412,0.1321398013873929
10.680704,13.114470432166579,0.13190290811941038
10.6831,13.100652197686111,0.13167595943028934
10.685488,13.086833963205644,0.13144846987027858
10.687872,13.073155498352035,0.13121655650757083
10.690268,13.065483335737678,0.13093658425656207
10.692656,13.054086510884208,0.13068054790373393
10.695035999999998,13.044971326030874,0.13040041676664713
10.697436,13.033574501177403,0.13014345553582599
10.699824,13.022037906697072,0.12989015851086438
10.702203999999998,13.006217571470188,0.12967600439975438
10.7046,12.993842359228694,0.12944648118756102
10.706988,12.986402514039817,0.12917999735304764
10.709371999999998,12.97696056810452,0.12892843169780285
10.711768,12.967378852542364,0.1286802957480604
10.714156,12.959799237726623,0.1284160795945638
10.716539999999998,12.95245194033636,0.12816573680356774
10.718936,12.948689535558348,0.12789582537677038
10.72132,12.942645490780205,0.12764894614134867
10.723699999999996,12.94419054010714,0.12735230398944078
10.726091999999998,12.943593719060804,0.12707497956699235
10.728479999999998,12.94350875469366,0.1268036614205754
10.73086,12.941281919953244,0.12655161659893321
10.733256,12.9429195170788,0.12627307962182827
10.73564,12.945068970883552,0.12600102585576695
10.73802,12.944145388755253,0.12575432481961848
10.740431999999998,12.946015303306284,0.12549136112422393
10.742819999999998,12.9476056786036,0.12523668382321468
10.745216,12.952129320207106,0.1249611159378346
10.747608,12.957304588116672,0.12468812358258749
10.749996,12.965924979011632,0.12440140264665367
10.752375999999998,12.970401398786896,0.12414873183564258
10.75478,12.972596178562023,0.1239195165157574
10.757164,12.978236081322544,0.12367638698133795
10.759548,12.986529711135539,0.12342111279813132
10.761948,12.994124492814233,0.12318542971332143
10.764336,13.000788108933149,0.12295474668904657
10.766716,13.009593595425342,0.12270618687459188
10.769112,13.021983974529789,0.12243995491488201
10.7715,13.029299216954763,0.12221329304422301
10.773879999999998,13.038337020872433,0.121979783458461
10.776276,13.048026451096163,0.12174883926894241
10.77866,13.061440543559007,0.12149705745194153
10.781039999999996,13.07257299602171,0.12126846955128424
10.783444,13.082494743670917,0.121052985048568
10.785832,13.09306811762618,0.12084022249880168
10.788211999999998,13.095213779715195,0.12069633649084477
10.790616,13.09680036329677,0.12056822801691743
10.793,13.097176242064846,0.12045319784616484
10.795379999999998,13.095410250459645,0.12035635192111713
10.797776,13.09099053180197,0.12027127806537721
10.800159999999998,13.086850352398013,0.1201781613627468
10.80254,13.082570403367198,0.12008895463538975
10.804956,13.080572094336521,0.1199779086041763
10.80734,13.077502850119204,0.11987598188582653
10.80972,13.07406151884955,0.119763402551796
10.812124,13.075555554632507,0.11961759064432587
10.814512,13.07304538892263,0.11950002532399301
10.816892,13.071745928026253,0.11936993072955275
10.819288,13.072588337503152,0.11922212742583885
10.821672,13.072639351047135,0.11907544823293818
10.824051999999998,13.074972004591254,0.11890753296128621
10.826456,13.07357999589626,0.11875959665590737
10.828844,13.071536360895207,0.11860887680540426
10.831219999999998,13.071774365894294,0.11843681357433487
10.833616,13.07122097496046,0.11826579768148897
10.836004,13.080026461452649,0.1180231229320689
10.838383999999998,13.090461961638926,0.11775677481976507
10.84078,13.10504143294489,0.11746028973640714
10.843168,13.125627206490107,0.11712413886518341
10.845568,13.148354850408602,0.11677146320799836
10.847972,13.176017861379707,0.11638834712979289
10.850355999999998,13.203820641977673,0.11600202565441185
10.852736,13.229621321829223,0.11563149904802934
10.855144,13.259426203173607,0.11523678310292315
10.857528,13.291884811570464,0.11483232860861056
10.859911999999998,13.323552024034404,0.11443190365681319
10.862308,13.357081567617902,0.11402228022923121
10.864691999999998,13.388888549708701,0.11362007156694609
10.867072,13.418553661426225,0.11323518374677147
10.869467999999998,13.451152039449942,0.11283425253550478
10.871855999999998,13.480817151167466,0.11245180157695218
10.874236,13.514486464377821,0.11204505635937963
10.876632,13.549878339080875,0.11163406271602334
10.87902,13.584199278597291,0.11123255292122823
10.8814,13.620801858113843,0.11081242295125435
10.883796,13.656473272070619,0.11040007557623366
10.886184,13.691073750840753,0.10999731906086534
10.888564,13.72381189849133,0.10960591940533042
10.89096,13.75124259203696,0.1092344964028585
10.893348,13.780675386329005,0.10885372924131458
10.895744,13.805312583195299,0.10849851012201134
10.898139999999998,13.831440024128813,0.10812621010487815
10.900524,13.856776069129406,0.1077556657633397
10.902904,13.875733724838414,0.10741092593829721
10.905307999999998,13.896973020547557,0.1070495152391868
10.907695999999998,13.914208114763868,0.10671168574995982
10.910076,13.929720647487482,0.10637818687342275
10.91248,13.944022475397599,0.10605598959106947
10.914867999999998,13.961816648121347,0.10570537897089968
10.917248,13.977096863419483,0.10536039590877554
10.919652,13.992796387598203,0.1050049858955088
10.922036,14.003560544724307,0.10467603976002075
10.924416,14.011810744424801,0.10435173018850506
10.92682,14.019688857072955,0.10401748819799031
10.929208,14.026496034534468,0.10369131627815578
10.931587999999998,14.029578549756868,0.10338052299765858
10.933984,14.033871769792771,0.10305969336156709
10.936372,14.032298457216282,0.10276738013093158
10.938755999999998,14.03044560538607,0.10248152392263489
10.941147999999998,14.021795055383693,0.10222826435509162
10.943535999999998,14.01500683650087,0.10196745709749575
10.945919999999996,14.005145581684992,0.10172439615666656
10.948315999999998,13.991559664629998,0.10149521321383595
10.950703999999998,13.980907013881204,0.10125130215069095
10.953084,13.96466736977374,0.101028722603531
10.955479999999998,13.947776099360215,0.10080206651656166
10.957867999999998,13.934097634506605,0.10055406150342415
10.960248,13.920838478533579,0.1002952969269591
10.962652,13.902783725134798,0.10005722377150628
10.965039999999998,13.888733173228852,0.09979840634184654
10.96742,13.876684722069324,0.09952921216259442
10.969815999999998,13.864915810163513,0.09925218993512988
10.972203999999998,13.858222034937176,0.09894809410705635
10.974584,13.85031755489734,0.09865384420507742
10.976979999999998,13.842413074857502,0.09835969449173705
10.979364,13.832646263698111,0.09807124676995882
10.981744,13.817944085486106,0.09780582810858422
10.984144,13.810319144699992,0.09750295183568021
10.986528,13.803625369473654,0.09719631097257982
10.988924,13.798793925366873,0.09688202602961717
10.991324,13.793450624580895,0.09656068771908823
10.993707999999998,13.789690115660754,0.09623945553404299
10.996091999999996,13.788303794539368,0.09591789880815095
10.998487999999998,13.78677770379112,0.09560011376031546
11.000871999999998,13.789767671214904,0.09526977083027119
11.003252,13.798484401624217,0.09491727578301228
11.005648,13.808644154272507,0.09457040110695081
11.008036,13.820526468413492,0.09422135765593609
11.010416,13.835853905539873,0.09386684370922997
11.012812,13.845686897106198,0.09354911897167055
11.0152,13.853889874978444,0.09325214500674199
11.017599999999998,13.866748680649586,0.09294033448327622
11.019996,13.875183975947309,0.0926585162081225
11.022384,13.887064394230425,0.0923719628686856
11.024767999999998,13.898944812513543,0.09208598210458704
11.027164,13.916272454528471,0.09178588257310875
11.029552,13.93946662915579,0.09146182651697224
11.031931999999998,13.959447998223192,0.09115770657218653
11.034332,13.980500302477237,0.09084783528257176
11.03672,14.004346103410608,0.09052982553079625
11.039099999999998,14.03056609214274,0.09021461290634405
11.041504,14.056925850501731,0.08989672288128789
11.043892,14.085707018487717,0.0895607130365564
11.046271999999998,14.111275380913789,0.08924288931918899
11.048668,14.134981412220306,0.08893198763710167
11.051056,14.155754177220624,0.08863419785287302
11.053439999999998,14.172802279981832,0.08834819627147622
11.055836,14.189710613116178,0.08806652719820113
