Time,Force,Position
9.368568,0.5948024225029889,0.0
9.370964,0.602578508063179,0.0
9.373352,0.6083524928769523,0.0
9.375732,0.6150576432505037,0.0
9.378128,0.6205520888105567,0.0
9.380516,0.6252551384376915,0.0
9.382896,0.6307495839977444,0.0
9.385296,0.6382461303042141,0.0
9.387684,0.6456029069838236,0.0
9.390064,0.6509575829170162,0.0
9.39246,0.6580348203429054,0.0
9.394848,0.6615271651565413,0.0
9.397244,0.6630174092237604,0.0
9.399639999999998,0.6602239125444255,0.0
9.402028,0.6580820421711484,0.0
9.404408,0.6632969484774808,0.0
9.406804,0.674657926649924,0.0
9.409192,0.6858791351955069,0.0
9.411572,0.694958473367813,0.0
9.413972,0.7028271067266202,0.0
9.416356,0.6997540707935647,0.0
9.41874,0.6994745315398444,0.0
9.421136,0.6990552226592638,0.0
9.423524,0.691558676352794,0.0
9.425908,0.6862040004196015,0.0
9.428311999999998,0.6813611811656065,0.0
9.430696,0.672653930045638,0.0
9.433076,0.6642262181793901,0.0
9.435468,0.6497922040738914,0.0
9.437856,0.6375000603416698,0.0
9.440236,0.6265583910498072,0.0
9.442644,0.6196209232507784,0.0
9.445028,0.6137543906383881,0.0
9.447412,0.6131027643323302,0.0
9.449815999999998,0.6147327780264095,0.0
9.452203999999998,0.6123585902276553,0.0
9.454584,0.6090532368691227,0.0
9.456984,0.60574788351059,0.0
9.459368,0.6065865012717511,0.0
9.461752,0.6066337230999942,0.0
9.464147999999998,0.6094744416075724,0.0
9.466532,0.6052379226892615,0.0
9.468912,0.6022121085844492,0.0
9.471315999999998,0.6013281648529141,0.0
9.473704,0.5924358181357116,0.0
9.476084,0.587035816232145,0.0
9.478483999999998,0.5828465191420771,0.0
9.480871999999998,0.5743734813054552,0.0
9.483252,0.5699046449616669,0.0
9.485648,0.5605004415652667,0.0
9.488036,0.5512360077957266,0.0
9.490416,0.536616898092994,0.0
9.492816,0.5212063924573431,0.0
9.495204,0.5039335557021356,0.0
9.497584,0.48265651745409444,0.0
9.49998,0.45965691771335687,0.0
9.502372,0.4369368572263397,0.0
9.504752,0.414496335993043,0.0
9.507148,0.39033325326704976,0.0
9.50954,0.36896366722039153,0.0
9.51192,0.3488047859872321,0.0
9.514316,0.3349317462470436,0.0
9.516704,0.32077916725313466,0.0
9.519084,0.30676635788608597,0.0
9.521484,0.3012738081839023,0.0
9.523868,0.29214914404122244,0.0
9.526248,0.2815342358313234,0.0
9.528644,0.27664609060695455,0.0
9.531032,0.27147840612886526,0.0
9.533411999999998,0.277624477994976,0.0
9.535828,0.27613423392775693,0.0
9.538215999999998,0.2745042202336775,0.0
9.540596,0.2738979198979935,0.0
9.543,0.26951973549495306,0.0
9.545388,0.267515738890667,0.0
9.547768,0.27147082269738826,0.0
9.550168,0.2735163535563098,0.0
9.552552,0.2747232666540701,0.0
9.554932,0.2763022668041678,0.0
9.557332,0.2776017277005452,0.0
9.55972,0.2812753763956768,0.0
9.5621,0.2834587810235893,0.0
9.5645,0.287224977517338,0.0
9.566883999999998,0.2942965273696193,0.0
9.569268,0.3005766812889825,0.0
9.571672,0.31165243263409764,0.0
9.57406,0.3298054214051018,0.0
9.576439999999998,0.3470272446163276,0.0
9.57884,0.3643888374544136,0.0
9.581228,0.3757441280532491,0.0
9.583607999999998,0.3992517927574459,0.0
9.586016,0.4255529541409776,0.0
9.588404,0.4519938851513696,0.0
9.590788,0.4827185569083157,0.005568959389010682
9.593191999999998,0.5134432286652618,0.011246406182225832
9.595576,0.5403034685562343,0.01716797658854952
9.597956,0.5670239388203467,0.017167976588549523
9.600359999999998,0.5925337042709604,0.017167976588549523
9.602747999999998,0.6156220600945767,0.017167976588549523
9.605128,0.6402932077840291,0.017167976588549523
9.607523999999998,0.6649643554734813,0.017167976588549523
9.609912,0.6901473598421314,0.024463266422411426
9.612292,0.7134680330912248,0.03195730681665834
9.614696,0.7322254263400435,0.031957306816658336
9.61708,0.7490732666410627,0.03195730681665834
9.619464,0.7637792365688048,0.03195730681665834
9.621859999999998,0.773782156869412,0.03195730681665834
9.624244,0.7841571642223568,0.04072465213715465
9.626628,0.7987686904936127,0.049108098199879296
9.62902,0.8109588071378709,0.05806648556312949
9.631408,0.8204479749014113,0.06682334480578478
9.633788,0.8315199345307881,0.07551805883683423
9.636184,0.8480391178919743,0.08368725313229934
9.638572,0.8647906186786378,0.08630446761924243
9.640952,0.8840560768909159,0.08869326873759896
9.643348,0.9070461973423074,0.09068530230728125
9.645736,0.9337609800328119,0.09850236678100249
9.64812,0.9674132305223454,0.10601642272271214
9.65052,1.0058610784376307,0.11346053112148789
9.652908,1.042958451912557,0.12103404348335932
9.655288,1.080427912439821,0.12867061902508659
9.657684,1.1173382944596442,0.12920587054095928
9.660072,1.1591368217038358,0.12944685747001805
9.662456,1.2077330471201964,0.13703280528658662
9.664852,1.2568411292157546,0.14482316905151757
9.66724,1.3069729246697082,0.15270070645445596
9.669619999999998,1.359059599041836,0.16072200423097863
9.67202,1.4103076556528018,0.160140302567461
9.674408,1.4575042889426915,0.16022276113370354
9.676787999999998,1.512801873016865,0.1595386602909628
9.679192,1.5660501345163786,0.15926227094985537
9.68158,1.6211135053072059,0.15905513292033177
9.68396,1.6721254527769562,0.159513458115855
9.686356,1.7238815743513816,0.16006251870070318
9.688744,1.7763818700304819,0.16075514823458378
9.691128,1.8265533038812016,0.16180444979877168
9.693524,1.8794710125830132,0.16283884238624946
9.695908,1.9340640609492779,0.16400524817170453
9.698292,1.9904722186068562,0.16519687999942317
9.700688,2.050045959996107,0.16623863842985354
9.70308,2.114787385863447,0.1670562761379904
9.70546,2.1833932435967602,0.16760712933530317
9.707856,2.249205604650739,0.16829601789166845
9.710244,2.315809361637636,0.16901039145201452
9.712628,2.3904215216102003,0.16928849775011642
9.715032,2.4625197241571497,0.16958649852147348
9.717416,2.5326630477859253,0.1698128207840528
9.719796,2.6067180251089184,0.16973125930025543
9.7222,2.683893260193209,0.16931163107756175
9.724588,2.7560405804262715,0.16910480329865615
9.726968,2.8297253665547957,0.16863361485784106
9.729372,2.9002917907798906,0.16814166428728947
9.73176,2.9677398531015564,0.16757210274977596
9.73414,3.0343511935199303,0.1668349926860222
9.736536,3.0970527761019566,0.1660902974960943
9.738924,3.162642299019804,0.16502520079178934
9.741304,3.2216683370488295,0.16408445274989633
9.743704,3.2717094805620355,0.16340459596693852
9.746092,3.318911801425532,0.16269530343827263
9.748472,3.3629957603855996,0.16197784148185976
9.750875999999998,3.3970238896432092,0.1615402337720826
9.753263999999998,3.4283057440497267,0.1611326509261855
9.75564,3.461636921030905,0.16056851600176614
9.758048,3.4871466864815184,0.16023136200396684
9.760431999999998,3.499108277416038,0.16032275071802643
9.762812,3.5120482557385784,0.16029274003655564
9.765211999999998,3.529691283688254,0.1600264908987546
9.767599999999998,3.542818253465899,0.15990626307596784
9.76998,3.553291496191069,0.15986186952843662
9.772376,3.5652549829834577,0.1597266460016707
9.77476,3.5752163690294294,0.15966746230964848
9.777144,3.587691712501017,0.15955693185125
9.77954,3.6048228837714946,0.1593066754068736
9.781928,3.624328242840727,0.15903046339794313
9.784308,3.6463475593355734,0.15870533130073056
9.786712,3.66794756694984,0.15844016860205434
9.7891,3.6936443238555565,0.15810752363642414
9.79148,3.725719470052862,0.15760928071152233
9.793883999999998,3.7572355377427265,0.1571793282337831
9.796271999999998,3.7931278939777613,0.156671486672978
9.798652,3.8335363083848275,0.15603991115647253
9.801047999999998,3.8724544787246753,0.155492823323785
9.803436,3.9086717001838056,0.15509235436415197
9.80582,3.949404979814967,0.15457429321922778
9.808215999999998,4.002522950976966,0.15370662275958258
9.810604,4.060156980310998,0.15275942308701596
9.812984,4.1101546937116975,0.1520976869869881
9.81538,4.1586621630451805,0.15150488180825616
9.817768,4.208240567565301,0.15087753938190035
9.820152,4.2535352313388675,0.15039973039447993
9.822548,4.298550355858713,0.1499434351923943
9.824936,4.342634314818781,0.14952643267164362
9.827316,4.384855942659292,0.1491699738058981
9.829719999999998,4.421630346767994,0.14894320976869094
9.832107999999998,4.456542419757138,0.14876442942208054
9.834488,4.488800765693807,0.1486452914253243
9.836887999999998,4.5161237445778655,0.1486607327018519
9.839275999999998,4.538790895663032,0.14878776369654803
9.841656,4.559316176374921,0.14898076399562404
9.844052,4.57411469410128,0.14931652872179685
9.84644,4.594267887760832,0.14948734421744975
9.84882,4.6160510951144635,0.14957629246202134
9.85122,4.638812689856116,0.14958167916794646
9.853604,4.661062427918571,0.14957374686979924
9.855988,4.676794007062577,0.149710752513073
9.858384,4.688009528034553,0.14993369035650883
9.860772,4.7080720697533565,0.14989035167393697
9.863152,4.728042063673543,0.14979380601095146
9.865552,4.745218560914395,0.1497541113815764
9.867936,4.764956237409104,0.1496160843696318
9.87032,4.788605567598029,0.14933403018990227
9.872716,4.809880709988201,0.14907768612497257
9.875104,4.82836235569904,0.1488775184800838
9.877488,4.848846102156293,0.1486263412262558
9.879884,4.869749157494128,0.14834226756694457
9.882272,4.892142456899181,0.1479985927116309
9.884652,4.91909903630451,0.1475129716956834
9.887052,4.94540398940378,0.1470189495398404
9.88944,4.974409891383768,0.14642046185472138
9.89182,5.004906037430976,0.14575864411393216
9.89422,5.026462614932738,0.14532112423674506
9.896608,5.046017091688083,0.14493423037788378
9.899003999999998,5.064360863629929,0.1445917575455461
9.9014,5.083123944452356,0.14422250170269926
9.903788,5.0981623630356685,0.1439220859961514
9.906168,5.108544953820091,0.14370937146137425
9.908563999999998,5.111710537551762,0.1436807140268392
9.910951999999998,5.117529848335909,0.1436091341612989
9.913336,5.127493130239752,0.14343449233807384
9.915731999999998,5.138527347330231,0.14323380645893508
9.918119999999998,5.144346658114378,0.1431651520844653
9.9205,5.149095033711887,0.14312410561024702
9.922904,5.1579873804290886,0.14298227090486768
9.925292,5.166367870467093,0.14282685689846447
9.927672,5.174888130131959,0.14266228327342428
9.930068,5.180195584236908,0.14258100707896088
9.932455999999998,5.183780476849161,0.1425244767371394
9.934836,5.188715843901774,0.14241995550944228
9.937231999999998,5.189926548715272,0.14238253539788778
9.93962,5.189135152782354,0.1423888728567452
9.942,5.189694231289795,0.1423471750691491
9.944399999999998,5.19481658979751,0.1421778234879377
9.946784,5.199427091626028,0.1419947149457601
9.949168,5.198962456775073,0.14192475213290393
9.951567999999998,5.204504124163369,0.1417249526493025
9.953955999999998,5.21325859711158,0.1414410725534074
9.956336,5.219778651887898,0.14116234544592193
9.958735999999998,5.226997554798516,0.14083503124658556
9.961123999999998,5.23156273065666,0.14055009818016012
9.963504,5.231472078715912,0.14034747052687166
9.9659,5.230078174163049,0.14013526036121113
9.968288,5.229243348117626,0.13988062675107937
9.970679999999998,5.222961298340393,0.13971599410831906
9.973084,5.218821118936439,0.13949744564584318
9.975472,5.212166982106869,0.13930708893472363
9.977852,5.205140758224962,0.1390910691170228
9.980248,5.194529641730801,0.13893008277630187
9.982636,5.184337834117222,0.13873671710987287
9.985015999999998,5.178289997623335,0.1384464054616347
9.987412,5.170938908517333,0.13814567289972085
9.9898,5.1627964234784125,0.13784983500975825
9.99218,5.146645535453825,0.13772639319391972
9.99458,5.127980690003623,0.13763035417255837
9.996963999999998,5.111085627874361,0.13745480941396687
9.999344,5.08888311164015,0.13735530887803096
10.001739999999998,5.068682696152355,0.13721032611797015
10.004127999999998,5.053277878090312,0.1369718624327874
10.006524,5.03079582260238,0.13689073218628045
10.008928,5.004449335248475,0.1368882539833699
10.011316,4.980244718267847,0.13683168079158659
10.013696,4.9584142890859715,0.13675730943608377
10.016092,4.9344419895308205,0.1367397085769037
10.01848,4.911121316281727,0.1367297838944269
10.020864,4.88244596709944,0.1368616416974575
10.02326,4.8564243449696285,0.13695018129559616
10.025648,4.832125284332514,0.13701413068998994
10.028028,4.808058541120876,0.13712085517694775
10.030424,4.785155280894493,0.13724317662728472
10.032816,4.757968279921558,0.1374769926717024
10.035196,4.7318049923070165,0.13774717147491272
10.037592,4.708295431744951,0.13797527271997836
10.03998,4.68743959823536,0.1381671120234764
10.04236,4.668678413270802,0.13836373167843063
10.044756,4.65094094166464,0.13859290757208756
10.047144,4.636369053790151,0.13879596223763047
10.049528,4.621238087408221,0.1390416914979655
10.051924,4.605687812145709,0.13931785719666048
10.054312,4.596935235055367,0.13944963946108402
10.056691999999998,4.597773852816528,0.13938214564795182
10.059092,4.600986658376444,0.13929661242547006
10.06148,4.607132730242555,0.13914965217158903
10.063864,4.6208678962137535,0.1388580485398697
10.06626,4.637536328491145,0.13850382327874602
10.068648,4.658208962261371,0.13805623543960205
10.071027999999998,4.6776708912181,0.13765070861732304
10.073432,4.696573741667387,0.13728959277349828
10.07582,4.721622663982785,0.13678556506103304
10.0782,4.743738319991986,0.13634435562395952
10.080596,4.768507703053664,0.13586104140711072
10.082984,4.795558726115478,0.13530968976593985
10.085368,4.822330209923573,0.1347844561348705
10.087764,4.851895190411002,0.1342106068883886
10.090152,4.881320401271571,0.1336452759733024
10.092532,4.912607943251697,0.1330487462081553
10.094928,4.941613845231684,0.13251654765757834
10.097316,4.97276161758495,0.13193718918227285
10.099695999999998,5.006842656244409,0.13130944115030632
10.102096,5.038502285276872,0.13076182317607976
10.10448,5.060011640950389,0.13044291771984362
10.10686,5.0804500614372685,0.13015374158931006
10.10926,5.097675676364233,0.12994615840590687
10.111648,5.110617550544644,0.12984670102613477
10.114044,5.126073382150669,0.12972550845776845
10.11644,5.140970135249253,0.12964584312227606
10.118828,5.156518514653896,0.12957158497013602
10.121208,5.1722066636853965,0.12948611613544248
10.123608,5.185752942343621,0.1294543527323563
10.125996,5.201161552121403,0.12939267290578782
10.128376,5.215638996339406,0.12934558760369388
10.130779999999998,5.232630397983025,0.12927759861387056
10.133168,5.251623900373059,0.12917321015596941
10.135548,5.270337863509374,0.12909045609169092
10.137944,5.28826043071277,0.12901030024619745
10.140332,5.305112062729526,0.1289548575156751
10.142716,5.326247435492838,0.1288044854555362
10.145108,5.3441700026962335,0.12872711481361268
10.147496,5.35594649803352,0.12877217774650174
10.149876,5.366931597437887,0.12882066312331494
10.152272,5.3857853302010605,0.12872708172460007
10.15466,5.406780933337512,0.12858904553502967
10.157044,5.4271249101679055,0.12844398126230547
10.15944,5.444675390318965,0.12833876367899472
10.161828,5.460782848231047,0.128236403321891
10.164212,5.478240780583489,0.12809250609124434
10.166608,5.494767547376153,0.12796164520384315
10.168992,5.514087810848152,0.12779116900975548
10.171376,5.529264103200457,0.12770283802549567
10.173772,5.545511330739398,0.12759277819590753
10.17616,5.566554155704094,0.1274091345403188
10.178556,5.582941152869896,0.1272934398723331
10.180952,5.596394883729503,0.12722785994263777
10.18334,5.608265822723275,0.1271703282836653
10.18572,5.624932359142798,0.12703962693709359
10.188116,5.640947269256264,0.12690352287082657
10.190504,5.654820308996452,0.12681358691232866
10.192888,5.667901952803723,0.12672620759522454
10.195284,5.6854071069844085,0.12654117850844943
10.197676,5.708918563404343,0.12625547641643378
10.20006,5.728425818331445,0.12604138720186064
10.202455999999998,5.7437891021388525,0.12590562144417716
10.204844,5.761154486692677,0.1257360997268698
10.207228,5.780661741619778,0.12552129394225325
10.209623999999998,5.793743385427049,0.1254351498618138
10.212012,5.802960597368346,0.12540889295859733
10.214396,5.812457348563363,0.1253641925287831
10.216791999999998,5.81636710639971,0.1253961409407686
10.219183999999998,5.823489669795974,0.12536179579648338
10.221564,5.826747801326262,0.12538820722095972
10.223964,5.822696378005186,0.1255083656124097
10.226352,5.820786825057387,0.1255847005550208
10.228732,5.819436350617028,0.12562468923652328
10.231136,5.816363314683974,0.12568148241943913
10.233524,5.805701184645832,0.12585058374028651
10.235903999999998,5.7973206946078255,0.12596534953486868
10.2383,5.786426247144207,0.12610075237632337
10.240688,5.77501994300139,0.12622289961072558
10.243068,5.761471768485296,0.12638745653975017
10.245463999999998,5.740194730237254,0.1266700017859432
10.247851999999998,5.718964913817455,0.12690162176533104
10.250232,5.698294175905098,0.1270986116360525
10.252636,5.674829941313408,0.12733397923456838
10.255024,5.650853850042515,0.12755443530778834
10.257404,5.630789412465843,0.1276670029009821
10.259799999999998,5.612215218956389,0.1277308379756985
10.262187999999998,5.595271039141014,0.12773371146187754
10.264568,5.581679434512414,0.1276613312672271
10.266963999999998,5.567855512458339,0.12755466151346645
10.269348,5.552588568165287,0.12744694595580455
10.271732,5.536250688685597,0.12736309293529852
10.274128,5.515256981407015,0.12734692838686648
10.276512,5.491050468568516,0.12740048103976764
10.278892,5.467914890916656,0.12743157058361174
10.281288,5.44999421957113,0.12735650269204377
10.283676,5.425136080426574,0.12740738717650624
10.286072,5.4013488764686555,0.12743542797725715
10.288467999999998,5.3792842340034355,0.1274452954325641
10.290855999999998,5.355497030045519,0.12747425845600607
10.293236,5.331849595714462,0.12749700903846786
10.29564,5.307782852502824,0.12754768542135878
10.298028,5.282924713358268,0.1276026406346356
10.300408,5.261139610146768,0.12759369538653703
10.302803999999998,5.241216838054824,0.1275540131438533
10.305191999999998,5.22073498745544,0.1275535003749179
10.307572,5.201184302415835,0.12753713469228783
10.309968,5.177489646256534,0.12760512973793692
10.312356,5.151792889350817,0.12771034583954802
10.314736,5.120601686885046,0.12794942081981486
10.317132,5.094206081845028,0.12810743474128336
10.31952,5.072233987178425,0.12815861899382514
10.3219,5.052403762885098,0.12816269043027556
10.3243,5.034575639338189,0.1281288755840726
10.326688,5.014885184671723,0.12812522386835307
10.32908,4.992401233325921,0.1281640992490247
10.331476,4.976063353846231,0.12807272716291124
10.333863999999998,4.9598652439934,0.12796993892037006
10.336244,4.944086443021149,0.1278342945758789
10.338648,4.926445310929344,0.12772950235200164
10.341031999999998,4.911877214770592,0.12755771386976691
10.343412,4.893165147492147,0.12748054691167365
10.345812,4.87510470651976,0.12740923186323425
10.348195999999998,4.854902395174095,0.12738886933423418
10.35058,4.833629148641792,0.12739170730600438
10.352975999999998,4.811844045430293,0.12737815671981856
10.35536,4.788988007032154,0.127388964480552
10.357755999999998,4.7658524293802955,0.12742517080484955
10.36016,4.743508247661353,0.12745750134821912
10.362548,4.727170368181664,0.12736363807017279
10.364928,4.709761553515334,0.1272943976768496
10.367332,4.690582955528066,0.12730590331491498
10.36972,4.674989250153049,0.12726386560559072
10.3721,4.6584643792182545,0.12723812511632987
10.374496,4.645384631268854,0.12717174554628846
10.376884,4.635750006304846,0.12706373053739342
10.379268,4.624485367646758,0.1270256062684797
10.381664,4.613732585667868,0.12700458831533765
10.384052,4.601629329248619,0.12703113063664356
10.386436,4.595392605441761,0.12694268236619793
10.388832,4.593671939806934,0.12678937355507802
10.39122,4.599680137904054,0.12649268698269095
10.3936,4.60755066712073,0.12616626798645092
10.395996,4.616212592270324,0.12583503733139906
10.398384,4.62352404297956,0.12555120812473852
10.400764,4.636282717420605,0.12519155048126615
10.40316,4.6486220829810705,0.12486283989103296
10.405548,4.667479607459983,0.12443023974462003
10.407932,4.692203664551285,0.12389576003855915
10.410328,4.716787952015729,0.12337773446462831
10.412716,4.737879894666537,0.12295190114383077
10.415095999999998,4.7629760388101765,0.12244908362133203
