Time,Force,Position
10.543291999999996,7.4534034704675705,0.04769515696195964
10.5457,7.407032183933757,0.04765243169873353
10.548084,7.361265301877759,0.047661299215957034
10.550463999999998,7.322668205046267,0.047682078332535904
10.552867999999997,7.290449497506364,0.04770856703075789
10.555252,7.261815682578712,0.04774050826121663
10.557631999999998,7.230061609889764,0.04782467866358721
10.560035999999997,7.198260315372572,0.04794917756760529
10.56242,7.163897841601522,0.04810323755670699
10.564799999999998,7.132328864509807,0.04825751497997767
10.567203999999997,7.1017836007764865,0.048446825570774114
10.569592,7.072821128909003,0.04864719263404856
10.571972,7.043159808907219,0.048878382120715116
10.574368,7.008655669651439,0.04915906137908465
10.576752,6.975454783007775,0.049463978880405844
10.579131999999998,6.942486213789588,0.04980182507568221
10.581536,6.910820897183518,0.050165924827554026
10.583924,6.878316962816287,0.050571166724366255
10.586299999999998,6.850468856247947,0.05097657114228677
10.5887,6.8284400604637545,0.051410960456703896
10.591084,6.808273595799117,0.051846657509367365
10.593463999999996,6.792251102254174,0.052265569847541875
10.595859999999998,6.780419801657168,0.05262195659305569
10.598247999999998,6.765934774007689,0.05297450637931754
10.600644,6.7487960193057335,0.053322028075770724
10.603047999999998,6.728444459043862,0.05369162373557891
10.605431999999997,6.7125164091554055,0.054030288985802276
10.607812,6.695936732960892,0.054360139539355465
10.610215999999998,6.680567761579877,0.054678999098520906
10.612599999999995,6.664127855012223,0.05500513342551779
10.61498,6.645965386951873,0.0553294099067623
10.617375999999997,6.629665250011079,0.05565034383955183
10.619764,6.6135048826971445,0.05596842115509296
10.622144,6.601488486502905,0.056266510963019066
10.624547999999995,6.589611859935526,0.05655913776769821
10.626932,6.583229678928199,0.056808048238823516
10.629312,6.580200073107648,0.05702803699018254
10.631715999999996,6.583456308780069,0.057209140815161846
10.6341,6.58643300519877,0.05740250438786436
10.63648,6.585173182699159,0.05758330874720343
10.638876,6.584704756132466,0.05776909370320122
10.641264,6.58609866068533,0.05795163862509979
10.643643999999998,6.58278951561106,0.058184436388549345
10.646047999999997,6.582832945723563,0.05838723695014952
10.648435999999997,6.583016145462928,0.05858371830196437
10.650816,6.587483085948847,0.058749061335035886
10.653212,6.591018860874988,0.058915632035966205
10.6556,6.600560938040379,0.059053904759722005
10.657984,6.612756742258245,0.05919371187961021
10.66038,6.622810676102834,0.05934920342801724
10.662768,6.637939746626895,0.0594772864031607
10.665148,6.648133450098345,0.059625556907999956
10.667544,6.662331355062627,0.059754191218747935
10.669928,6.677460425586688,0.059880567298580524
10.672324,6.690866934618053,0.060003861283855035
10.674719999999995,6.697196206223528,0.060165014279008874
10.677107999999995,6.702454542642364,0.060333660687265166
10.679488,6.705059152008728,0.060500428727713815
10.681887999999995,6.707291674322753,0.06064319575694007
10.684272,6.7116660670100545,0.06077000250618081
10.686652,6.716319998951078,0.060883614193471526
10.689048,6.7199029957054615,0.06100492188739882
10.691436,6.7248364669002045,0.06110552005406835
10.69382,6.722273391788478,0.06126508286272109
10.696216,6.718499611863252,0.0614398933332752
10.6986,6.711001169698912,0.06162250586223638
10.700996,6.702711331601654,0.061800989639204454
10.703391999999996,6.6894861264517855,0.06200133885462604
10.705775999999997,6.675888834249578,0.062176935558721225
10.708156,6.665783886861009,0.06231516072563379
10.710552,6.651954277233325,0.06246077544703596
10.71294,6.642408408352196,0.06257306405074416
10.715335999999995,6.632210913165008,0.06267394228394726
10.71774,6.623363892418179,0.06275333262904174
10.720123999999998,6.617310368350685,0.06282714158146321
10.722503999999995,6.619125477641998,0.06286596793211943
10.724908,6.617076155067339,0.06291944467605907
10.727296,6.612233335813345,0.06297933247467263
10.729675999999998,6.603246545439656,0.06306753971920344
10.73208,6.592537193573271,0.06315361636625655
10.734468,6.578522488348353,0.06322866369056131
10.736847999999998,6.563484069765041,0.06326837370206152
10.739244,6.545931693756111,0.06330176681144721
10.741632,6.536015633680513,0.06326794702150307
10.744015999999998,6.525587716925716,0.06321640772831277
10.746412,6.517161900917338,0.0631536930637743
10.748796,6.507944688976042,0.0630862062864167
10.751179999999998,6.497796311474965,0.06302090079339151
10.753576,6.483643732481058,0.06297761123175906
10.755959999999998,6.468699757554231,0.06292936706262402
10.758343999999996,6.451893451507846,0.06288544220724877
10.760739999999998,6.427358281729515,0.06287292262277172
10.763123999999998,6.3990984497120715,0.06286889840759968
10.765504,6.364180689149319,0.06288735420773028
10.767899999999996,6.325817805601175,0.06290133533825601
10.770287999999995,6.280005597574803,0.06293336126268621
10.772672,6.2356836336156505,0.0629363374541678
10.775063999999997,6.1982991374555265,0.06290117541328244
10.777451999999997,6.164127446855319,0.06283906078198229
10.779847999999998,6.130095525881971,0.0627689354920035
10.782244,6.097925936028179,0.06269288157046436
10.784627999999998,6.061193066174113,0.06266788799271863
10.787011999999995,6.026322527439603,0.06263804273782236
10.789407999999998,5.987587556839119,0.06262228004910994
10.791795999999998,5.94699025511908,0.06261084669597113
10.794175999999997,5.902528521533068,0.06261588349334427
10.796571999999998,5.859929119066611,0.06261562825260827
10.798955999999995,5.819751126227152,0.06258087939019284
10.801351999999998,5.778502198201055,0.06255706557151475
10.803756,5.735111399801681,0.06255193560243813
10.806144,5.693582932521864,0.06254277951287227
10.808523999999998,5.65591889710802,0.06251819207196255
10.810927999999995,5.618906488000233,0.06250702681345428
10.813312,5.586689676318198,0.06247597221403208
10.815696,5.556195426128862,0.06244758599873311
10.818095999999995,5.526772111126163,0.0624090443667243
10.82048,5.49800042242952,0.062383073680214216
10.822864,5.4581472948141565,0.06243325161472051
10.82526,5.417083462385293,0.06250283016051986
10.827648,5.377322882568545,0.06259975913934718
10.830028,5.33500112349794,0.06274453579526233
10.832427999999997,5.29561263073353,0.06287803553683571
10.834816,5.258877865021595,0.06301107550824624
10.837196,5.222654955988857,0.06316665910796314
10.839595999999997,5.191879270687929,0.06331382647866317
10.84198,5.163897082066336,0.06345452840131201
10.844364,5.1327020878848275,0.06363084369705548
10.84676,5.097083583329906,0.0638626850810631
10.849148,5.063187640267679,0.06410270465605823
10.851527999999998,5.029291697205454,0.06434533867178352
10.853928,4.995395754143228,0.06458929924010226
10.856316,4.964293307760336,0.06482440635109638
10.858695999999998,4.935332731750721,0.06503701325256887
10.861092,4.90423028536783,0.06527468064922222
10.86348,4.874059004544718,0.06550976775873368
10.865859999999998,4.845610285214302,0.06574912363656983
10.868256,4.813948760323969,0.06603040131889183
10.870644,4.785220501739832,0.06630366426471218
10.873027999999998,4.757563178342333,0.06656694763543711
10.875424,4.729254228638776,0.06681745021081964
10.877812,4.702295753375579,0.06704158776226045
10.880191999999996,4.678270544418577,0.06724598235276198
10.882587999999998,4.653314169901796,0.06745363344442791
10.884975999999998,4.628357795385015,0.06766366544785189
10.887355999999995,4.598466053815622,0.06791437823871296
10.889755999999998,4.56736360743273,0.06819194799629767
10.892143999999998,4.5364009306767,0.06846720398098079
10.894523999999995,4.510233851346421,0.06871562222984824
10.896919999999998,4.4860688727625595,0.0689487830553024
10.899307999999998,4.464417851604311,0.06918994503249026
10.901704,4.441556125632566,0.06945883154892804
10.9041,4.414969737421704,0.06974805778620809
10.906488,4.388755436263182,0.07007285079853544
10.908872,4.364403466224217,0.07039135857396255
10.911268,4.340051496185251,0.07070986634938965
10.913656,4.318493022825621,0.07101312418570818
10.91604,4.300938750958823,0.07128239624471398
10.918439999999997,4.291113342823973,0.07149291545186788
10.920827999999997,4.281008395435402,0.0717254184593389
10.923203999999998,4.272765779166388,0.07194788170360494
10.9256,4.269970386629184,0.07214962065611293
10.927984,4.268245929278617,0.07233494996395196
10.930363999999996,4.2662419326743315,0.0725405252439952
10.932755999999998,4.265029332002965,0.07275192953190229
10.935139999999995,4.267681163197571,0.07293386462751483
10.937535999999998,4.269262059205537,0.07313323193569188
10.939927999999998,4.2776406533856735,0.07327429042252441
10.942311999999998,4.28522785163289,0.07341009171002387
10.944708,4.294025754693607,0.07351993749938251
10.9471,4.301101096261627,0.0736298059625314
10.949483999999998,4.311109704135842,0.07371268496877985
10.95188,4.326565535741866,0.073772581969888
10.954272,4.340578345108915,0.07381164579155176
10.95666,4.354311615222244,0.0738701059478927
10.959039999999998,4.369767446828268,0.07392735584454571
10.961443999999997,4.383221177687876,0.07400593803650242
10.963828,4.396674908547483,0.0740839346912491
10.966203999999998,4.4042621067947,0.07421587714086214
10.9686,4.414922340974973,0.07430983051604954
10.970983999999998,4.423440704781969,0.07443530498134332
10.97338,4.427303240790074,0.07458858649098513
10.975783999999996,4.427813201611403,0.074799404313506
10.978167999999997,4.431535967992646,0.0749615755215592
10.980548,4.432465237694555,0.07514207679935071
10.982947999999997,4.435396608142882,0.07529945934999632
10.985332,4.446196611950015,0.07537951809649694
10.987711999999998,4.449779608704398,0.07555023413054321
10.990104,4.455224936578339,0.07570873310164068
10.992487999999998,4.462253056318116,0.07587468481652644
10.994879999999998,4.473285377550726,0.07599771265985684
10.997283999999995,4.485248864343116,0.07611436263620366
10.999671999999997,4.493487688896391,0.07625289010435062
11.002052,4.501586743822806,0.07640151010323314
11.004444,4.5131781435628575,0.07648341266579065
11.006832,4.522627672929631,0.07659533334777556
11.009211999999998,4.535801864535519,0.07668392217770084
11.011616,4.550838387260963,0.07676069940411627
11.014,4.570810277039019,0.07678923950259094
11.016384,4.590362857936494,0.07684616677386735
11.018783999999997,4.611777769953526,0.07689010346465106
11.021172,4.633984077903476,0.0769364421007444
11.023552,4.6584720258535635,0.07694055395222513
11.025944,4.679607398616876,0.07700071116114071
11.028327999999998,4.707540469552358,0.07699979410443468
11.030724,4.732400504554782,0.0770355220321491
11.033119999999997,4.75539820843765,0.07708439948710427
11.035508,4.787475250492824,0.07703453723128413
11.037883999999998,4.81848135736136,0.07700044043415527
11.040287999999997,4.8474853634834805,0.07698670762219814
11.042675999999997,4.872345398485905,0.07702312007471139
11.045056,4.895343102368773,0.07707014066878827
11.047452,4.921134302930975,0.07709979241220362
11.049836,4.950510396105432,0.07711532618551958
11.052232,4.97760484927975,0.07717088115689415
11.054636,5.004187445774872,0.077202930307311
11.057019999999998,5.024112113724685,0.0772820186472533
11.059399999999997,5.0449679472342766,0.07735527975258157
11.061795999999998,5.06489261518409,0.07743440989675845
11.064179999999997,5.084584965708425,0.07747429541390737
11.06656,5.105627790673119,0.07748235946853585
11.068956,5.12895225563795,0.07745335103827743
11.07134,5.151205785416144,0.0774383654163969
11.073735999999997,5.172947458515139,0.0774008169246127
11.076131999999998,5.1911042390018824,0.07737726352977231
11.078515999999995,5.208609393182567,0.07734061619914957
11.080896,5.222389885124138,0.07732570805998756
11.083299999999998,5.228581282960623,0.07736206910895914
11.085687999999998,5.233701745610468,0.07741205593687729
11.088068,5.23737918602134,0.07744646861410073
11.090471999999998,5.243198496805488,0.07745282565263127
11.092855999999998,5.250228512403133,0.07743662282215907
11.095239999999997,5.256467132067862,0.07741721441846708
11.097635999999998,5.260471333560696,0.07737935797107398
11.100019999999995,5.261682038374194,0.07735693774464239
11.1024,5.264103448001191,0.07731209613513287
11.104803999999998,5.269737663188104,0.07722503935285238
11.107191999999998,5.2752793305764,0.0770932902995183
11.109572,5.278167270912221,0.0769687146747657
11.111976,5.279984276061403,0.07685815993211251
11.114359999999998,5.2797991804641695,0.07676650752404177
11.11674,5.276029192254683,0.07668617187138003
11.119144,5.274540844045333,0.076571006806835
11.121527999999998,5.277987862888596,0.07641571578087564
11.123911999999995,5.284228378411193,0.0762473520067514
11.126307999999998,5.291400059493568,0.07607390305078036
11.128691999999996,5.298711510202803,0.07589153029519081
11.131072,5.31109809759151,0.07566155682854267
11.133475999999998,5.322181432368103,0.07540661107478047
11.135863999999998,5.333404536771554,0.075142925448955
11.138243999999997,5.341042748562755,0.07488890864535462
11.140643999999998,5.34495629811484,0.0746531602828789
11.143031999999998,5.34714728617423,0.07441853869318232
11.145411999999997,5.346125468673703,0.07422230601552039
11.147807999999998,5.345522960053757,0.07399919438031655
11.150191999999995,5.345851616993589,0.07377196430040178
11.152572,5.344038403560146,0.07357043359453966
11.154975999999998,5.333657708633593,0.07347433642611786
11.157363999999998,5.325139344826598,0.07336847481697178
11.159744,5.312756549153628,0.07328983775306767
11.162147999999998,5.2965093216146855,0.0732395025034336
11.164531999999998,5.281705116314718,0.0732054441435506
11.166912,5.261825774335281,0.07322200039840557
11.169315999999998,5.231935928623758,0.0733331474847837
11.171699999999998,5.196319319926705,0.07348248733613376
11.174083999999995,5.156978048990538,0.07365467423494036
11.176479999999998,5.116146533987152,0.07387162235022857
11.178863999999995,5.068098011931016,0.07417023675298477
11.181244,5.021632281740717,0.07447664926816598
11.183647999999998,4.9775407393491715,0.07479248950611708
11.186031999999996,4.935963154383241,0.0751138251975438
11.188412,4.897970462029565,0.07542439355481614
11.190815999999998,4.859977769675887,0.07573536784286335
11.193199999999996,4.826129048441904,0.07599905213212975
11.195583999999997,4.7917212487004806,0.07630302093299154
11.197988,4.753029708212503,0.07666755993129258
11.200371999999998,4.718482138844218,0.07698194716726892
11.202751999999997,4.691011806901824,0.0772269915642366
11.205156,4.660747978280095,0.07748801627362988
11.207539999999998,4.636210912643894,0.07770781815812905
11.209919999999997,4.612744782194333,0.07791807257154891
11.212324,4.5866249246922965,0.07813857804124127
11.214712,4.561715772003758,0.07833770487117413
11.217087999999997,4.539367798569079,0.07848307123800315
11.219492,4.515157494014843,0.0786459053307753
11.22188,4.498024426886495,0.07872325650083943
11.224259999999996,4.482940682332807,0.07871386304492711
11.226655999999998,4.470138577779258,0.07866243792783967
11.229039999999998,4.452540875799956,0.07865487819013814
11.23142,4.42670245340951,0.07869918724722887
11.233823999999998,4.398210303966589,0.07875567887097099
11.236211999999998,4.367995593030971,0.07881453467494785
11.238591999999995,4.336570177281854,0.07890363553880801
11.240996,4.301280329666766,0.07903029529789676
11.243379999999998,4.268411891678673,0.07910139359661342
11.245759999999995,4.2368939281309395,0.07913695347504804
11.248164,4.202582467903871,0.07918970778218708
11.250547999999998,4.164546345437689,0.07927033977993515
11.252931999999998,4.123437187038451,0.07940125734003338
11.255332,4.0753905608401855,0.07962306361636215
11.25772,4.030416970574975,0.07980071142641813
11.260095999999995,3.98837664661596,0.07994646073293311
11.2625,3.9492695889631397,0.08005552897592873
11.264888,3.917611855788546,0.08010088550948229
11.267267999999998,3.894753921532538,0.08004470193829227
11.269672,3.8676122465299763,0.08005873407376758
11.27206,3.837769622646696,0.08015393895602765
11.274435999999998,3.8077872291365553,0.08026274952829733
11.276843999999995,3.7847423034254444,0.08028734003449105
11.279228,3.7671446014461427,0.0802827616248711
11.281608,3.7494071298399803,0.08029271330062264
11.284004,3.7295277878605413,0.08034438900927593
11.286392,3.7085775106944636,0.08042147956447009
11.288771999999998,3.6900014213271404,0.08051290432506805
11.291175999999997,3.66914369195968,0.08065938026799828
11.293564,3.6477268840847783,0.08086126345573225
11.295944,3.622817731396241,0.08116066687878025
11.29834,3.6004225361333173,0.0814622844746967
11.300728,3.584685269415703,0.08168990913639479
11.303107999999998,3.5737436001238407,0.08186277221690265
11.305504,3.5630342482574555,0.08209150559064914
11.307887999999998,3.552976522697128,0.08233592409252853
11.310271999999998,3.541288783442721,0.08265513626782424
11.312676,3.5213131019489263,0.0831329963638755
11.31506,3.493840874148663,0.08377177474123332
11.317439999999998,3.4639472367214004,0.0845004402889236
11.319836,3.437778261533252,0.08519526637045383
11.322224,3.415054409330496,0.08587715023892606
11.324603999999995,3.387767277127466,0.08668568177341521
11.327008,3.3643445767904097,0.08743327125023496
11.329396,3.3487905098121598,0.0880508002088077
11.331775999999998,3.335098773953467,0.08865732018836711
11.33418,3.3284842755206636,0.08913432181004621
11.336568,3.3212181507818017,0.0895973794297596
11.338943999999998,3.3168852923491348,0.0900167159017454
11.341335999999998,3.3166964050361623,0.09035316009289557
11.343723999999998,3.3225138199624404,0.09058470709369856
11.346116,3.331404270821774,0.09075529393953405
11.348519999999995,3.3361507505614125,0.0910096508243841
11.350904,3.3419681654876907,0.09123888448048362
11.353284,3.3463425581749924,0.09144909662719236
11.35568,3.347923454182959,0.09169323249636174
11.358068,3.34792155832509,0.09193423820239831
11.360447999999998,3.3554162087736903,0.09199777534121714
11.362851999999997,3.368265535155483,0.09193156325341714
11.36524,3.3864695374704694,0.09173246988258084
11.36762,3.404673539785455,0.09153410495379014
11.370016,3.419572188741909,0.09134138279744289
11.372404,3.436100851392441,0.09106010899462996
11.374783999999998,3.4519778877369163,0.09077151734735146
11.377187999999997,3.46184862184214,0.09060032690699753
11.379572,3.473721456693781,0.09039152226011485
11.381951999999998,3.4786568237463933,0.09030637912812042
11.384348,3.482521255612367,0.09024538453292524
11.386732,3.4842438171050634,0.09023540761512482
11.389128,3.4853147522917016,0.09021014617844424
11.391523999999997,3.4815900900525887,0.0902570181528691
11.393911999999997,3.471859125574225,0.0904158761354041
11.396292,3.4656205059094973,0.09047141721683884
11.398695999999996,3.457659324752073,0.09053659037238915
11.401083999999996,3.4507690787812866,0.09057621765376014
11.403464,3.44494976799714,0.09059117989853457
11.405859999999995,3.4412723275862693,0.09055416695255208
11.408247999999997,3.4322402112422066,0.09064740131157721
11.410628,3.41906412377845,0.09083178923335161
11.413024,3.402954770008498,0.09106486733185465
11.415412,3.3872647251191266,0.09125319687633376
11.417792,3.373157472095592,0.09144742097328051
11.420195999999995,3.361703946124531,0.09161799406108947
11.42258,3.343173182727582,0.0919325115240691
11.424964,3.323851023397714,0.0922509372107075
11.427359999999997,3.3026665329482903,0.0925943534920091
11.429744,3.282273438431784,0.09295143929726343
11.432128,3.264813610221473,0.09325759770021205
11.43452,3.2467021557051057,0.09355443357926559
11.436903999999998,3.225377895628821,0.09393648786422203
11.439296,3.20805783704537,0.09423844594748572
11.441699999999996,3.193950584021835,0.09445983438390483
11.444087999999995,3.177561690998163,0.09475285961029858
11.446468,3.1610330283476307,0.09506317244428504
11.448871999999998,3.147717171257014,0.09527946312509189
11.451255999999995,3.1354722493530356,0.09546798734795414
