Time,Force,Position
11.42712,0.672719184396584,0.014664941812363079
11.429499999999996,0.6542356428278778,0.011735351991451232
11.431895999999998,0.6353327923785909,0.008852668821008214
11.434283999999998,0.6161504026755835,0.005969985650565196
11.43668,0.5956175385322173,0.0030291689408744014
11.439076,0.579321193307162,0.0
11.441464,0.5663302014406395,0.0
11.443839999999998,0.5531522181190136,0.0
11.446236,0.5379249122227275,0.0
11.448619999999998,0.5255836508043936,0.0
11.451016,0.519853096103125,0.0
11.453408,0.5148667155065314,0.0
11.455796,0.5162115023732826,0.0
11.458171999999998,0.5203025640911256,0.0
11.460568,0.5291420014064773,0.0
11.462951999999998,0.5396567783862823,0.0
11.465348,0.5565027228294323,0.007125636901502165
11.467751999999996,0.5827528706689824,0.014013352225118736
11.470135999999997,0.6124009196656822,0.021072116635747245
11.472516,0.6426533731401968,0.028291176001900422
11.474912,0.6730909222119454,0.03584876313174134
11.477296,0.699988904641815,0.04378217192510666
11.479675999999998,0.7299127011764968,0.05169965890356133
11.48208,0.7619311462562126,0.05969109891960033
11.484464,0.801538685441015,0.06732198008473642
11.486843999999998,0.8431483253722344,0.07478488562843132
11.489248,0.8856891308632319,0.0823833673848105
11.491636,0.9309308852349473,0.08992116729496878
11.494011999999998,0.9771510269946843,0.0973898185181202
11.496416,1.0263516568888595,0.10456235915633721
11.4988,1.0701522848794682,0.11175889672629773
11.501179999999998,1.1162817746984575,0.1188575187019308
11.503584,1.156219866680962,0.12604064170343332
11.505972,1.192340748625736,0.13332535305415807
11.508347999999998,1.2238530245998618,0.14067541221754912
11.510751999999997,1.2556920616559508,0.14792155527639167
11.513136,1.2770559601290012,0.14846803022366836
11.515515999999998,1.2916693822581262,0.1494146575534668
11.517916,1.3046074647227979,0.1501902357962533
11.5203,1.3180120778962938,0.1505696581864793
11.522696,1.3329541569652514,0.15042924947385442
11.525099999999998,1.3492939323028115,0.14980668591573051
11.527483999999998,1.3588832312964456,0.1495613107860547
11.529864,1.3667971906256269,0.1491997864262214
11.532259999999996,1.3694036958498583,0.1492410171098642
11.534647999999995,1.3667027469691404,0.1496478712657741
11.537028,1.3679134517826392,0.1494949622351423
11.539431999999998,1.3675413647303019,0.14940273505073137
11.541815999999995,1.3670295080511043,0.14935126224479595
11.544196,1.3627929891327932,0.1495560193964483
11.546599999999998,1.3602790317071787,0.1496703270617292
11.548987999999998,1.3616295061475379,0.1495032792657514
11.551367999999997,1.3647025420805934,0.1492517304439042
11.553763999999996,1.3728507146931213,0.14861602992672912
11.556151999999996,1.3809988873056487,0.1479658731612811
11.558532,1.3900782254779545,0.14728606099521993
11.560935999999998,1.4048843266357904,0.14616470568729056
11.563319999999996,1.4213204414877059,0.14478391462650286
11.5657,1.4385479522725395,0.1433888710944989
11.568095999999995,1.4524228878705971,0.14234114587896926
11.570483999999997,1.4612226867891827,0.14169213129820907
11.572864,1.4677408457076309,0.14127238477373621
11.575271999999998,1.4821276379848864,0.14024925142573383
11.577655999999998,1.5002390925012552,0.13904846665949241
11.580036,1.5195612518311226,0.13773073031398436
11.582444,1.541816677467185,0.13617251931991825
11.584827999999998,1.5567153264236384,0.1352643787673644
11.587207999999997,1.5704032705665927,0.1344677533532105
11.589603999999998,1.5843707539632677,0.13361972958431917
11.591991999999998,1.5979189284793616,0.13287535428981656
11.594375999999995,1.611467102995456,0.13215010346597217
11.59678,1.6170068745258828,0.13201542480266631
11.599163999999998,1.622267106802589,0.1319472409853462
11.601543999999995,1.6224522023998231,0.13224813875542982
11.603939999999998,1.6243598594897533,0.13247858808494237
11.606323999999995,1.624917042139325,0.13285672893473605
11.608704,1.6257537640426174,0.13316553097861886
11.611099999999997,1.6258916378116082,0.13363729513277067
11.613484,1.623096245274404,0.1342978246768447
11.615879999999995,1.6215115575506986,0.1348468968014802
11.618275999999998,1.6217892009465495,0.13530430678378544
11.620663999999998,1.626210815462095,0.13543801361061192
11.62304,1.6297012644178617,0.1356271535200361
11.625443999999998,1.6263940152014595,0.13622282816766693
11.627827999999996,1.6206653563580606,0.13704925375688776
11.630211999999997,1.6130743663951044,0.13797528984492022
11.632607999999998,1.6108380523653414,0.13849605658945283
11.634991999999995,1.612745709455272,0.1387171355883646
11.637368,1.6134426617317035,0.13905002214413298
11.639775999999998,1.6114858869556605,0.13950880800459273
11.642159999999995,1.6075270114332008,0.14010401468568742
11.64454,1.6026369703509624,0.14079630485860015
11.646943999999998,1.6012392740823602,0.1411358764640635
11.649327999999995,1.5997018081868979,0.14151697064722812
11.651708,1.596302011171879,0.14201366251692438
11.654111999999998,1.5913194222910239,0.1425583764636115
11.656495999999995,1.5851261285966698,0.14322463713409608
11.658876,1.5801435397158148,0.1437624365210315
11.661279999999998,1.578233986768015,0.14406453387672544
11.663667999999998,1.5771158297531334,0.14434202419372105
11.666048,1.579210478298167,0.14434336924828797
11.668451999999998,1.5782320909101455,0.14457958148840477
11.670835999999998,1.5733892716561508,0.14505994431926073
11.673216,1.570269013894852,0.14548307999340987
11.675611999999996,1.5717120361338277,0.14547355104558612
11.677999999999995,1.5759485550521388,0.14529970581789675
11.68038,1.5797657650898695,0.1452342293026923
11.682783999999998,1.5798583128884864,0.14537597292548227
11.685171999999998,1.5790196951273252,0.14557033958879012
11.687551999999997,1.5861894803518317,0.1452328487100705
11.689951999999998,1.596292531882533,0.14471558474667892
11.692339999999998,1.616126547891598,0.14361184917466138
11.694719999999997,1.6316768231541092,0.14286142337107166
11.697115999999998,1.6495087384167575,0.14191587070151832
11.699499999999995,1.6676201929331262,0.14088605412773458
11.701895999999998,1.6875939785690517,0.1397550324672085
11.7043,1.709849404205114,0.1384584196003761
11.706688,1.7322445994680373,0.13716213423604456
11.709063999999998,1.7586439962237939,0.13570778444772366
11.711468,1.784112227419772,0.1343026209707089
11.713856,1.807438588242473,0.13307250345420799
11.716236,1.829973553132256,0.13184105420831968
11.718632,1.8523687483951787,0.13061076969176638
11.72102,1.8769058140313786,0.12921737987783963
11.723399999999998,1.894086102987969,0.12831787847450868
11.725803999999997,1.9104749960116412,0.1274633951707034
11.728192,1.9242101619828387,0.12671609615667348
11.730572,1.938596954260094,0.12597609696471526
11.732968,1.9561965520972648,0.125027768172572
11.735356,1.9655082076950483,0.12460921754152891
11.737735999999998,1.972305905867217,0.12426553718048781
11.740139999999997,1.9725854451209375,0.12421104489777288
11.742524,1.9748670851210746,0.124051477639333
11.744903999999998,1.975938020307713,0.12398588429014736
11.747307999999997,1.9775208121735492,0.12396252468474367
11.749695999999997,1.9750994025465518,0.12415372849465428
11.752076,1.9693254177327786,0.12457327857905558
11.754472,1.9623407281055065,0.1250840174114067
11.75686,1.9476271747462874,0.12594868900230982
11.759239999999998,1.9334726998945093,0.12669927523303412
11.761643999999997,1.92066869948309,0.12732207198623174
11.764028,1.910006569444948,0.1278116843244734
11.766407999999998,1.9013465401532226,0.12820119907048594
11.768811999999995,1.8908241797419407,0.1286658285427337
11.771199999999997,1.8856564952638517,0.1288154411282819
11.77358,1.8815597459724007,0.1288937705242626
11.775979999999995,1.8785339318675884,0.12890872388285038
11.778367999999997,1.8727146210834416,0.12904242966368118
11.780748,1.8647534399260173,0.1292998271105913
11.783151999999998,1.8602846035822291,0.12931330035193314
11.785535999999995,1.8560480846639182,0.12942721667073365
11.78792,1.8516717961187472,0.12957128519950412
11.790315999999995,1.8442224716405207,0.12989746639198732
11.7927,1.8369129167891545,0.13019675972218053
11.79508,1.8328161674977037,0.13028504804126226
11.797479999999997,1.8330031589528066,0.13010107365837634
11.799864,1.8334696896616305,0.12985779370775824
11.802243999999998,1.835146925183953,0.12951774952759376
11.80464,1.8374757870123333,0.12918052806713276
11.807028,1.840036966266191,0.1289484111971101
11.809407999999998,1.8424583758931887,0.12875019641397056
11.811804,1.843529311079827,0.12868052046723163
11.814191999999998,1.8418067495871306,0.12873539705184103
11.816571999999995,1.8451593247739064,0.12850380183983295
11.818967999999998,1.8473011951471836,0.12837000417100497
11.821355999999998,1.8431572240274896,0.12861500656807306
11.823752,1.837942317721157,0.12893005051856543
11.826148,1.8367316129076587,0.12902833697800636
11.828532,1.8333790377208827,0.1292716670243602
11.830915999999998,1.8325404199597215,0.12944170780701986
11.833312,1.832260880706001,0.12949855958632786
11.8357,1.8347748381316156,0.12943273628504884
11.838079999999998,1.8414327666769241,0.1291174173710364
11.840476,1.8482304648490926,0.12877505100231093
11.842859999999998,1.8525142055956467,0.1285090083510922
11.845256,1.8566581767153407,0.1282768798311902
11.847659999999998,1.8628042485814515,0.12794318934726545
11.850043999999995,1.8650858885815886,0.1277848927134719
11.852424,1.8725824348880584,0.12732977406186513
11.854827999999998,1.8777047933957733,0.12690236319097153
11.857211999999995,1.8798938855972938,0.1266160395657355
11.859592,1.8811518122390354,0.12636595791999908
11.861995999999998,1.8853430051869726,0.12596842956652293
11.864383999999998,1.8835278958956592,0.12589062231860665
11.866764,1.880641851417707,0.12587934960330954
11.869163999999998,1.8809686124996705,0.1256626976652178
11.871551999999998,1.8792932728352172,0.1255566695573608
11.873932,1.8786888683574026,0.12538053855623468
11.876327999999996,1.8805058735065854,0.12500213934258375
11.878715999999995,1.8787379860435147,0.12476472725909923
11.8811,1.8758991633938062,0.12459654731059985
11.883495999999996,1.8705463833184826,0.12449244717534559
11.885879999999997,1.8622603369369641,0.12453538114414973
11.88826,1.854905456115224,0.12453440039891807
11.890659999999995,1.8460603312262645,0.12468505246613468
11.893044,1.8390775374568618,0.12474757858128795
11.895428,1.8302324125679024,0.12488233223806786
11.897824,1.824972180291196,0.12489889550130377
11.900208,1.8158475161485161,0.12508552748463336
11.902587999999998,1.811378679804728,0.12508583029733322
11.904992,1.81249683681961,0.12487225574273697
11.90738,1.8177589649541854,0.12444395596734668
11.90976,1.8220899275289826,0.12405469846254426
11.912159999999997,1.8272122860366982,0.12364800679491583
11.914548,1.8354076804774686,0.12308640618940134
11.916928,1.8465363412244349,0.12240026815199145
11.919324,1.8664648008899862,0.12134754550100688
11.921708,1.8821095198089837,0.12053614755772775
11.924104,1.9004079657804556,0.11967924250509623
11.926507999999998,1.920428973244624,0.11878541702522763
11.928895999999998,1.9395188151490141,0.11790247415335471
11.931275999999997,1.959120513732602,0.1170597645548093
11.93368,1.9799329171296887,0.11612966934049579
11.936068,1.9996743853401369,0.11527053629493116
11.938447999999998,2.02248888948364,0.11426701117932009
11.940843999999998,2.0405077962013918,0.11346511690617343
11.943231999999998,2.0613201995984785,0.11257955060110195
11.945611999999995,2.0814809766895075,0.11168252266378927
11.948007999999998,2.1035040849000928,0.11072854999532655
11.950395999999998,2.1208713653117868,0.10994377580414244
11.952775999999997,2.1326516523648107,0.10935075152513708
11.955184,2.1407072771787212,0.10888777955377356
11.957567999999998,2.14969406755241,0.10840248997344891
11.959947999999995,2.1609624979262363,0.10779095690731923
11.962343999999998,2.1712997627402837,0.10722227102220508
11.964731999999998,2.1807058619945536,0.10669384535199154
11.967111999999997,2.184524967890153,0.1063352856066808
11.969507999999998,2.192627814532307,0.10579139939089825
11.971895999999996,2.1959350637487085,0.10539296056891838
11.974276,2.198311147405332,0.10502008074246558
11.976671999999995,2.2054828284877073,0.10451124157159372
11.979059999999995,2.2138652143835817,0.10393859427496188
11.98144,2.222759456958653,0.10341228526389959
11.983835999999997,2.229651598787308,0.10294712399724736
11.986224,2.232399769496269,0.10264005218373456
11.988604,2.2359393361381485,0.10232586966841341
11.991,2.2351951620334733,0.10219644995484467
11.993388,2.235382153488577,0.10204371329327667
11.99578,2.2365003105034584,0.10187016449546103
11.998179999999998,2.24320546087701,0.10156393946624187
12.000567999999998,2.252843877556757,0.10116715166773249
12.002948,2.262062985355923,0.10083151772446694
12.005343999999996,2.272073489088007,0.1005030059010219
12.007727999999997,2.280733518379733,0.1002637420858281
12.010108,2.2872516772981815,0.10011081128349275
12.012507999999997,2.293630066589769,0.09998206584557336
12.014895999999997,2.296655880694581,0.10000094326760621
12.017276,2.2995419251725333,0.10004226313813021
12.019679999999996,2.3050816967029606,0.10004064566070535
12.022063999999997,2.313834273793303,0.09991889692504985
12.024448,2.318722419017672,0.09990090222380237
12.026847999999998,2.3251933561078766,0.09988609946477404
12.029235999999996,2.3308728972651633,0.09987068180966724
12.031616,2.341487805475062,0.09972002368531872
12.034011999999995,2.3571778503644336,0.09941399389095835
12.036399999999997,2.3747302263733614,0.09906595069584212
12.03878,2.3976372783154822,0.09852105629808112
12.041183999999998,2.4225464310040192,0.09794053293562296
12.043567999999995,2.4433116125728627,0.0974924748716871
12.045948,2.4574188655963978,0.0971986864983039
12.048351999999998,2.47352821936635,0.0968627182291411
12.050735999999995,2.4924310698156367,0.09647303952912951
12.05312,2.5063985532123114,0.09620552221781176
12.055515999999995,2.523439072542042,0.09585344287633997
12.057903999999995,2.5444837933646056,0.09539901377793292
12.060284,2.564457579000531,0.09498202868284963
12.062679999999997,2.5902978972488464,0.0944178825278355
12.065067999999997,2.6139963451238852,0.09393368575279623
12.067463999999998,2.6389054978124227,0.09340547866128433
12.069859999999998,2.654455773074934,0.09315123212287993
12.072247999999998,2.6727995450167796,0.09284747673406953
12.074631999999998,2.6867670284134544,0.09259435594125087
12.077028,2.705018252556683,0.09221565765037504
12.079415999999998,2.7184738792741605,0.09193914381011967
12.081795999999995,2.726062973379247,0.09179415649837822
12.0842,2.7340713763649145,0.09159860566277363
12.086588,2.7382153474846085,0.09148549078885282
12.088963999999995,2.7351423115515527,0.09156664697780137
12.091368,2.736213246738192,0.09153365773442368
12.093756,2.738866973790666,0.09150357184501604
12.096135999999998,2.7363057945368086,0.09162446514341396
12.098532,2.730159722670698,0.09179163733021967
12.10092,2.7269469171107823,0.09189554464474774
12.103299999999996,2.718798744498255,0.09211714948690605
12.105695999999998,2.707065679273474,0.09238045906847574
12.108083999999998,2.694680987742635,0.09262566773979787
12.110463999999997,2.6836467706521554,0.0927897143328079
12.112868,2.6748941935618133,0.09286915010182034
12.115256,2.665350220538553,0.09294201080580514
12.117635999999996,2.666096290501097,0.09275117636368926
12.12004,2.664328403038027,0.09257035712267708
12.122424,2.662560515574957,0.09238739830866784
12.124803999999996,2.65143375068586,0.09245701733880378
12.127199999999998,2.6432402521029585,0.09246519642872249
12.129587999999998,2.6379800198262524,0.09241256110829724
12.131967999999995,2.628436046802992,0.0924922456977371
12.134372,2.620754404899288,0.09254022503262295
12.13676,2.6181478996750567,0.09245942976582261
12.139139999999998,2.614610228891046,0.0923939746417845
12.141536,2.612423032547395,0.09225997381409685
12.143923999999998,2.611446541017243,0.09207316565931713
12.146307999999998,2.6154054165397023,0.09177306696076791
12.148704,2.6188524353829647,0.0914338340277899
12.151091999999998,2.626583194972781,0.0909613210519015
12.153471999999995,2.6380386168017105,0.0904355164982757
12.155867999999998,2.64935426900378,0.08992360661050669
12.158255999999998,2.65373245340682,0.08957502993199329
12.160635999999997,2.657039702623222,0.08926403555976004
12.163031999999998,2.658065311839486,0.08903424731938774
12.165419999999996,2.657880216242252,0.08885811842046835
12.167815999999998,2.659138142883994,0.08870619645594797
12.170219999999995,2.6670539980710446,0.08844998490649347
12.172604,2.6821868603108436,0.08801220806096141
12.174983999999998,2.69932182329706,0.08754425477400059
12.17738,2.7198093614700527,0.08698539493981486
12.179768,2.747374137068934,0.08627634144103284
12.182147999999998,2.7768012437873724,0.08556070956778444
12.184544,2.8075788249461695,0.08480170876036217
12.186932,2.8354231397987713,0.08409258327310465
12.189311999999996,2.86526955539779,0.08335694936919534
12.191716,2.8971180717432254,0.0825844173532572
12.194104,2.923891451409189,0.08192155243083167
12.196483999999998,2.9533185581276267,0.08124965249557775
12.19888,2.9783221544726506,0.08070140086368766
12.201268,2.9971796789515635,0.08027986439779197
12.203647999999998,3.0169683689902547,0.07984555885126861
12.206048,3.041552656454698,0.07934063778646903
12.208436,3.0621327424263076,0.07890606518795756
12.210811999999995,3.082852598024777,0.07844990279339113
12.213216,3.098916625824354,0.07805318102245887
12.215599999999998,3.116470897691151,0.0775912621804054
12.217979999999995,3.1272274713857797,0.07724003561089893
12.220384,3.1346314698936317,0.07698159080491539
12.222772,3.1389624324684293,0.07678667065478907
12.225147999999995,3.1400805894833113,0.0766679069071398
12.227552,3.1376138538859397,0.07657195913520443
12.22994,3.1312826864225958,0.07652552550551268
12.232319999999998,3.1248117493323906,0.07649184980263457
12.23472,3.1203429129886024,0.07642715343303147
12.237104,3.115594537391094,0.07639061030480139
12.239487999999998,3.1101945354875276,0.07633305309728694
12.241884,3.1080073391438763,0.07620980884642856
12.244267999999998,3.105168516494168,0.0760670780112907
12.246664,3.106613434591013,0.07583904959792566
12.249059999999997,3.1122023238075514,0.07553709515937877
12.251448,3.120212622651088,0.07516855005240448
12.253828,3.1272917559348468,0.07481189789140734
12.256231999999995,3.1383750907114387,0.0743961928154015
12.258619999999995,3.1516002958613076,0.07393980366149722
12.261,3.167339458436791,0.07348751285723092
12.263403999999998,3.1800055850792193,0.07308901994641584
12.265791999999998,3.1917405461618693,0.0726905512819622
12.268172,3.2078990176179336,0.07219775357460763
12.270571999999998,3.2243370283277186,0.07167911982053368
12.272955999999995,3.2407750390375027,0.07116235024860007
12.275336,3.253860474560512,0.07071859042153204
12.277731999999997,3.2661545141506023,0.07026389505992497
12.280119999999997,3.2764464529942763,0.06984221887454935
12.2825,3.2898114277710055,0.06938018899964114
12.284896,3.2997312795623426,0.0689183368464705
12.287284,3.309231822473098,0.06849924943771153
12.289663999999998,3.317940969450936,0.06807700617380594
12.292064,3.32865221717519,0.06763925001779375
12.294448,3.33670973784697,0.0672091400358061
12.296831999999998,3.343975862585832,0.06677404208419775
12.299228,3.3480291817647783,0.06639680053171312
12.301612,3.3474266731448328,0.06604196274526078
12.303995999999998,3.3471037037786076,0.06566363149937311
12.306392,3.3461291081063247,0.06526601434860577
12.30878,3.3439910294487856,0.0648134238143853
12.311176,3.3437152819108036,0.06435233508003808
12.313571999999995,3.3533102684780456,0.06380478676739071
12.315959999999995,3.3582494272463963,0.06328205768536871
12.31834,3.3611864852683295,0.06277783828182668
12.320735999999997,3.365054708850042,0.06227189723497171
12.323124,3.3729271339245877,0.0617226074314596
12.325504,3.3828016597455504,0.06115145464302159
