Time,Force,Position
12.3394,9.123426989839633,0.0485742043807368
12.341788,9.141166357303664,0.048541887796824223
12.344168,9.162258299954471,0.04849120204176077
12.346572,9.180556745925946,0.0484406548342192
12.348956,9.197924026337638,0.048390410245517816
12.351336,9.215710615629911,0.048327063786118014
12.35374,9.231355334548908,0.04827275112624989
12.356124,9.248070988654545,0.048214491801766825
12.358508,9.264135016454123,0.048147765514367766
12.360904,9.278196943507284,0.04808531300067842
12.363288,9.290256769814027,0.04802778877769308
12.365668,9.30203705686705,0.04797931308021249
12.368072,9.31102384724074,0.04793081139301814
12.37046,9.318008536868012,0.0478865109466301
12.37284,9.324573917614705,0.04785538199201532
12.375236,9.323922291308648,0.04784651983814061
12.37762,9.322199729815953,0.04784210217080966
12.380004,9.315402031643785,0.047851071588053976
12.3824,9.307533398284976,0.047864444541875516
12.384784,9.29915290824697,0.04786446351542027
12.387164,9.286256360036935,0.047860097919043026
12.38956,9.269774919214646,0.04785136060928118
12.391948,9.253433248019217,0.04783794793405028
12.394328,9.236951807196927,0.047829034339747674
12.396724,9.218328496001362,0.04782907729620362
12.399108,9.190625846633486,0.04785183632150863
12.401504,9.161200635772916,0.0478703256716308
12.403908,9.121625151553403,0.04791677561664484
12.406292,9.077905696214197,0.047976906941430045
12.408672,9.032184140128573,0.04804280578809894
12.411068,8.97845418105728,0.04812858844014605
12.413456,8.922070494933516,0.04820966555429451
12.41584,8.863544938436473,0.04830138074563086
12.418232,8.806881713058987,0.04839402036452687
12.42062,8.749706631002303,0.04847320789049176
12.423,8.69267131857248,0.04854933621861814
12.425404,8.633633905396238,0.048630940034387865
12.427792,8.577669528153052,0.04870377282414246
12.430172,8.519703050163448,0.048782149869303626
12.432564,8.460386097733487,0.04887507967017264
12.434952,8.402791706796222,0.04897365788486223
12.437332,8.346128481418736,0.04907270203827807
12.439724,8.285461054548417,0.0491815387520516
12.442112,8.226004332491597,0.049280807111172116
12.444492,8.167758315248273,0.04937044600557304
12.446888,8.113516499497782,0.04945211450763426
12.449276,8.059134914120435,0.04953977269135191
12.451656,8.007034968743222,0.04961487533423533
12.454048,7.954935023366009,0.049691264527188764
12.456436,7.904976948362075,0.04975819091409515
12.458812,7.862375650037749,0.04979299119171102
12.461208,7.818563646899925,0.049838765566168036
12.463596,7.776102118202458,0.049869191581187015
12.465976,7.732057797639157,0.04988957344917151
12.468368,7.6850802107696605,0.04991589747267386
12.470756,7.637962854273303,0.0499490405376685
12.473136,7.585118734791416,0.04999087801629215
12.475532,7.527479017883778,0.05004056235469354
12.47792,7.463181372430832,0.05010036489521179
12.4803,7.395159064738771,0.050163371348589496
12.482716,7.327416296300431,0.05021529422799632
12.485104,7.255948865622978,0.050269380623195845
12.487484,7.182479334199107,0.05033154579886533
12.48988,7.104074435722625,0.05040834101041104
12.492264,7.022736270939948,0.05049229832477584
12.494648,6.940746479851212,0.05056558892961992
12.497044,6.85810506245642,0.05062800913564796
12.499428,6.779607616181319,0.05067040775123728
12.501808,6.698456442853745,0.05070938574360951
12.504224,6.613720376913917,0.05074361810268253
12.506608,6.523769404667758,0.05080417094986269
12.508988,6.429162604622707,0.05087024101746837
12.511384,6.331482768644601,0.05095232584746412
12.513772,6.232871767106715,0.05103406979545209
12.516152,6.137985427807944,0.05111519222846745
12.518548,6.044729102203253,0.05116205681366341
12.520936,5.954545812531615,0.051197582750643025
12.523316,5.869437659539452,0.05120961877207414
12.525732,5.792337909532953,0.051190463096230404
12.52812,5.71924236101929,0.051155372001533694
12.5305,5.6401405102663755,0.05114601270583267
12.532916,5.5608988898866025,0.051145828941897474
12.5353,5.479794938387272,0.051149891742170425
12.537684,5.3986909868879405,0.051157440749614695
12.54008,5.312651668335997,0.05118845760614291
12.542468,5.227403745716972,0.05122678119013615
12.544864,5.142947219030866,0.05127259158137755
12.54726,5.0524843901055085,0.05134823197257576
12.549648,4.965094597113206,0.051403929916505386
12.552028,4.880218761546519,0.05147688890202211
12.554424,4.795342925979831,0.05155578658944527
12.556808,4.7141917526522565,0.05163811324372375
12.559188,4.637044780817516,0.05170089375008481
12.561588,4.5596182697290555,0.05178472584648948
12.563972,4.477396161214844,0.05188727371068588
12.566352,4.393963347887131,0.052005750813227704
12.568752,4.314394966425394,0.052111191299734884
12.571136,4.2317535490306,0.05223772684450603
12.573532,4.143105829396556,0.052402630912846214
12.575928,4.052456009016096,0.05258130976293426
12.578316,3.966881325315107,0.05273199704981084
12.580696,3.8861022390398703,0.05287256455193911
12.5831,3.811189685377024,0.05298880157538295
12.585488,3.74107272913993,0.053093624024369256
12.587872,3.6786846366347823,0.05317455819220625
12.590264,3.617367479316274,0.05324297414744529
12.592652,3.554839617184266,0.05334268635523151
12.595032,3.4964557261719524,0.053403874765498814
12.597436,3.438583691838837,0.053499793537617364
12.59982,3.3809911967594406,0.05357416882538376
12.6022,3.32633196798624,0.053636701107279756
12.604604,3.2747457751460955,0.05367135534911519
12.606992,3.2228800430522297,0.0537329354917144
12.609372,3.1690122102119482,0.05382227938601271
12.611776,3.1180776436778608,0.05389970021323168
12.61416,3.067654933822971,0.054023034086782565
12.61654,3.0130882528483873,0.05420528882585866
12.618944,2.957310867060306,0.05443464233596337
12.621332,2.908191409817532,0.05464115656225055
12.623712,2.8598633485076763,0.05487118107048693
12.626108,2.813118079063657,0.05513152861101733
12.628496,2.7668846662988353,0.055445532962919396
12.630876,2.716879369466657,0.0559070484295697
12.63328,2.6689687211795126,0.05645073639286964
12.635668,2.621010851064125,0.05712944655056506
12.638048,2.5753799469192487,0.05797821663592387
12.640452,2.5337060224389627,0.05892218298455438
12.642836,2.4951504598621064,0.06004595950909809
12.64522,2.457618610643645,0.06129368352332757
12.647616,2.4216223314627774,0.06271481033403987
12.650004,2.390374427879418,0.06419695717698434
12.652384,2.36294373433379,0.06573344423062782
12.654784,2.338538854892973,0.06734047740547117
12.657172,2.3258198188486943,0.06889635322240953
12.659552,2.317709388775063,0.07053211051370958
12.661956,2.318491305418635,0.07211704396428836
12.664344,2.329096734339188,0.07365712818348512
12.66672,2.347663344417165,0.07517494658890117
12.669128,2.369115998973094,0.07673847673618184
12.671512,2.393314928380115,0.07839083985872693
12.673892,2.420399902265088,0.0800931729780069
12.676296,2.449207437642757,0.08177657360885204
12.67868,2.484812671192595,0.08334466842960471
12.68106,2.518974882503457,0.08486142226237572
12.683456,2.5549068771352585,0.08624276176237572
12.685844,2.591445172102744,0.08741702578818714
12.688224,2.6270995233386945,0.08847668202431153
12.690628,2.662801096402888,0.0893960203690724
12.693012,2.7001326831611605,0.09019107259324116
12.695392,2.7424468588002893,0.09074798712162042
12.697788,2.781735220334604,0.09125557892854919
12.700176,2.8169268325774697,0.09175128750869735
12.70256,2.8510947314619393,0.09215784798744268
12.704956,2.8777207580695654,0.09258506989736029
12.707344,2.8986672435199052,0.09300121305917701
12.709724,2.9108611518799017,0.0934921088907049
12.712124,2.9152336487093344,0.09404591874871104
12.714512,2.9164405618070948,0.09458649023372277
12.716892,2.9147614304269034,0.0950813499768699
12.719284,2.9104757938224797,0.09550963723329572
12.721672,2.9055857527402416,0.0958126297604697
12.724052,2.895667796806774,0.09615039673138655
12.72646,2.8839347315819928,0.09641337231874383
12.728844,2.871038183371957,0.09662568558789847
12.731228,2.855627677736307,0.09685473140131705
12.733624,2.8362129706078223,0.09718674839120654
12.736012,2.817869198665976,0.09748540471521319
12.738396,2.7985017133657344,0.09771033138709351
12.740792,2.7776912058265175,0.09791775711756037
12.743176,2.7480808993687145,0.09833489104744887
12.74556,2.7140943043657404,0.09882232917115201
12.747956,2.679176543802988,0.09934560356611169
12.750344,2.643327617680457,0.09989192861406906
12.752728,2.605988447490707,0.10056251248403887
12.755128,2.573584644353569,0.10111021436772402
12.757516,2.5391787404700144,0.10176713899553835
12.759896,2.505704002146238,0.10243583867732549
12.7623,2.471717407143264,0.10306832481895589
12.764688,2.432935214714538,0.10387362179949099
12.767068,2.3980174541517854,0.10457085010803918
12.769464,2.3590954920961997,0.10541443850863084
12.771852,2.3257605233992837,0.10612380982816448
12.774232,2.291075080262009,0.10691827374070181
12.776636,2.2576928897368496,0.10775620123200524
12.77902,2.227243965517885,0.108494670076035
12.7814,2.199588537978256,0.10917706758351893
12.7838,2.1710019448788485,0.10988403546888655
12.786184,2.1437186043915566,0.11061657194882968
12.788564,2.117506199090903,0.11129973507604897
12.790968,2.0994419664027775,0.11168778923798611
12.793352,2.0908291589392958,0.11181334948746449
12.795732,2.085568926662589,0.11178232124957584
12.798136,2.0823107951322997,0.11168295074498125
12.800524,2.0834761739754244,0.11138029218354387
12.802904,2.0847813224454095,0.11105978119028717
12.8053,2.09488626983398,0.11046220359760374
12.807688,2.1062019220360497,0.10978574327326018
12.810068,2.1152359342379814,0.10921122465224745
12.812472,2.131067644612082,0.10840122966930067
12.81486,2.144757484612906,0.10768839352018238
12.81724,2.1592387205466474,0.10694587830599198
12.819644,2.1690641286814976,0.10633371587426617
12.822032,2.1787497671894873,0.10573576092840022
12.824412,2.187504240137699,0.10515884443429513
12.826808,2.1930459075259954,0.1047357507202453
12.829196,2.1968650134215943,0.10434075816128116
12.831576,2.1993336448768352,0.1040410025707551
12.83398,2.197937844466103,0.10388158908887168
12.836368,2.1931894688685936,0.10391397913393824
12.838748,2.183226186964753,0.1041960653482045
12.841144,2.164323336515466,0.10484912287684887
12.843532,2.1428593068123214,0.10568729477239208
12.845912,2.1203243419225384,0.10657075828164353
12.848316,2.0944368018459794,0.1076570569900114
12.8507,2.0671987873290614,0.1088375036941458
12.85308,2.035304945013252,0.11013307777247729
12.855476,2.005133664190139,0.11138797983977589
12.857864,1.9765451752328624,0.11269127459567091
12.860244,1.9448836503425304,0.11413105426290124
12.862648,1.9192284276914489,0.11526339808052849
12.865032,1.8986483417198396,0.1161638269585494
12.867412,1.8817929179873436,0.11696147417286741
12.869816,1.867870760561043,0.1176448617252255
12.872204,1.8570216390677974,0.11818986910025933
12.874584,1.8478950790672481,0.11871428980455317
12.876984,1.8411427068654533,0.11922966221988937
12.879368,1.8376031402235742,0.11958608842006088
12.881752,1.8379280054476683,0.11980131413111755
12.884156,1.843188237724375,0.11981295344653631
12.886544,1.8533838370536933,0.11962178260021662
12.888924,1.8665127026892068,0.11928886355760975
12.89132,1.8797813379515804,0.11891543750968389
12.893708,1.8918392684004555,0.11862164134800172
12.896092,1.9089723355288029,0.11807668300448879
12.898488,1.9281075034035666,0.1174450867026415
12.900872,1.9449610312781935,0.11693701865919265
12.903256,1.9607436239661817,0.11649435725950116
12.90566,1.9790873959080275,0.11584205769819979
12.908048,2.0003644341560687,0.11505843701035076
12.910428,2.0147040046050813,0.11462233246528852
12.912832,2.024620064680679,0.11445735963325288
12.915216,2.036398455875834,0.11423775384774737
12.917596,2.0492477822576274,0.11397850390292236
12.920004,2.0580929071465865,0.11389081025090951
12.922388,2.0693594416625434,0.11364883663010979
12.924768,2.081976450618859,0.11331171130105126
12.927172,2.0941741506945943,0.1130511411260182
12.92956,2.1034385844641346,0.11289808253843861
12.93194,2.1099095215543393,0.11283384477291916
12.934344,2.111305321965072,0.11298499616300077
12.936732,2.1156343886820004,0.11302614063026017
12.939112,2.121034390585567,0.11301359521712454
12.941512,2.1257827661830757,0.11297883706866224
12.9439,2.1265269402877505,0.11311175229804804
12.946284,2.11833154584698,0.113629685756724
12.948684,2.1169338495783774,0.11387678302976283
12.951072,2.116607088496414,0.11406703207208642
12.953456,2.1158610185338698,0.11432824812598122
12.955852,2.1131128478249086,0.11467157738050165
12.95824,2.1122270082355046,0.11495800018730815
12.96062,2.1117604775266807,0.11517387452890204
12.963016,2.1054274142054665,0.11563330274483752
12.9654,2.0921568830852237,0.11640303591507446
12.967784,2.0826110142040943,0.11704373159607794
12.970176,2.067710469389772,0.11798718914207798
12.972564,2.047734787895977,0.11919196578379633
12.974944,2.025245148976568,0.12046861878982901
12.977348,2.0054092371096335,0.121683027810322
12.979736,1.9882270522951737,0.12280890653049385
12.982116,1.9733265074808515,0.1238019696023592
12.984512,1.9565636315469725,0.12485244982514156
12.9869,1.9416630867326503,0.12581639280645474
12.98928,1.9306269737843011,0.1266121363481267
12.991684,1.9187994649030344,0.12743690355706794
12.994072,1.9161910638209336,0.12779614925201896
12.996452,1.9090666045668012,0.1283037588721903
12.998848,1.901942145312669,0.12880398433366982
13.001236,1.894817686058537,0.12929954844814498
13.003616,1.8869018308714867,0.12980987792762194
13.00602,1.876052709378241,0.13047551532289123
13.008408,1.8681368541911905,0.1309964762262222
13.010784,1.8643649701238343,0.13129600053054533
13.013188,1.8636661219895334,0.13143385255551687
13.015576,1.8572405108697023,0.13184866024562547
13.017956,1.8530965397500079,0.13210835876636243
13.020356,1.8508148997498706,0.13228938939321538
13.02274,1.8522579219888466,0.1322870863426626
13.025124,1.8550514186681815,0.1321532274574083
13.02752,1.8559825842279598,0.13210915879650986
13.029908,1.8534214049741022,0.13234963777804504
13.032288,1.8507204560933843,0.13262046758613252
13.034684,1.8450862409064712,0.1330575593433399
13.037072,1.8362392201596422,0.13371860658587542
13.039452,1.8301856960921485,0.13424602143337017
13.041848,1.8238526327709346,0.13481181126630876
13.044236,1.818450735009499,0.13533493671688282
13.046616,1.8110467365016463,0.13597717146262298
13.04902,1.801128780568179,0.1367011783298056
13.051408,1.7904194287017936,0.13745845458879258
13.053788,1.787066853515018,0.13771090200410369
13.056184,1.782922882395324,0.13796940714122236
13.058572,1.7778477457158517,0.13826638682387932
13.060956,1.7737037745961577,0.13852321153308358
13.063352,1.7777079760889913,0.1382957919861925
13.06574,1.785576609447799,0.13787828899498114
13.06812,1.7957268828067432,0.13729027160103827
13.07052,1.8062964650462683,0.1366456634579467
13.072904,1.8131413850466804,0.13616348796586936
13.075288,1.8194744483678946,0.1356360659542409
13.077684,1.8325126620626602,0.1346480291133415
13.080072,1.8439680838915897,0.1336707665353796
13.082452,1.8544923401607412,0.13270859683570116
13.084856,1.863433804564056,0.13174220744686943
13.08724,1.872515038594231,0.1307631973458626
13.089624,1.8817360422512661,0.12978591417061106
13.092028,1.8896065714679426,0.1289267412448921
13.094416,1.8977566399383394,0.12799782223634223
13.096796,1.9085604354612111,0.1269631023601797
13.099192,1.923740519529254,0.1257773386711918
13.10158,1.9334261580372438,0.12500266279308017
13.10396,1.9388280557986797,0.12449674816324982
13.106356,1.9440901839332552,0.12402033007206423
13.108744,1.9522855783740258,0.12340719439106909
13.111128,1.955266066508464,0.12311319038471981
13.113524,1.9533111875902904,0.12306568351780146
13.115908,1.9513563086721166,0.12301740646091266
13.118292,1.946840250500085,0.1231723118830587
13.120688,1.9439069841938903,0.1233096042512943
13.123076,1.9414855745668929,0.12349046427687488
13.125472,1.9337094890067026,0.12398280120245998
13.127868,1.9275161953123485,0.12446191705387749
13.130256,1.9245357071779106,0.1247508735060199
13.132636,1.9252798812825853,0.12489203027249259
13.135036,1.9280261561336773,0.12493260566387156
13.137424,1.925837063932157,0.12520787861605867
13.139804,1.9270005469174125,0.12526774455871956
13.142204,1.9289554258355863,0.12531807242577223
13.144592,1.927977038447565,0.12550493576249405
13.146972,1.9234137584472906,0.1258083989133395
13.149368,1.9192697873275966,0.126037000948543
13.151756,1.9211321184471533,0.12596259032417506
13.154136,1.92313421919357,0.1258617170546319
13.156532,1.9192697873275966,0.12603674062311399
13.15892,1.914613959528705,0.12622838123905653
13.161304,1.9151730380361462,0.1261201884711295
13.163712,1.9127988502373916,0.12615215071445718
13.1661,1.9079107050130226,0.12624925064465792
13.16848,1.9031623294155138,0.1263193444653407
13.170876,1.900555824191282,0.1262544548636473
13.17326,1.901022354900106,0.1260173569034184
13.17564,1.9025598207955683,0.12571492269272277
13.178036,1.8998135459444765,0.1256786452090167
13.180424,1.9010714725862181,0.12543769079367886
13.182804,1.898185428108266,0.12542388838278043
13.185208,1.9011659162427044,0.12514005035970005
13.187592,1.9009335988172271,0.12504456494743676
13.189972,1.902703382138167,0.1248542619492393
13.192376,1.9096880717654392,0.1243912851016573
13.194764,1.916672761392711,0.123921469979293
13.197144,1.9252402428858193,0.12343344988812255
13.199544,1.9279411917665374,0.12320773133981555
13.201932,1.9323647021399515,0.12294289229134608
13.204312,1.9427945147526167,0.12239676461603269
13.206716,1.9561575936714768,0.1217182794501106
13.209104,1.9661680974035607,0.12126176116201196
13.211484,1.9829762993078135,0.120543714332825
13.213884,2.005511264197597,0.11960719396715383
13.216268,2.0283257683411002,0.11862728522684172
13.218648,2.049277941365047,0.11773366049363661
13.221044,2.0679484743888565,0.1169743194131822
13.223432,2.085827611479748,0.11623053346859463
13.225812,2.1087818852501115,0.11524519062596589
13.228208,2.1258696264080847,0.1145276307064052
13.230592,2.140163870886723,0.11387090271836338
13.232972,2.1515248490591663,0.11334691797426794
13.235388,2.163816992791388,0.11278465075889052
13.237776,2.1741070357771926,0.11231720112944728
13.240156,2.1801133380164432,0.11207151707515026
13.24256,2.1850487050690552,0.11187329903027378
13.244948,2.1891926761887492,0.11168190189556274
13.247328,2.1982720143610552,0.11128958207524353
13.249732,2.202415985480749,0.11109403921890862
13.252116,2.204418086227166,0.11101164700062471
13.254496,2.2081427484662792,0.11089876303435532
13.2569,2.212007180332253,0.11076216782180436
13.259284,2.2070718132796405,0.11094827358463635
13.261664,2.2002741151074723,0.11118126819629713
13.264068,2.1941280432413617,0.11142919277225913
13.266456,2.188913136935029,0.11164782858717325
13.268836,2.1890529065618893,0.11162595148789567
13.271228,2.1910550073083055,0.11155520950350313
13.273616,2.190915237681445,0.11157661921466963
13.275996,2.1927775688010023,0.11152848927589099
13.2784,2.2005064325329493,0.11128937624509742
13.280784,2.207443900331979,0.11105227750853539
13.283164,2.213589972198089,0.11081574628596473
13.28556,2.2197360440641996,0.1105792150633941
13.287948,2.226953051116949,0.11029305833201782
13.290328,2.238174259662532,0.10986157023171386
13.292724,2.249395468208115,0.10943008213140992
13.295108,2.2586145760072815,0.10907742398623245
13.297504,2.27290882048592,0.10852928554855981
13.299908,2.2852009642181415,0.10805220238372581
13.302292,2.291766344964833,0.10774773579997228
13.304672,2.2964693945919676,0.10749059320852318
13.307068,2.3078303727644105,0.10702643365125403
13.309456,2.319191350936854,0.10657154042800719
13.311836,2.3264083579896035,0.10627774159265695
13.31424,2.329201854668938,0.10619730679719108
13.316624,2.3257095098553022,0.10638765755966766
13.319004,2.3194236683623313,0.10665348545940086
13.3214,2.316350632429276,0.10677233523979573
13.323788,2.3100647909363046,0.10703453738535512
13.326172,2.302568244629835,0.10735961781798407
