Time,Force,Position
11.061616,4.267117386255978,0.050392295565454645
11.06402,4.299757298534331,0.050117188464809725
11.066404000000002,4.334259541932242,0.049843657882416285
11.068784,4.364058735703018,0.04964098051006424
11.071188,4.400376088392241,0.04943659138562061
11.073576,4.435342966641105,0.049263000176519946
11.075956,4.469890536009389,0.049117553975560516
11.078352000000002,4.501225299817759,0.04900255210187013
11.080736000000002,4.538985674745958,0.04883131082306955
11.083116,4.576746049674158,0.04866328598981759
11.08552,4.6051475471763315,0.04856316847273491
11.087908000000002,4.628473907999033,0.04849411613057233
11.090288,4.651241190314292,0.048461849768827434
11.092692,4.675079407816192,0.048422224050160986
11.09508,4.690769452705564,0.04842879043901627
11.097460000000002,4.705668101662018,0.048426908149418565
11.099856,4.719356045804971,0.04844327272361938
11.102244000000002,4.732392363641868,0.04844213419229551
11.104624,4.748641487038679,0.04841394289480095
11.107020000000002,4.76759155931621,0.048333938957882266
11.109408000000002,4.780814868608209,0.04826367951196727
11.111788,4.781606264541127,0.04827232450632321
11.114184000000002,4.780535329354489,0.04828101488043381
11.116572,4.781466494914266,0.04828093522286176
11.118952,4.774529027115239,0.04830777293116929
11.121348,4.766800163383291,0.04832609972318431
11.123736,4.763075501144178,0.048326551484783174
11.126116,4.757488507785508,0.048327449095587366
11.128512,4.746407068866786,0.04838085604620109
11.1309,4.73025049326859,0.04846144582404063
11.133296,4.719169054349868,0.048516414649884064
11.135696,4.707947845804285,0.0485807029657085
11.138080000000002,4.69356105352703,0.0486103872900348
11.14046,4.674238894197162,0.048657995912729186
11.142864,4.65812954042721,0.04867901797110442
11.145252,4.641880417030398,0.048708614696998484
11.147632000000002,4.623768962514029,0.048738564419384935
11.150028,4.610313335796551,0.048766915235877166
11.152412000000002,4.5929932772131,0.048804466936020724
11.154796,4.570318542696458,0.04888543933977034
11.1572,4.547643808179814,0.04896708233132021
11.159584000000002,4.530323749596363,0.04900616761860905
11.161968000000002,4.50871995026636,0.04908375263171741
11.164360000000002,4.487395690190075,0.04914304104999357
11.166748000000002,4.4684928397407875,0.04916566710653704
11.169132,4.45108023335872,0.049149660279980606
11.171528000000002,4.431805295857096,0.04913323825868425
11.173912,4.418396890967862,0.04909807201500599
11.176296,4.407409895705626,0.04902627876851699
11.1787,4.399495936376444,0.048935726761273515
11.181088,4.392792681860761,0.048826713304795044
11.183468,4.3843668658523836,0.04870786319358479
11.185864000000002,4.374450805776786,0.04862519147255062
11.188248000000002,4.363324040887689,0.048561060929578063
11.190628,4.3511263408119545,0.048506162877167996
11.193024,4.335995374430022,0.048461153367099274
11.195412,4.317791372115037,0.04843623381058969
11.197808000000002,4.288785470135049,0.04845372195235525
11.200204,4.260431194461119,0.0484923461769538
11.202592,4.23114575322741,0.048533280775327085
11.204972,4.204653808673036,0.04857323831006158
11.207368000000002,4.177370468185744,0.048603123354534004
11.209756000000002,4.152228998071729,0.04861497014447184
11.212136,4.122012391278243,0.048661365124518983
11.214536,4.092028101910234,0.048760938936226135
11.216920000000002,4.056269827728451,0.04894887563499588
11.219304,4.013713855374499,0.04916524998260109
11.221700000000002,3.9652913504081577,0.04940718293451013
11.224088000000002,3.910722773575705,0.0496999564868792
11.226468,3.8533607000639174,0.04999751223105351
11.228864000000002,3.7935772169251325,0.050341106089146395
11.231252,3.738589331212099,0.0506687606771603
11.233648000000002,3.6868142510589808,0.05096504621166249
11.236044,3.6390433723986972,0.0512406396253131
11.238432,3.592203659298192,0.05151621979698168
11.240812000000002,3.5490886084367994,0.051792998081655925
11.243208,3.5091863631353224,0.05203835664118146
11.245596,3.4774322904463735,0.05222452448216136
11.247976,3.449822188877118,0.05237368637681646
11.250372000000002,3.426216288800697,0.05249716531214754
11.252760000000002,3.396743856111885,0.05265294422177172
11.255144,3.3667123449156318,0.052860303753742205
11.257540000000002,3.3398936392792944,0.05302843612290128
11.259924000000002,3.3206640277480437,0.05317970786000914
11.262308,3.301853725097374,0.053298024687652795
11.264704000000002,3.285604601700562,0.05335695451137762
11.267088,3.27494247166242,0.05340992479392778
11.269484000000002,3.264420111251138,0.053451831254213475
11.271884,3.2589728875193287,0.05344847027318791
11.274268,3.2552482252802153,0.05345510942590911
11.276652000000002,3.2479386704288484,0.05345652811696051
11.279052,3.2367646837115087,0.053478147560633404
11.281436,3.2243799921806704,0.05352841123945817
11.283820000000002,3.207991099156998,0.053614916754239565
11.286216,3.18852917020027,0.05373754674487379
11.288604,3.1664135141910674,0.05385433899850871
11.290988000000002,3.145880650047701,0.053994249146750786
11.293384,3.1249284770237544,0.0541728949212211
11.295772,3.0978302321336972,0.05442342895958697
11.298152000000002,3.0647256850043894,0.05473577502714981
11.300556,3.03855860567411,0.054993538603493666
11.302944,3.0168150367172446,0.05517223885131966
11.305324000000002,2.9918586622004644,0.05540025685221151
11.30772,2.960663668018956,0.055618227155381006
11.310112,2.931470774583865,0.05581548195906474
11.312492000000002,2.9046520689475273,0.05605034848437296
11.314892,2.8778333633111903,0.05628801363159667
11.317276,2.855810255100604,0.05649821815991019
11.319656000000002,2.8333678380094387,0.056752431182158364
11.322064,2.810134024985354,0.05699915152876045
11.324448,2.790624874200384,0.05724307679027282
11.326828,2.7688340834152756,0.05754820816269975
11.329228,2.7490453933765844,0.057833086003842196
11.331612,2.7292567033378927,0.05813020761072919
11.333996,2.713611984418896,0.05836979184829903
11.336392,2.6979672654998987,0.058613545530185315
11.33878,2.680599985088205,0.05885008174458982
11.341160000000002,2.656574776131203,0.059140856106861026
11.343556,2.636833307920755,0.05935714438099129
11.345944,2.6220272067629184,0.05952529724457657
11.348324000000002,2.6062899400453032,0.05969311992542206
11.35072,2.5845463710884387,0.059938094879982765
11.353108000000002,2.5649446725048506,0.06014294055340254
11.355504,2.5487880969066556,0.06036802018092034
11.357896,2.5286273198156275,0.06064859243595338
11.360284,2.504090254179428,0.06092668388702803
11.362664000000002,2.4779703966773914,0.06118271142276877
11.36506,2.4469151721227433,0.061502012646996757
11.367448,2.418281357195093,0.06173640363577297
11.369832000000002,2.393651743760276,0.06191160826331308
11.372228,2.369161899952319,0.062073303802038314
11.374616,2.351889063197111,0.062114000791693054
11.376996000000002,2.33089156420279,0.062175954566777256
11.379392,2.3183217770747175,0.06207054327733307
11.38178,2.2998854573342546,0.06202934793157272
11.384164000000002,2.28252007278043,0.06196438162790848
11.386564,2.2623611915472708,0.06191524071408739
11.388952,2.2494193173668604,0.06173499153455356
11.391336,2.2386193135597274,0.06150518561635686
11.393732,2.2288902449392327,0.06125225661742842
11.396116,2.216227910012543,0.06103015414259492
11.398500000000002,2.208361172511605,0.06076430352737103
11.400896,2.196210694264113,0.06059286437249226
11.403284,2.183268820083703,0.06040789208894599
11.40568,2.1743311473961264,0.06016173491456789
11.408076,2.172191172880719,0.05983795691559865
11.410464,2.1708425942982292,0.05952454807247612
11.412844,2.171496116462156,0.05917441238903563
11.415244,2.165212170827054,0.05892030651546289
11.417632,2.1537133188856203,0.0587753184021376
11.420012,2.1444961069443234,0.05855538074021296
11.422408,2.128201657577137,0.05845465338382956
11.424796,2.111767438583091,0.05837665967998809
11.42718,2.0859743421630186,0.05849191978064243
11.429576,2.0640456776089193,0.058571471640788464
11.431964,2.045981444920794,0.05859772789243228
11.434344,2.0307107089120033,0.05860964750221847
11.436744,2.014880894395772,0.05870359957127458
11.439132,1.9935566343194875,0.058957907691720296
11.441512,1.9702302734967867,0.059243129116337
11.443916000000002,1.9469039126740855,0.059536708888420185
11.446304,1.9206442855451888,0.059876878236387134
11.448684,1.900950039162984,0.06002285767421788
11.45108,1.883257893527196,0.06013214608984045
11.453468,1.8652862086376876,0.060283814086291056
11.455848,1.842518926322427,0.06047708335013599
11.458248,1.8217537447535836,0.06063478816902004
11.460636,1.7997778583712414,0.060852450958882
11.463016,1.7815266342280125,0.06106130667813542
11.465412,1.7674193812044774,0.061179713730940916
11.4678,1.748888617807528,0.06144291291415552
11.47018,1.7354329910900508,0.06160828622545763
11.472576,1.7270525010520459,0.06166753886857879
11.474964,1.7205343421335977,0.061720560987785965
11.477348,1.7148075791480677,0.06179249769069083
11.479744,1.70093264355001,0.062060546045958925
11.482132,1.6898512046312872,0.06230162693652276
11.484528,1.6770472042198679,0.06253585619861708
11.486924000000002,1.6683871749281427,0.06266694131739342
11.489312000000002,1.6615894767559738,0.06278026364966156
11.491692,1.6582369015691982,0.0629110488869125
11.494092000000002,1.6578175926886176,0.06298920919647483
11.496476,1.6524156949271818,0.06334080060925401
11.49886,1.6455235530985266,0.06380665916951853
11.501256,1.635418605709956,0.06439549460688274
11.503644,1.6291308683591157,0.06509058249785454
11.506024,1.6229356788068927,0.06592466608076526
11.50842,1.6211167777998408,0.06675425848672724
11.510808,1.6213925253378227,0.06767843664355075
11.513192,1.6206898854877831,0.06878016640462731
11.515588,1.6279484267951678,0.06982279750927042
11.517976,1.6371618470207263,0.07095191325292152
11.520356,1.6469796717240994,0.07224501148296966
11.522752,1.6648984472117572,0.0734372002781913
11.52514,1.6858430368042272,0.07466845140106984
11.527536,1.7147488075541213,0.07583277771758667
11.529928000000002,1.7397429246097986,0.07721477249167784
11.532316000000002,1.7645500502103728,0.07876938035739971
11.5347,1.786516457303369,0.08052124622896538
11.537096000000002,1.8055023762619264,0.0825018852534285
11.539484000000002,1.8220668855934867,0.08459779545808592
11.541864,1.8370013812309678,0.08682961484993235
11.544264000000002,1.855660539107562,0.08897292056059397
11.546648,1.874971323290214,0.09112966036365805
11.549032,1.899217474525478,0.09310525458849346
11.551428,1.9188077979618505,0.09517184652466354
11.553812,1.9369550991592468,0.09718211499034714
11.556192,1.9515175077443898,0.09924390523870041
11.558592,1.9659873685309164,0.10114401415035741
11.56098,1.9831581781981604,0.10280193880878728
11.563376000000002,1.9975827130143131,0.10433202364482168
11.565772,2.0039062970461807,0.10604497937303871
11.568160000000002,2.008275002159875,0.10765262802075372
11.570544000000002,2.0040308998100866,0.10937150020982724
11.57294,1.9990426233556238,0.11090465360637129
11.575328,1.9890264320499318,0.11249691543211941
11.577708,1.9829218944384566,0.11382318423280663
11.580104000000002,1.9787269097747808,0.11495875583965302
11.582492000000002,1.9775124132455437,0.11584873319562738
11.584876,1.9834223759704388,0.11629250818108701
11.587272000000002,1.9932439923895504,0.1164566693522319
11.589660000000002,2.006557953622298,0.11641574016741545
11.59204,2.0216416981759853,0.11621109626642892
11.594440000000002,2.035701729371277,0.11591339460752058
11.596828000000002,2.0481789687007326,0.11563206746711903
11.599208,2.063217387284046,0.11516403580126208
11.601604000000002,2.0777439491881617,0.11464746190380398
11.603992000000002,2.096554251838832,0.1139278474761651
11.606376,2.113362453743085,0.11328642616037234
11.608772000000002,2.126306223781364,0.11278802281186809
11.611156,2.132964152326672,0.11256752080986292
11.61354,2.1485616494174264,0.11198856422428706
11.615940000000002,2.156430282776234,0.11166896379828731
11.618328000000002,2.165741938374017,0.11134834867997756
11.620712,2.1717010187850243,0.11122598921812393
11.623108000000002,2.181152444009668,0.11088166331271627
11.625496000000002,2.188741538114755,0.11060632691973564
11.627876,2.196610171473562,0.11028672649373591
11.630276000000002,2.204199265578649,0.11002083964767106
11.632664000000002,2.201777855951651,0.11017766579164266
11.635048,2.1952124752049595,0.1105215527831292
11.637444000000002,2.1819891659129595,0.1111033194460809
11.639832000000002,2.1669035255014033,0.11172173471345306
11.642216,2.1544716121423217,0.11227114276680655
11.644612000000002,2.139246202103905,0.11291111781135313
11.647000000000002,2.122018691319071,0.11364635035857665
11.649384,2.1054428068402955,0.11440551543269721
11.651780000000002,2.0851422601224066,0.11526597494942956
11.654168000000002,2.0669835837777946,0.11601997631004314
11.656548,2.0471023459404862,0.11683723126652894
11.658948000000002,2.033367179969289,0.11738803437968993
11.661332000000002,2.014556877318619,0.11815228377299425
11.663716,2.0066882439598124,0.11847188419899399
11.666112000000002,1.9978884450412266,0.11883661323073373
11.668500000000002,1.99057889018986,0.11907103188512175
11.670884,1.982710256831053,0.11939832091057803
11.673280000000002,1.975772789032024,0.11969150322673873
11.675668000000002,1.9676246164194964,0.12006261727204634
11.678052,1.9569624863813544,0.12048163900381285
11.680448000000002,1.9549603856349376,0.12057016035778569
11.682840000000002,1.9529582848885205,0.12066076471687143
11.68522,1.9565431775007738,0.1205519645833704
11.687616000000002,1.955984098993333,0.12065557788834898
11.690004000000002,1.949558487873502,0.12102560648080565
11.692388,1.945926373433006,0.12129126851545462
11.694788,1.9473693956719815,0.12129962431775625
11.697176,1.9497435834707362,0.12127267728236793
11.699556,1.9538403327621867,0.12120217646001367
11.70196,1.9587284779865555,0.12112713939206388
11.704348,1.9681326813829558,0.12090389712634966
11.706728000000002,1.9753950144060786,0.12080479604428822
11.709124,1.9850787570561994,0.12053562694129828
11.711512,1.9907582982134864,0.12045962509773585
11.713892,2.002723680863744,0.12007356609657131
11.716296,2.0141299850065617,0.1197863751020025
11.71868,2.025676058776239,0.1194792071002022
11.72106,2.0382930677325546,0.11912829273943348
11.72346,2.0511896159425915,0.11872921316291465
11.725844000000002,2.068602222324659,0.1182086032194281
11.728224,2.0793569001614185,0.11792400941181964
11.730624000000002,2.091182513184816,0.11758105978501869
11.733008000000002,2.1022167302752957,0.11725194800567232
11.735408,2.1153928177390524,0.11679742033992506
11.737804,2.1362977689347558,0.11603818656491106
11.740192,2.153198518637626,0.11543927982914459
11.742572,2.165955297220802,0.11505220610793664
11.744968,2.180062550244337,0.11457534387226086
11.747356,2.1930988680812336,0.11415480423993495
11.749736000000002,2.204552394052294,0.1137568927851749
11.75214,2.2133521929708797,0.11342513769537918
11.754528,2.2204294303967687,0.11312289371098641
11.756908,2.2255045670762406,0.11290585272340334
11.759304,2.230719473382573,0.1126660480103209
11.761692,2.227786207076378,0.11277665791226375
11.764072000000002,2.2243410840909856,0.11284729578745092
11.766468,2.21596059405298,0.11312199129962527
11.768856,2.2058575425222786,0.11342429999616963
11.771236000000002,2.193752390245161,0.11381519840858624
11.773632,2.17820211498265,0.11426693973678953
11.77602,2.165724875653194,0.11459213372267907
11.778416,2.1513853052041814,0.11498560379376542
11.780812,2.13746504363575,0.11529381775511942
11.7832,2.1254071131868746,0.11554228475869852
11.78558,2.110183599006327,0.11579406215753607
11.787984000000002,2.100454530385832,0.11576368132819906
11.790372,2.0903533747130005,0.11566881784938361
11.792752,2.075177082360696,0.11578945162050903
11.795148,2.0594889333291944,0.11586828766034801
11.797532,2.0415191442975553,0.11608200312547355
11.799916,2.020616088959721,0.11643514984882834
11.802320000000002,1.998642098435248,0.1168753107455776
11.804704,1.9753176334704157,0.1174496849279591
11.807088,1.9519931685055838,0.11801699423509315
11.809484,1.933743840220224,0.11835303866971025
11.811872,1.9153547423080042,0.11872308607537778
11.814252,1.900969845888618,0.11891750185231166
11.816652,1.8844430790959548,0.11924520036791833
11.81904,1.866845377116653,0.11967010784157749
11.82142,1.848968135883631,0.12015896731644202
11.823816,1.8281576283444134,0.12081919381409788
11.826204,1.8084180559918346,0.12142789282559209
11.828588,1.7836033469597838,0.12236297501364647
11.830984,1.758276781248535,0.1232229806287241
11.833372,1.730249266656568,0.12437050913826295
11.835752,1.6988691768778257,0.12573733771594064
11.838148,1.6686525700843386,0.12719483802538772
11.840532,1.6445820351569624,0.1282497196952095
11.842916,1.6211631265356443,0.12932435135416426
11.845312,1.5968130523545478,0.13051791884368846
11.8477,1.57940044597248,0.13130004782179244
11.850096,1.5678543722028027,0.13174906641816617
11.852492000000002,1.5565878376868456,0.13216188549622432
11.85488,1.5413171016780551,0.13286392897338062
11.857264,1.5240442649228476,0.1336956642690673
11.859664000000002,1.5107756296604742,0.13424003034788567
11.862052000000002,1.4988574688384593,0.13462419800165826
11.864432,1.4889414087628614,0.13489025191262194
11.866828000000002,1.4820983846203188,0.13495793891720195
11.869212,1.4751155908509161,0.13506623429126455
11.871596,1.4739993296939038,0.13480894500284574
11.873992,1.4746056300295878,0.13448757657629756
11.87638,1.4800075277910236,0.13387296380428024
11.878756,1.4819170807388233,0.13357540338356108
11.881156,1.4851771081269822,0.13310701952084492
11.883544,1.4881575962614202,0.13270097132254888
11.885924,1.491417623649579,0.13221894975707374
11.88832,1.4923960110376004,0.13197066764744622
11.890708,1.4923034632389833,0.13181000545998733
11.893092,1.4962151169332003,0.13135194917511014
11.895488,1.493049533201528,0.1314305563820472
11.897872,1.4861592872307423,0.13172196324520558
11.900268,1.4842044083125687,0.1316679916898061
11.902668000000002,1.4901181627532019,0.1310837165587577
11.905052,1.4991049531268907,0.13028202574910905
11.907436,1.5019456716344688,0.1299331492290982
11.909832000000002,1.5012940453284107,0.1299146089598839
11.91222,1.4992919445819939,0.1300561207908569
11.914604,1.4991521749551333,0.13009106099463721
11.917000000000002,1.5011542757015501,0.12995390398287898
11.919388,1.498081239768495,0.1301738419974482
11.921772,1.4960791390220782,0.13030395353935337
11.924168000000002,1.4917953982755243,0.13063320525590907
11.926556,1.4924470245815822,0.1306521597360593
11.92894,1.4958921475669753,0.13052620004778015
11.931336000000002,1.5006877449927272,0.13024554173329966
11.933724000000002,1.5026898457391438,0.13010838472154143
11.936104,1.500687744992727,0.13024989655251443
11.9385,1.4978942483133917,0.13041581220317333
11.940888,1.4928191116339193,0.1308039419347325
11.943272,1.4948212123803362,0.13065443506322638
11.945668,1.497474939432811,0.13052047497496871
11.948056,1.493982594619175,0.13087769757503542
11.950436,1.486346278685845,0.13154438697391135
11.952836,1.4754971571925997,0.13247048003712691
11.955224,1.4675813020055493,0.13323046034384928
11.957604,1.4639491875650532,0.13361829013295165
11.960008000000002,1.4605966123782772,0.13394187166022653
11.962396000000002,1.4532398356986678,0.13457348979068778
11.964776,1.4428100230860028,0.1354669587226486
11.96718,1.4362446423393114,0.1360867788698577
11.969568,1.4256750600997863,0.137022067000773
11.971948,1.41631618267376,0.13783713531848105
11.974344000000002,1.4061659093148156,0.13864244756196586
11.976736,1.390940499276399,0.1398778735761137
11.979116,1.373433449237845,0.14139382281715843
11.98152,1.3595112918115442,0.1427301016468515
11.983908,1.3497331055049373,0.14371599360686585
11.986288000000002,1.344750516624082,0.14432535591459036
11.988684,1.3411184021835858,0.1447586897336422
11.991072,1.3362755829295907,0.14530309721411036
11.993456000000002,1.3295704325560391,0.14598817510823536
