Time,Force,Position
11.908432,0.713207627034685,0.012134705392409448
11.91082,0.7071087769968173,0.012134705392409448
11.913204,0.6965864165855353,0.012134705392409448
11.915608,0.680197523561863,0.007968114084410349
11.917996,0.6648323438965861,0.007968114084410349
11.920376,0.6454157409102322,0.0040015880921935795
11.922771999999998,0.6345193975887436,0.0040015880921935795
11.925159999999998,0.6143567246398457,0.0
11.927544,0.5954973043030635,0.0
11.929939999999998,0.5844592954968453,0.0
11.932327999999998,0.5773782663552177,0.0
11.934708,0.5695983890792893,0.0
11.937107999999998,0.5617712899751174,0.0
11.939495999999998,0.558552796841594,0.0
11.941876,0.5578010393054421,0.0
11.944271999999998,0.5580729951276854,0.0
11.946659999999998,0.5660265928536328,0.0
11.949044,0.5779371702441706,0.008035714530896467
11.951439999999998,0.5939444969261591,0.01592634771561998
11.953827999999998,0.6120464721531816,0.023790868518442723
11.956212,0.6339656574179346,0.03144085691807451
11.958607999999998,0.6598418223472781,0.0389899514283759
11.960995999999998,0.690373815075513,0.04635601700217629
11.96338,0.7274239667221962,0.05363058590208706
11.965775999999998,0.7678266935556554,0.060669395962574445
11.968163999999998,0.8130722396431095,0.06747936079535871
11.970544,0.857246850543925,0.07422797346288286
11.97294,0.9094770862586509,0.08077576234497644
11.975328,0.9636168749211769,0.0872368059388567
11.977723999999998,1.0175243461582253,0.09355156260505046
11.98012,1.06933716885024,0.099899778408594
11.982508,1.1211972133704977,0.10621453507478776
11.984892,1.1728249404652782,0.11251582136631015
11.987288,1.2187731264027717,0.11891210890381126
11.989676,1.263185742302672,0.12527444321266498
11.992055999999998,1.3016392777915655,0.13187531660082052
11.994452,1.331340236190116,0.13868191959301346
11.99684,1.3570842149240765,0.13745280805430996
11.999223999999998,1.3818044802996414,0.13621750850338327
12.00162,1.404290327503312,0.13504511585115872
12.004008,1.4196063894824764,0.13437813820522443
12.006391999999998,1.4318966373568291,0.13381205444862054
12.008788,1.4387396614993713,0.13363856780667485
12.011176,1.4422773322833813,0.1336248062783644
12.013559999999998,1.4392968441489424,0.13410772032359156
12.015956,1.4313809889618923,0.13502282089999043
12.018348,1.419368384483391,0.1361206182572776
12.020727999999998,1.4064246144451116,0.1372061379107387
12.023124,1.393341074779972,0.13829940596570578
12.025512,1.3766726425025795,0.13957239518450532
12.027895999999998,1.3622858502253241,0.1405708323755433
12.030292,1.348690453880987,0.14153071970977557
12.03268,1.3364455319770088,0.14228432790208745
12.035059999999998,1.3291359771256424,0.14267708675587196
12.03746,1.322617818207194,0.14304550283015324
12.039848,1.3208952567144974,0.1431186114417193
12.042227999999998,1.324108062274413,0.14284086119684108
12.044624,1.325178997461051,0.14274548200632467
12.047016,1.3211747959682176,0.14305694716975711
12.049395999999998,1.317310364102244,0.14333161781638815
12.051792,1.3208027089158798,0.1429672890340673
12.05418,1.324434823356376,0.14256645061337325
12.05656,1.3322109089165661,0.14181549026502077
12.05896,1.341709555969453,0.14098087195699335
12.061348,1.3570747356347297,0.13970734659574122
12.063731999999998,1.375373181606202,0.13818498206537372
12.066136,1.3953941890703703,0.136541272919378
12.068524,1.4103400598550666,0.13531904643437856
12.070908,1.423144060266486,0.13429587971067333
12.073304,1.4367394566108234,0.13323927875082214
12.075692,1.4421866803426333,0.1328756365099381
12.078072,1.4453522640743057,0.13276750585096714
12.080472,1.4435824807533661,0.13308608445681577
12.082856,1.4355268559394556,0.13403218569281347
12.08524,1.4266798351926269,0.13499106465306512
12.087636,1.4167618792591596,0.13605223028062674
12.090024,1.403119261086579,0.13737883148113333
12.092403999999998,1.3960420236606899,0.13798493613763865
12.094804,1.3951108581009115,0.13804850389049209
12.097192,1.3944592317948539,0.13803197754565166
12.099571999999998,1.3888722384361838,0.1383870382957455
12.101972,1.3839368713835718,0.1387551384151309
12.10436,1.376999403584543,0.13926379228401753
12.10674,1.371272640599013,0.13962664961173019
12.10914,1.3627523809341477,0.14012917351588272
12.111528,1.3533009557095044,0.14067719528568204
12.113912,1.3447806960446393,0.14116754477206558
12.116308,1.33933347231283,0.1414495130867095
12.118696,1.3361678885811576,0.14151830429192408
12.121076,1.3310002041030684,0.14173788201539692
12.123472,1.334911857797285,0.14126444710081054
12.12586,1.343386791491776,0.1403517825276637
12.128244,1.3554466177985203,0.1392189739911839
12.130644,1.3719299544786787,0.13761191124553884
12.133032,1.388133751905117,0.13608346884965822
12.135412,1.406339650077972,0.1344211954936837
12.137812,1.4241262393702458,0.13279349214104422
12.1402,1.4321346423559134,0.13213149731665924
12.14258,1.436790470154805,0.13183019712517716
12.14498,1.4378141835132006,0.13194163374713921
12.147368,1.4402809191105719,0.1320448265952245
12.149748,1.4430271939616637,0.13207063771415445
12.152144,1.4437713680663387,0.1322614201840399
12.154532,1.4397199447452615,0.13281678313876785
12.156911999999998,1.4355287517973245,0.1334104698361665
12.159308,1.4313375588493875,0.13400415653356507
12.161696,1.427425905155171,0.13450368510022062
12.164079999999998,1.4257958914610915,0.13475453667912085
12.16648,1.4212326114608171,0.13522526558238954
12.168868,1.4185316625800994,0.13558567548024106
12.171252,1.4138286129529645,0.1360825115707132
12.173648,1.4061922970196343,0.13675601132189624
12.176036,1.3979043547802463,0.13740340686284847
12.17842,1.3902680388469166,0.13804392293878173
12.180816,1.3839821973539457,0.13851962238695545
12.183204,1.377975895114695,0.13890412916480782
12.185588,1.379977995861112,0.13878153769426332
12.187992,1.3874745421675816,0.1381990783317753
12.19038,1.3935280662350753,0.13759809685481295
12.192764,1.4060072014224003,0.13647179733757275
12.19516,1.4159723791841108,0.1354138244182111
12.197548,1.4248666217591826,0.13445670349708644
12.199932,1.4368339002673096,0.1332605127314542
12.202327999999998,1.4525258410145503,0.13182011665836382
12.204719999999998,1.466075911388514,0.13052706903982852
12.2071,1.480696916949116,0.1291593581714621
12.209499999999998,1.4910341817631636,0.12814014629977333
12.211887999999998,1.4950856050842403,0.12763378199245992
12.214268,1.4991370284053174,0.1271068549932412
12.216668,1.505330322099671,0.12639744833304267
12.219055999999998,1.5092419757938877,0.12591750461608095
12.221436,1.5118031550477455,0.12560825451648458
12.223831999999998,1.514224564674743,0.12533829284222406
12.226219999999998,1.512921312062627,0.12530219704269002
12.2286,1.5094761890772344,0.12545737733931114
12.230996,1.5020268645990078,0.12591623558390452
12.233384,1.4897819426950294,0.12662454800531905
12.235768,1.478328416723969,0.1273045960428039
12.238164,1.467806056312687,0.12795033214685822
12.240555999999998,1.4511376240352944,0.12906255668540298
12.242936,1.4363315228774585,0.13009122813086443
12.245332,1.4195233209732052,0.13130290120281415
12.247723999999998,1.4007130183225356,0.13266231483687302
12.250104,1.382042485298726,0.13394520162757034
12.252503999999998,1.364722426715275,0.13510918330953042
12.254891999999998,1.3452604977585474,0.13646725114809793
12.257276,1.3287318351080148,0.13767408308922505
12.259671999999998,1.3190008706296512,0.1383957171365425
12.262059999999998,1.3140655035770392,0.1387682183958904
12.264444,1.3071280357780102,0.13928273180337702
12.266839999999998,1.2995389416729233,0.13980389768641102
12.269227999999998,1.29008751644828,0.14049007705721717
12.271608,1.2815672567834149,0.1411026143594661
12.27402,1.275049097864967,0.14155700926504916
12.276404,1.2693223348794367,0.14199557829489212
12.278788,1.2663890685732415,0.14223851068524104
12.281184,1.2585204352144341,0.14293009449780267
12.283572,1.2497206362958486,0.14368222754762258
12.285951999999998,1.2434347948028779,0.14430243616905908
12.288348,1.2426433988699597,0.1443282994016049
12.290736,1.24292293812368,0.14424453633307888
12.293119999999998,1.246275513310456,0.14387173622178834
12.295516,1.2486969229374534,0.1435560353936429
12.297904,1.2481850662582556,0.14349635067652183
12.300284,1.2516774110718918,0.1430795176318964
12.30268,1.2563804606990263,0.14250236586666068
12.305068,1.2644360855129373,0.14158463152957806
12.307448,1.269837983274373,0.1408497210452857
12.309843999999998,1.2743087154760304,0.14021415202203885
12.312231999999998,1.2801299221180469,0.13941998499004757
12.314616,1.2898155606260369,0.1383655683470525
12.317011999999998,1.3025742350670824,0.13702003427239176
12.319399999999998,1.315612448761848,0.1356362712153963
12.321784,1.3295818280163918,0.13422089701847056
12.324179999999998,1.3449016817112949,0.13265614590186206
12.326567999999998,1.3563571035402247,0.13131911784594905
12.328952,1.3716769572351277,0.12963620611552595
12.331347999999998,1.384343083877556,0.12805142416060408
12.333735999999998,1.3944952530943695,0.1265881443277487
12.336116,1.402226012684186,0.12544539677382097
12.33852,1.4099567722740023,0.12433139771746662
12.340908,1.4178273014906784,0.12321059050621867
12.343288,1.4284913273866897,0.12191713465974131
12.345684,1.4439509507084531,0.12033314176355042
12.348071999999998,1.4551268332836624,0.11914901652206555
12.350456,1.4652317806722326,0.11804565471508119
12.352856,1.4713325265679695,0.11724461433469979
12.355244,1.477433272463707,0.11644820707396569
12.357627999999998,1.47966958649347,0.11587823216868864
12.360024,1.4774823901498189,0.11567204129730625
12.362412,1.4734328626866113,0.11555831385684379
12.364795999999998,1.473247767089377,0.1152343754929545
12.367192,1.471851966678644,0.11502230817995703
12.369584,1.4693852310812727,0.11488558766541318
12.371963999999998,1.4655680210435424,0.11488845323705538
12.374364,1.4677571132450626,0.11455051075786343
12.376752,1.4690150398868045,0.11425053962983915
12.379136,1.4757201902603563,0.1137412280368078
12.381532,1.483356506193686,0.1131900846079641
12.38392,1.4919239876867942,0.11260403891865099
12.386304,1.4964872676870689,0.11223836809687421
12.3887,1.4967668069407893,0.11217008987444638
12.391088,1.4969065765676497,0.11213639304219725
12.393472,1.4891777128357027,0.11254558995264513
12.395868,1.479446748357339,0.11310995014426105
12.398256,1.4735802157449482,0.11344480221113558
12.40064,1.4652922735055607,0.11404002141072273
12.403036,1.4537915257062572,0.11492203341652298
12.40542,1.4452240442131488,0.1156205278746169
12.407804,1.4406607642128746,0.11605634933431708
12.4102,1.4350265490259613,0.11658604914544358
12.412588,1.4213839308533809,0.11769604904893152
12.414967999999998,1.404528507120885,0.11915972048883788
12.417368,1.3875333137615287,0.12067103960507239
12.419756,1.3677446237228372,0.12244554979835855
12.422135999999998,1.3478161640572854,0.1241074731177455
12.424536,1.3286791003246519,0.1257793083197755
12.426924,1.307679705472462,0.12748465422531916
12.429303999999998,1.2884028721129686,0.12907327154215043
12.431704,1.2672637076339186,0.13076965270560648
12.434092,1.2519910757672588,0.13207118621743924
12.436471999999998,1.2376496094603775,0.13341597638853178
12.438868,1.222796286474298,0.13467767206589884
12.44126,1.2188846327800813,0.13513968773275406
12.443639999999998,1.2240523172581705,0.13495216781982128
12.44604,1.2264265050569252,0.13491874318826344
12.448428,1.2361574695352888,0.1343422972138102
12.450812,1.2498926355064865,0.1334727848834624
12.453208,1.2633482622239636,0.13269721201775705
12.4556,1.276943658568301,0.1319090083312916
12.45798,1.29533465233839,0.13089012525382301
12.46038,1.3195921787208693,0.12946951798251657
12.462768,1.3481334458499028,0.12763458670907243
12.465152,1.377745648165575,0.12572108805042378
12.467548,1.4122932175338592,0.12342303398610416
12.469936,1.4400430887299744,0.12157205673213006
12.472316,1.4700745999262272,0.1195543063965782
12.474712,1.4993147151895618,0.11758620810912195
12.4771,1.5265527297064796,0.11579424181350498
12.47948,1.554721909783176,0.11392941393173266
12.481876,1.5760933916877036,0.11247445101400304
12.484264,1.6046818806449803,0.1105522875480102
12.486648,1.6348531614680932,0.10866459422058816
12.489044,1.6568762696786787,0.10739685348057214
12.491436,1.671822140463375,0.10661002409195151
12.493816,1.6854175368077124,0.10594657096717694
12.496212,1.6948689620323558,0.10555860051275064
12.4986,1.7045999265107197,0.10512264291161179
12.500984,1.7106062287499701,0.10481647966631524
12.50338,1.7164727613623607,0.10454812771711101
12.505768,1.717543696548999,0.10448527468357768
12.508147999999998,1.7188941709893584,0.10436753999123506
12.510548,1.7194532494967991,0.10425374695267864
12.512936,1.7190811624444613,0.10417087362299862
12.515316,1.7168467442725672,0.10414720254047959
12.51772,1.717405822780008,0.10403195493286212
12.520108,1.7156832612873116,0.10406426669841563
12.522492,1.7147520957275333,0.10409411895578678
12.524888,1.7093048719957236,0.10425546359522277
12.52728,1.7029264827041355,0.10445093919419149
12.52966,1.700412525278521,0.10449190041670288
12.53206,1.6908213304270172,0.10487453255273804
12.534448,1.6785764085230388,0.1053181588991431
12.536828,1.6676819610594191,0.10565566576054597
12.539227999999998,1.6561358872897418,0.10597916449490925
12.541616,1.6451488920275052,0.1061872416636402
12.543996,1.633370500832351,0.1064009178732796
12.546395999999998,1.6223835055701146,0.10659286598722344
12.54878,1.6164716469873504,0.10652630577554464
12.55116,1.6079060613521112,0.10653011206919205
12.55356,1.6013425764632891,0.1064346685651428
12.555948,1.5906351204547728,0.10656320533067945
12.558328,1.5775062548192595,0.10689102180503533
12.560728,1.5646569284374665,0.10715111845347221
12.563112,1.551528062801953,0.10747322738349821
12.565496,1.5414722330994948,0.10762832783423075
12.567896,1.5318357122776172,0.1076894971777245
12.570284,1.5204766299630434,0.10778424769570832
12.572664,1.5167066417535562,0.10758403217075947
12.575064,1.5168010854100424,0.10722415487572809
12.577452,1.5208997305593626,0.10669162431393314
12.579836,1.5292821164552364,0.105921661756245
12.582232,1.5364537975376116,0.1052254099713709
12.58462,1.546418975299322,0.10444525528299674
12.587,1.5558250745535913,0.1037565629390609
12.589396,1.567605361606615,0.10307033680274935
12.591784,1.579106109405919,0.1024330310326189
12.594168,1.5886047564588055,0.10190528439933005
12.596564,1.5950303675786368,0.10154036982720051
12.598952,1.604901101683861,0.10111104833231276
12.601336,1.6137009006024463,0.10074867013721035
12.603732,1.6234318650808102,0.1003387041825592
12.606124,1.6363756351190897,0.09973076724131756
12.608504,1.649971031463427,0.09916399596121801
12.610903999999998,1.66691900299454,0.09840781565142068
12.613292,1.681073477846318,0.09775767484605868
12.615676,1.6949484134443757,0.09717279562253159
12.618076,1.707752413855795,0.09663366573911614
12.620463999999998,1.7185543135207972,0.09620529220534627
12.622844,1.7244208461331874,0.09597987284158818
12.625244,1.7262831772527438,0.09592710674459369
12.627631999999998,1.7229306020659683,0.09611823381711543
12.630012,1.7225112931853879,0.09620297613970155
12.632412,1.7231629194914453,0.09623261199976448
12.634799999999998,1.7282380561709174,0.0960253768573219
12.637184,1.7297283002381367,0.0958908075094615
12.63958,1.734151810611551,0.09565417727679139
12.641968,1.7385753209849657,0.09541754704412125
12.644351999999998,1.7448611624779367,0.09513049998533782
12.646748,1.7475621113586546,0.09491635569511608
12.649136,1.7493318946795942,0.0947262324210407
12.651519999999998,1.753383318000671,0.09440349811379663
12.653916,1.7583659068815263,0.09406499193543501
12.656304,1.7596238335232681,0.09382080830767596
12.658687999999998,1.7564582497915957,0.09381010470194423
12.661084,1.7558066234855378,0.09378073317272906
12.663472,1.7548754579257595,0.09380488686792615
12.665855999999998,1.7567377890453162,0.09375606379940335
12.668252,1.7567377890453162,0.09375606379940335
12.67064,1.7596710553515114,0.09365448674474422
12.673023999999998,1.7615333864710678,0.09360395348815018
12.67542,1.7663289838968197,0.0934446830052336
12.677808,1.7703331853896533,0.09328615243470398
12.680191999999998,1.7649785094564605,0.09356372302370378
12.682588,1.759623833523268,0.09382773469084268
12.684976,1.7601356902024656,0.09388412900197658
12.687359999999998,1.7597163813218852,0.09396359165172531
12.689756,1.7592970724413044,0.09404305430147404
12.692144,1.7578068283740855,0.09417220663404866
12.694524,1.7591100809862013,0.0942305231582058
12.696924,1.7624154343447338,0.09421500366968634
12.699312,1.7663724140093247,0.09423115910307156
12.701692,1.7692584584872766,0.09429640091415877
12.704092,1.7760089348312023,0.09424742096825353
12.70648,1.7822475544959304,0.09413846346634563
12.708863999999998,1.7838303463617664,0.09414418097646644
12.71126,1.7879743174814602,0.09397400254519414
12.713648,1.7931892237877927,0.09376085675282585
12.716031999999998,1.802548101213819,0.09339236346527723
12.718428,1.8131176834533442,0.09296526060112537
12.72082,1.8239668049465894,0.09248132737568321
12.7232,1.8377491927460303,0.09192390001624752
12.7256,1.8532541420381674,0.09136137768401713
12.727988,1.8783975080100515,0.09036544759138922
12.730372,1.90046783804888,0.0894989869327275
12.732768,1.9166716354753182,0.08882175401145542
12.735156,1.9264970436101683,0.08823987995423091
12.73754,1.934460120625462,0.08769127880015654
12.739936,1.9420511105884177,0.08706178927601732
12.742328,1.951132344618593,0.08633193991540694
12.744712,1.9574200819694334,0.08565899026904511
12.747108,1.9590519915213822,0.08507876042464291
12.749496,1.9550969077146605,0.0846057956623899
12.75188,1.9491397231615224,0.0841973925372575
12.754276,1.9442534737950228,0.0837375857370294
12.756664,1.942999338869019,0.08305579043593526
12.759048,1.9378807720770421,0.08247818861476545
12.761447999999998,1.929037543045952,0.08197529940545224
12.763836,1.9141880117756116,0.08165668212882611
12.76622,1.8944031134526587,0.08147761884203436
12.76862,1.8758289199432046,0.08121920225384871
12.771007999999998,1.8495258627018034,0.08116269415125105
12.773392,1.8197776824750094,0.08111978354313515
12.775792,1.786025300755382,0.08116741599118744
12.778184,1.751481523102836,0.08121237085380398
12.780568,1.7172172847040108,0.08120767174145517
12.782968,1.6914733059700509,0.08100643899938582
12.78536,1.6661486361166713,0.08071712942409373
12.787744,1.6393337221960727,0.08055387542856972
12.790148,1.606232966782503,0.08063733727896688
12.79254,1.5739236073018512,0.08073770573930085
12.794923999999998,1.5454786796871733,0.08073232239296142
12.79732,1.5249023854313026,0.08047695933679896
12.799708,1.5063281919218483,0.080151908655306
12.802091999999998,1.4864035239720355,0.0799320391777533
12.804488,1.4647090727012833,0.07989501891236114
12.806876,1.4415243773633117,0.08001419816375592
12.809264,1.4181999123984799,0.08017620715951154
12.81166,1.393664742620149,0.08047480456266218
12.814048,1.3694091120955387,0.08073000912263106
12.816432,1.3458051078769864,0.08099773159338508
12.818828,1.3312804418307398,0.08087206173047098
12.821216,1.3183385676503294,0.08076477944873771
12.823604,1.3012527223502255,0.08087093242635272
12.826,1.2850980426098995,0.08095397172713505
12.828388,1.267592888429215,0.08119486620586606
12.830772,1.2479458638752532,0.08152832417483212
12.833168,1.2328148974933228,0.08174274237836364
12.835556,1.2219676718579464,0.08171531499270931
12.837944,1.2161955829020423,0.08146693390772869
12.84034,1.2116341987596373,0.08112009857338356
12.842728,1.2042793179378972,0.08083653949368237
12.845112,1.1939911708099615,0.08064182359882247
12.847511999999998,1.1798385918160528,0.08056230886077242
12.849896,1.1709009191284763,0.08023491265839743
12.852284,1.1619632464408998,0.07990982768699914
12.854679999999998,1.157169544873017,0.0793901459967432
12.857067999999998,1.1542381744246912,0.07882004300656294
12.859455999999998,1.1575926454693364,0.0779174111956916
12.861852,1.1623901387529574,0.07705328716668781
