Time,Force,Position
15.751008,0.2864681698313765,0.0
15.753403999999998,0.2756209441960003,0.0
15.755791999999998,0.2694295463595156,0.0
15.758172,0.2683132852025032,0.0
15.760567999999996,0.2642637577392956,0.0
15.762955999999996,0.2571411943430327,0.0
15.76534,0.2468058253868541,0.0
15.767735999999998,0.235399521244037,0.0
15.770123999999996,0.22264274266086095,0.0
15.772504,0.21533318780949462,0.0
15.7749,0.20774409370440783,0.0
15.777288,0.19701738328215285,0.0
15.779672,0.18321763692684248,0.0
15.782064,0.16834695538489358,0.0
15.784452,0.15333650421608447,0.0
15.786847999999996,0.1403281537936922,0.0
15.789243999999998,0.1262488681846614,0.0
15.791631999999998,0.11189004332191023,0.0
15.794015999999996,0.09739144883229883,0.0
15.796411999999998,0.0818219191560489,0.0
15.798799999999998,0.06825449022621581,0.0
15.80118,0.05668916204279957,0.0
15.803575999999998,0.045263603486243545,0.0
15.805963999999998,0.032767109743048986,0.0
15.808348,0.022132947119411075,0.0
15.810743999999998,0.014432050801968337,0.0
15.813131999999998,0.008733255230942448,0.0
15.815512,0.0050365604063334094,0.0
15.817907999999996,0.003481735955001433,0.0
15.820295999999995,0.0011355155707513465,0.0
15.822676,0.0,0.0
15.825075999999996,0.0,0.0
15.827463999999996,0.0,0.0
15.829844,0.0,0.0
15.832243999999998,0.0,0.0
15.834631999999996,0.0,0.0
15.837012,0.0,0.0
15.839408,0.0,0.0
15.841796,6.0788668374328764e-05,0.0
15.844191999999998,0.0010980688669008848,0.0
15.846592,0.005905337274914632,0.0
15.84898,0.018486795385249263,0.0
15.851359999999998,0.03870267357104459,0.0
15.85376,0.06506272776508142,0.0
15.856148,0.09663579240758145,0.0
15.858527999999998,0.13542396824496156,0.0
15.860932,0.18422075195655666,0.009180626474127025
15.863316,0.24158312130339074,0.017776022903635093
15.8657,0.3103045729647988,0.025703947830848388
15.868096,0.3843788047015303,0.0336461556294634
15.87048,0.46781001800641886,0.041285045953933314
15.872859999999998,0.5535209754535755,0.04918992539241677
15.875264,0.6493803104018073,0.056810314366422275
15.877652,0.7564589580377529,0.06413166504316264
15.880031999999998,0.8722429609357977,0.07127702937375462
15.882428,0.9940785920434669,0.07835434970760609
15.884816,1.1219658513607604,0.085370065731866
15.887195999999998,1.2515284503425077,0.0924522737796702
15.889592,1.3860581755071095,0.09942023879383578
15.891979999999998,1.525850028806287,0.10621478655079368
15.894363999999998,1.6623837505751748,0.11303679458423799
15.89676,1.7893734993208021,0.12000276301191361
15.899148,1.908169749483528,0.12704591423190326
15.901527999999995,2.0237550899442076,0.13397867653269427
15.903932,2.1339876503295634,0.14093032168703476
15.90632,2.2359341643334005,0.1479311408231988
15.908699999999998,2.3288032360228015,0.14572107961716663
15.9111,2.4169711539429373,0.14396078487711556
15.913484,2.493360680667918,0.14292303765550196
15.915867999999998,2.564257657690715,0.14188943703437817
15.918264,2.6267288187051334,0.14113036699809295
15.920652,2.689853501883479,0.1400032482502523
15.923035999999998,2.7388256060679157,0.1393099314963651
15.925432,2.7757870016317203,0.1389263470795891
15.92782,2.8041828115602865,0.13870017224568998
15.930199999999996,2.823733496599892,0.13863136963006634
15.9326,2.8365809271238156,0.13861647274197048
15.934988,2.843888586117313,0.1386799726309987
15.937367999999998,2.8432350639533857,0.13897695090951567
15.939763999999998,2.8332698861916756,0.1395928708371254
15.942151999999998,2.823072391004488,0.14013947612782696
15.944535999999998,2.818137023951876,0.14033728462928738
15.946932,2.816042375406842,0.1403337091580823
15.949319999999998,2.811154230182473,0.14042087662502148
15.9517,2.805474689025186,0.14052077704001786
15.9541,2.8028681838009546,0.1404892563431932
15.956483999999998,2.797607951524249,0.14053073244979414
15.958867999999995,2.7836876899558165,0.14089132626650458
15.961272,2.7645997439092955,0.1414095386283961
15.963656,2.746862272303134,0.14182951719391768
15.966035999999995,2.728333404764054,0.14225682591874125
15.968436,2.7070110405456385,0.142764784549328
15.970824,2.690624043379835,0.1430879982033408
15.973203999999996,2.6731661110273937,0.14347190602400328
15.975599999999998,2.655708178674952,0.14385283116694703
15.977987999999998,2.6381104766956502,0.14427709732415195
15.980384,2.61944183952971,0.14476336675134022
15.98278,2.605848339043242,0.14502160856644974
15.985168,2.5973299752362458,0.14504253250296015
15.987548,2.5930953521758044,0.14483891825794537
15.989944,2.588441420234782,0.14469863053596116
15.992332,2.57629094198729,0.14495446048608604
15.994711999999998,2.560787888553022,0.14539561813982116
15.997112,2.542211799185699,0.14599950565194897
15.999496,2.5257775801916527,0.14648476542378835
16.001876,2.5074810300780497,0.1470292223043875
16.004276,2.488765171083866,0.14765877181274645
16.006664,2.475776075075213,0.14806350577997052
16.009044,2.475590979477979,0.14787596960154822
16.01144,2.477268215000302,0.1476215597041133
16.013828,2.4748014794029305,0.14757123802641658
16.016212,2.472986370111617,0.14752799551339682
16.018608,2.4734529008204404,0.14735188548484363
16.020996,2.4755022233951007,0.147146328167291
16.02338,2.4774117763429,0.1469623302907286
16.025776,2.482254595596895,0.14664566317837002
16.028164,2.4874695019032274,0.14637292498728674
16.03056,2.4925446385827,0.14612721560325068
16.032956000000002,2.4933360345156186,0.14611276097581716
16.035344000000002,2.4918457904483993,0.1462353590399523
16.037724,2.4886329848884836,0.1464109831897327
16.040124000000002,2.491286711940958,0.14632082781415975
16.042512000000002,2.495151143806931,0.14614772946528798
16.044892,2.502880007538878,0.14579532478718935
16.047288,2.5095379360841865,0.14550836471630088
16.049676,2.517127030189273,0.14518763629685996
16.052056,2.5280686994811363,0.1446621621768794
16.054456000000002,2.5371480376534423,0.1442122526933685
16.05684,2.536868498399722,0.14425554667223492
16.059224,2.532305218399448,0.1445257708287844
16.06162,2.5330966143323654,0.1445114403016826
16.064008,2.533515923212946,0.14444671532579312
16.066392,2.5288600954140548,0.14462192929157738
16.068788,2.524903115749464,0.1446897049662606
16.071172,2.521877301644652,0.1447220012437895
16.073552,2.5231352282863933,0.14453468874875408
16.075952,2.52923597418213,0.14405389581354144
16.07834,2.533474388958311,0.14363967536038091
16.080736,2.5422760837347655,0.14297378438001238
16.083132,2.5553615192577745,0.14210769862665706
16.085520000000002,2.572311386646757,0.14109449609407523
16.0879,2.5858161310503465,0.14017188952592896
16.090296000000002,2.5982499402672974,0.13929820549653094
16.092684000000002,2.6108235191111087,0.13841487345522513
16.095064,2.6232573283280596,0.13755310874539095
16.09746,2.6327578712388156,0.13680243270241818
16.099848,2.6430498100824895,0.13605566988206677
16.102228,2.6552040800457197,0.13524806249438198
16.104628,2.6674981196358103,0.1343989470429507
16.107016,2.6822135688528985,0.133405212009325
16.109396,2.694507608442989,0.13255888733445442
16.111792,2.7053114039658603,0.13182348635965893
16.11418,2.71676682579479,0.13108264869243413
16.116564,2.7265922339296407,0.1304747015114291
16.11896,2.7346950805717944,0.1299116758335931
16.121348,2.7382346472136736,0.1296076678098787
16.123744000000002,2.740004430534613,0.1294601578724161
16.12614,2.7461505024007242,0.1292087013875708
16.128528,2.749455855759257,0.129152486048892
16.130908,2.75113119542371,0.12922067949415844
16.133308,2.7513162910209443,0.1293900921819849
16.135696,2.7565293014694072,0.1294721472771095
16.138076,2.7684002404631785,0.12935681553589684
16.140476,2.777849769829953,0.12936443734958772
16.142864,2.788882091062563,0.12935710953713098
16.145244,2.8012176649072895,0.12936520446377409
16.147644,2.812202764311657,0.12945594960830314
16.150032,2.827052295581998,0.1294340070318185
16.152416000000002,2.8476285898378686,0.1292477167227453
16.154812,2.8637813737203253,0.12924458907047853
16.1572,2.883658819841895,0.12914253154681435
16.159584000000002,2.9033964963366046,0.1290504784056594
16.16198,2.9260674391375097,0.12886214401504165
16.164372,2.9519511874983295,0.128544711610822
16.166752000000002,2.981419828471403,0.1281517482333318
16.169148,3.0100970735115586,0.12775705133451284
16.17154,3.03490988668574,0.1274779672836275
16.17392,3.0544152457549716,0.12732200211297875
16.176316,3.073548517771867,0.12711610938914436
16.178704,3.0873743356838124,0.12702355706190824
16.181088,3.097103404304307,0.12698527635041876
16.183488,3.101664788446713,0.1270523461366151
16.185876,3.095703812177836,0.12744276161115933
16.188256,3.0904416840432605,0.12774715086277436
16.190656,3.0830849073636513,0.12803890561731127
16.193044,3.0787086188184802,0.1281330983367693
16.195424,3.073029077661192,0.1282080298786822
16.197824,3.057758341652402,0.1285790341122909
16.200212,3.0369006122849416,0.1291003941302186
16.202592,3.0204663932908957,0.12943553787729284
16.204992,3.000726820938317,0.1298147434539282
16.20738,2.983268888585876,0.13009017158952615
16.20976,2.9654388691810962,0.13031143292842212
16.21216,2.9456067490299,0.13059439916830504
16.214548,2.9231209018262296,0.13092481057755578
16.216928,2.9030564642495555,0.1311351619899299
16.219332,2.8843425011132418,0.13127682810935912
16.221716,2.8681424954025423,0.13138068060798735
16.2241,2.8525941159979005,0.1314961029270097
16.226496,2.838908067712815,0.1315699347050876
16.22888,2.832950883159677,0.13140010469021088
16.231260000000002,2.827785094539457,0.13122188573078036
16.233664,2.826483737785211,0.1309166398240212
16.236052,2.8269049425236603,0.13057616612411574
16.238432,2.8247649680082523,0.13037916805309854
16.240828,2.8168510086790715,0.13046953413477394
16.243216,2.8075865749095317,0.13064750408241563
16.245596,2.8032575081926034,0.13064893828111224
16.247996,2.8009305422220923,0.1305726929904169
16.25038,2.797392871438082,0.13056386876177073
16.252764,2.79436705733327,0.13058397703347696
16.25516,2.789199372855181,0.13070122887918395
16.257548,2.779608178003677,0.1310358966905413
16.259928000000002,2.77201908389859,0.13128776303856207
16.262324,2.7642902201666435,0.13155827308447088
16.264712,2.757864609046812,0.13184023199336076
16.267092,2.7551636601660947,0.13200770791859556
16.269496,2.752742250539097,0.13213636989803895
16.27188,2.7504606105389597,0.1322466467574619
16.274264000000002,2.7532541072182948,0.13216617069135742
16.27666,2.7529745679645745,0.13220225763287086
16.279044,2.753626194270632,0.13221264289777254
16.28144,2.757350856509745,0.1321104830932577
16.283836,2.7590734180024414,0.13207754251420628
16.286224,2.763869015428193,0.13192871042949234
16.288604,2.7753697632274967,0.13147660384521057
16.291,2.7900833165867156,0.1308885763212121
16.293388,2.8046571003190746,0.13032014091600355
16.295768000000002,2.819230884051434,0.12975413773905398
16.298164,2.835806768530209,0.12912574959677053
16.300552,2.852522422635845,0.1284778098311337
16.302932000000002,2.8723111126745366,0.12771953982805725
16.305328,2.8963835434597813,0.12677372407814697
16.307716,2.916591542379054,0.12595365723660315
16.310112,2.9337265053652697,0.12523402231246833
16.312512,2.946205640552595,0.12464881555587529
16.314896,2.952678473500669,0.12427733313637648
16.31728,2.9520268471946114,0.12426747634545213
16.319676,2.9571473098444576,0.12426112725106443
16.322064,2.9624981940619115,0.12459819905900865
16.324444,2.9720364795115644,0.1252159790029476
16.32684,2.994654512910618,0.12587686617918312
16.329228,3.029094367617331,0.1267174003675927
16.331608,3.0813151240427112,0.12760424398264889
16.334004,3.150617934052456,0.12859359662225792
16.336396,3.2338825398852693,0.12985319169900017
16.338776,3.3369754741535393,0.1312036548380239
16.341172,3.4652514127904586,0.132483825015458
16.34356,3.6145663846763347,0.1338024066324493
16.345944,3.7825462020124125,0.1351907540271552
16.34834,3.97147250479883,0.1365694531538392
16.350724,4.1788313356099716,0.13799051667454973
16.353104000000002,4.404343155192117,0.13946894784812933
16.355504,4.648427272425848,0.14093547846250032
16.357888,4.913784636191881,0.14229225184023778
16.360288,5.197621749810882,0.1435922937711554
16.362684,5.50100954846949,0.14479117959861762
16.365072,5.830328317317162,0.1455965695342534
16.367452,6.1668621973597135,0.14637909189276357
16.369852,6.510705632253634,0.1469423683647519
16.372236,6.858228403416293,0.14724640247894097
16.37462,7.199002594092896,0.14747825951647364
16.377012,7.529909842380014,0.1475938472210722
16.3794,7.844898520068021,0.14762924453727996
16.38178,8.145506093052383,0.14751288236822274
16.384176,8.429405595362583,0.1472208089477852
16.386564,8.688868163266678,0.146891406062822
16.38896,8.917887494525415,0.14664527626393853
16.391356000000002,9.124471992124464,0.14634522203573624
16.393744,9.305780937556246,0.14605272159181157
16.396124,9.464188518619515,0.14576387773801872
16.39852,9.59899588717997,0.1455071822625168
16.400908,9.716209345476862,0.14520596632774624
16.403288,9.818994477241866,0.14483995215370374
16.405684,9.906512664713816,0.14445193142223134
16.408076,9.97899622531819,0.1440560190259117
16.410456,10.04058913017468,0.14360297621767257
16.412852,10.085470172641276,0.14321639863280583
16.41524,10.119458663502122,0.14285039559009716
16.41762,10.15093509279522,0.14242875657950987
16.420016,10.174777102012857,0.142034249210107
16.422404,10.193591196379266,0.14167316099141597
16.424788,10.210822498879839,0.14132143112834167
16.427184,10.232058002873243,0.14092917440568675
16.429572,10.255667694665402,0.1405327744527706
16.431968,10.279462482054795,0.14018294872304451
16.434368,10.308797040974616,0.1398125495321945
16.436756,10.341529501051587,0.13944427568992637
16.439136,10.375797531166151,0.13909879009678192
16.441532000000002,10.414813936878225,0.13873345166020334
16.443920000000002,10.45699592632197,0.13835676236245195
16.4463,10.504625139497524,0.13793673996547998
16.448696,10.548762007859443,0.13756824247023594
16.451084,10.589686070661447,0.13724096852781226
16.453468,10.626605931970618,0.13695743783493539
16.455868000000002,10.662362310294528,0.13666521359205208
16.458252,10.690529594513354,0.13644384033856308
16.460636,10.716462460560287,0.13622731497529544
16.463032000000002,10.740300678062185,0.13600957495045876
16.46542,10.753896074406523,0.1358801168721711
16.467804,10.770471958885299,0.13569650132428387
16.470200000000002,10.786815525938596,0.13549621270623713
16.472592000000002,10.799853739633365,0.13531223564265135
16.474972,10.807165190342602,0.1351801660476813
16.477368000000002,10.807399403625949,0.1351213577767019
16.479752,10.80619059467032,0.13506289069615734
16.482136,10.804981785714688,0.13500459953053365
16.48454,10.809639509371447,0.13489192200922773
16.486928,10.815740255267185,0.13477933063034161
16.489308,10.822492627468979,0.13466921530231318
16.491704000000002,10.828825690790193,0.13457400737550443
16.494092000000002,10.834459905977106,0.13450353154988198
16.496472,10.842328539335911,0.13443024664149328
16.498868,10.853782065306971,0.1343326879791996
16.501256,10.866166756837814,0.1342274945797175
16.50364,10.879203074674708,0.134124962235296
16.506036,10.896103824377578,0.13398819092805275
16.508424,10.911282012587753,0.1338613277326485
16.510808,10.928602071171204,0.13371080967688423
16.513204,10.95020587050121,0.13351204100058886
16.515592,10.96659476352488,0.13337004508802103
16.517972,10.982983656548551,0.13322868270108523
16.520368,11.00109511106492,0.13307782635747648
16.522756,11.019858191887348,0.13292911648524341
16.525152000000002,11.04062337345619,0.13276053897999313
16.527552,11.064833678010425,0.1325735435374432
16.529936,11.086482803310805,0.13242534377531806
16.532320000000002,11.103848187864628,0.13232577770637421
16.534716,11.118280306112258,0.13225229210871162
16.537104,11.132852193986748,0.1321742883528859
16.539484,11.148634786674737,0.1320802047452309
16.54188,11.16204319156397,0.1319932048623653
16.544268000000002,11.179223480520564,0.13185306363551927
16.546648,11.19416935130526,0.1317158662285807
16.549044000000002,11.21367850209023,0.1315241945200117
16.551432000000002,11.232396256942286,0.13133511916720514
16.553816,11.24860005436872,0.13115777305879203
16.556212000000002,11.269599449220909,0.13094272501032464
16.558600000000002,11.290459074446238,0.1307338438216279
16.56098,11.307966124484793,0.1305641314707596
16.563376,11.32947737601618,0.13035907669199134
16.565764,11.346844656427875,0.13019406832379327
16.568160000000002,11.364491476093288,0.13002051544815388
16.57056,11.387353202065036,0.12979689431309557
16.572944,11.41314819434298,0.12954996953548914
16.575328,11.437220625128225,0.12931313282440898
16.577724,11.464785400727106,0.12903491739305567
16.580112,11.499567183378739,0.12869179548694748
16.582492000000002,11.5395638723367,0.12829995693686225
16.584888,11.583704532414357,0.12787306652390903
16.587276,11.628776358051795,0.12744319394503323
16.589660000000002,11.678643781114982,0.12697995493675748
16.592056,11.724879089737673,0.12656539437344957
16.594444,11.772697190226197,0.1261492851828106
16.596828000000002,11.816883176274228,0.12578144114240292
16.599224,11.86600452937487,0.12537808616343024
16.601612,11.919781710274405,0.12494729475056737
16.603992,11.972767495241019,0.12452354418959664
16.606392,12.023890949088077,0.12411322890956669
16.60878,12.077715351815858,0.12366640643827564
16.61116,12.1287462578643,0.12323987237016094
16.61356,12.188484415032713,0.12273094306656347
16.615948,12.249293507387762,0.12221537013302881
16.618328,12.30651770713056,0.12172427511065478
16.620724,12.364440755007658,0.12121787080758326
16.623112,12.423993816578834,0.1206888304932968
16.625496000000002,12.485176891844091,0.12014066327116935
16.627892,12.537327850765283,0.11964309581150658
16.63028,12.587104621887724,0.11915383602032359
16.632664000000002,12.63329650039791,0.11868646411122835
16.63506,12.67818512629598,0.11821672817036416
16.637448,12.719488859581796,0.11776664797582523
16.639832000000002,12.760979584322719,0.1172909359471205
16.642228,12.802237991638162,0.11680322090659657
16.644616,12.844474786341626,0.11628967640379705
16.647000000000002,12.882614831753642,0.11578978171501499
16.649396,12.918660228620622,0.1152890904509691
16.651784,12.950329336942431,0.11480672682743316
16.654168000000002,12.982976832652263,0.1142984112945505
16.656564,13.015624328362094,0.11379260324560977
16.658952,13.051764168885562,0.11325606302321209
16.661336000000002,13.085110512729692,0.11273935196177756
16.663732,13.117153603961707,0.11221907356694054
16.66612,13.14561180258147,0.11171368758590584
16.668504000000002,13.171556043775619,0.11121754302490165
16.6709,13.196848658663708,0.11072140249501038
16.673292,13.21576288426021,0.11025458195596308
16.675672000000002,13.236679210603128,0.10977479815704473
16.678076,13.254150413960657,0.10930544930944525
16.680464,13.26738509839987,0.10884646507292388
16.682844,13.277034890226833,0.10840121001872105
16.68524,13.288314695747875,0.10793413850220536
16.687624,13.298803105335999,0.10746826754676424
16.690004000000002,13.31064198936448,0.10698934006362387
16.692408,13.324902283019961,0.10649026009089751
16.694796,13.338231411115661,0.10599614561972956
16.697176,13.351700308838222,0.1055004625208139
16.69958,13.370384112867116,0.10497194825019844
16.701964,13.38878837764229,0.10445219700067777
16.704344,13.406401246484547,0.10393426716598415
16.706752,13.420801309766887,0.10344104011449086
16.709136,13.432128337116168,0.10296787187676494
16.71152,13.444386530025236,0.10249241073119637
16.713912,13.459577989240493,0.10200195423955191
16.7163,13.473139434761672,0.10153373929255102
16.71868,13.484139701028992,0.10109167828729208
16.721076,13.497514155095066,0.10064931984709803
16.723464,13.51088860916114,0.10020725233926157
16.725844000000002,13.52691679027969,0.09975793675101227
16.72824,13.549602899943547,0.09928097039606319
16.730628,13.577364146286879,0.09877685085768914
16.733024,13.602052356697154,0.09829169240336146
16.735416,13.628602898226983,0.09780118638231845
