Time,Force,Position
16.29326,0.3840887761418871,0.0
16.295659999999998,0.3774780694248218,0.0
16.298047999999998,0.376873664947007,0.0
16.300431999999997,0.37477901640197314,0.0
16.302827999999998,0.3697511015507441,0.0
16.305215999999998,0.36951878412526684,0.0
16.307596,0.3680757618862908,0.0
16.309991999999998,0.36397901259484,0.0
16.312379999999997,0.3568092273703339,0.0
16.31476,0.345635240652994,0.0
16.317155999999997,0.3340419450550735,0.0
16.319544,0.3246830676290472,0.0
16.321924,0.3067567087099126,0.0
16.32432,0.2837079912830627,0.0
16.326708,0.264383936095326,0.0
16.329088,0.2543715365053725,0.0
16.331491999999997,0.24552261990067453,0.0
16.333879999999997,0.2386285822141503,0.0
16.33626,0.2350398978861587,0.0
16.338656,0.23275446617028295,0.0
16.341044,0.23004972557382655,0.0
16.343424,0.22864823758948596,0.0
16.345827999999997,0.2254769662842058,0.0
16.348212,0.22961524983029197,0.0
16.350592,0.23999215304110597,0.0
16.352988,0.250461604050537,0.0
16.355372,0.26223430767208394,0.0
16.357751999999998,0.2761016598386647,0.0
16.360148,0.29462483980413706,0.0
16.362536,0.31952640906119745,0.0
16.364915999999997,0.3492235757440097,0.0
16.36732,0.38050353429265815,0.0
16.369704,0.41406513284144386,0.0
16.372083999999997,0.4503276802709475,0.0
16.374488,0.4831451047150582,0.0
16.376876,0.5115862406139978,0.0
16.379255999999998,0.5405864550203782,0.0
16.381652,0.5701457479341994,0.0
16.38404,0.5971910834224061,0.0
16.386419999999998,0.6197203607385815,0.0
16.388824,0.6395959110022821,0.0
16.391208,0.660310079027144,0.0
16.393591999999998,0.6817230951863069,0.0
16.395988,0.6948953909343252,0.0
16.398376,0.705693498883589,0.0
16.400755999999998,0.72068279978079,0.0065531536690397905
16.403164,0.7374418839989305,0.012867887526417921
16.405548,0.754108420418454,0.01912319351660959
16.407932,0.7681212297855027,0.025437927373987722
16.410328,0.7817619521002139,0.03146099774015719
16.412716,0.79246940810873,0.03752074441824663
16.415096,0.8021531507588507,0.04340392742399736
16.417496,0.8150496989688869,0.049047495683218624
16.41988,0.8311590527388387,0.054431947172178405
16.422264,0.8480598024417088,0.059861871371702506
16.42466,0.865891717704357,0.06524051903677694
16.427048,0.8830720066609474,0.07057459094128732
16.429427999999998,0.8937341366990895,0.07622856770996704
16.431824,0.9063983674836484,0.081766526372922
16.434212,0.9219958645744026,0.08729617244071505
16.436591999999997,0.9445308294641857,0.09253089456062492
16.438996,0.9634336799134726,0.09798567710771901
16.441384,0.9821967607358992,0.10343389466165297
16.443763999999998,1.0031017119316028,0.10893263058200078
16.44616,1.0218647927540296,0.11457391662758401
16.448548,1.0311292265235696,0.11409709821476952
16.450944,1.0382517899198327,0.11390926567458255
16.453339999999997,1.0480280803685704,0.11358572406448976
16.455724,1.0588753060039466,0.11314216972267357
16.458108,1.069722531639323,0.11277660992057402
16.4605,1.0807095269015594,0.11236514436704544
16.462888,1.090997674029495,0.11220655529686281
16.465272,1.0999353467170714,0.11226799931185404
16.467668,1.108313940897207,0.11252110382662384
16.470056,1.1212085932493738,0.11257819774722322
16.472436,1.1352667285867966,0.1127408117360148
16.474836,1.1483464765361977,0.11316621767934097
16.47722,1.1703185712028015,0.11319440650196357
16.479599999999998,1.1937336881083813,0.11327619859385989
16.482004,1.220873467253074,0.11321036559784403
16.484392,1.2434499663974927,0.11355766394685525
16.486772,1.2698908974078844,0.1136676594895099
16.489176,1.2968436850974743,0.11383235578128365
16.49156,1.3278932220785147,0.1139236004989623
16.49394,1.362527651671808,0.11385615808334315
16.49634,1.40382000981041,0.11333836215045132
16.498728,1.4474865557477665,0.11278181576293138
16.501108,1.4857984257519303,0.11262046890680288
16.503504,1.523551217248653,0.11259487919054334
16.505892,1.5545988583718242,0.11309228044610373
16.508288,1.5844357946814964,0.11368661600911036
16.510692,1.611479234311834,0.11437876249174195
16.513075999999998,1.6375915083823935,0.11510752469804145
16.515456,1.6618414513333957,0.11592052176003159
16.51786,1.682506501672145,0.11687079062869511
16.520248,1.7010769034658608,0.1177668159636161
16.522627999999997,1.726492225259988,0.11812024002323784
16.525024,1.75088383369572,0.11839075814707109
16.527411999999998,1.7681056569069458,0.1188935543611012
16.529792,1.7796007171326413,0.11964604950616127
16.532192,1.7919343951194984,0.12021422163612147
16.53458,1.801102489374683,0.12080969974302695
16.53696,1.809386639898332,0.12127360004290913
16.539364,1.8175782426233642,0.12159918976386078
16.541752,1.8213935568032256,0.12203813746125702
16.544131999999998,1.8217637479976938,0.12255641228351344
16.546536,1.8219016217666848,0.12296318953251421
16.54892,1.8284651066555073,0.12300833644043456
16.551299999999998,1.8357274396786305,0.12292088639981895
16.553704,1.845970260836192,0.12253035859986253
16.556092,1.8595656571805295,0.12193466879836953
16.558472,1.8775845638982809,0.12105824044448343
16.560876,1.888945542070724,0.1204209654973434
16.56326,1.896721627630914,0.11989379796880573
16.565644,1.901704216511769,0.1194781166013146
16.568044,1.9049642438999277,0.1191085933656602
16.570432,1.8963514364364455,0.11936453988635803
16.572812,1.879730225987296,0.12007623450657867
16.575212,1.8709776488969536,0.12036647567122531
16.5776,1.8638550855006908,0.12047054415024618
16.57998,1.8508659894920372,0.12090214405976504
16.582376,1.8386682894163022,0.12132368037151094
16.584764,1.8249803452733477,0.12191155925986877
16.587144,1.8054258685180031,0.12281769898752819
16.58954,1.7898755932554922,0.12348670661276281
16.591928,1.777538123552897,0.12392601165537553
16.594307999999998,1.7614759916111882,0.12452946674292246
16.596704,1.7416891974303663,0.12526099271997196
16.599092,1.721762633622684,0.12600128561308738
16.601471999999998,1.704629566494337,0.12660937664374985
16.603868,1.6877760386197098,0.12711155265934457
16.606256,1.6664990003716686,0.12789876623891974
16.608635999999997,1.6555120051094323,0.12814106995585087
16.611031999999998,1.6525334128328633,0.1279881019426392
16.613419999999998,1.6490429638770963,0.12778614349583658
16.6158,1.6494169467873028,0.127413012409168
16.618195999999998,1.6568681671233987,0.12665148604540508
16.620583999999997,1.6713966248853835,0.12547864591777358
16.622968,1.679918780408118,0.12464628425632854
16.625363999999998,1.6850883607440763,0.12403313298942666
16.627751999999997,1.6941223729460084,0.12319326372525755
16.630132,1.7022252195881622,0.12238882762320442
16.632535999999998,1.71447203735001,0.12134236229746674
16.634923999999998,1.7324456180973877,0.12001649684485001
16.637304,1.74734616291171,0.11888830977967904
16.639708,1.7571715710465599,0.11805152911988206
16.642096,1.7668099877263066,0.11738414939569286
16.644475999999997,1.7764937303764274,0.11702111305623268
16.64688,1.7887367564225365,0.11689707382583389
16.649268,1.801442521461731,0.11742467912294854
16.651647999999998,1.8162391433302207,0.1187989794183965
16.654044,1.848117818783076,0.12029703249174024
16.656432,1.8972164215892882,0.12221779580583174
16.658811999999998,1.9629758732414155,0.12456083574040205
16.661208,2.0642990241887462,0.12661411717308133
16.663596,2.1918742188334965,0.12873584895397053
16.665979999999998,2.348914262735581,0.13082761075820673
16.668376,2.531554724029027,0.13300602339210085
16.670759999999998,2.743520264952948,0.1350990648415662
16.67314,2.9873248429329586,0.13705545312281106
16.675544,3.2663210331558337,0.13886453771733778
16.677932,3.5770637126361806,0.14057824705420643
16.680311999999997,3.9105207650299376,0.14244021074224272
16.682712,4.264085685112872,0.14441408717672774
16.685095999999998,4.643392688071898,0.14628162805071163
16.687476,5.049093400213073,0.1480001110158481
16.689875999999998,5.477929690006108,0.149469208368051
16.692263999999998,5.926503656293852,0.150650002525646
16.694644,6.391277628292298,0.15160795079165956
16.697039999999998,6.87523398999375,0.15194382714246252
16.699427999999997,7.368411355352239,0.1515929861389913
16.701808,7.8590332290304765,0.1508399299500001
16.704207999999998,8.331131922743245,0.1499030627522057
16.706591999999997,8.783963262385864,0.14875675794467086
16.708972,9.20248882937502,0.14782348938647777
16.711371999999997,9.590153746696112,0.14693492802298388
16.713759999999997,9.944676374348997,0.14615169344045545
16.71614,10.27006091382651,0.14537414257523099
16.718556,10.562769694344642,0.1445820241857301
16.720944,10.823501564037695,0.14376102199663207
16.723323999999998,11.04382881103942,0.1430434543911254
16.72572,11.227848184641264,0.1423785298023163
16.728108,11.384404809732194,0.14170910423207395
16.730487999999998,11.517920300827749,0.14105014898957213
16.732888,11.625274400166633,0.14046521893348932
16.735272,11.714894819615091,0.13985669548354343
16.737651999999997,11.78980737327794,0.13921531607011517
16.740056,11.849452982647737,0.1385574888767283
16.742444,11.890990929216901,0.13792759857596362
16.744823999999998,11.913395603769171,0.13738287983076308
16.747228,11.925000274514307,0.1368750894600814
16.749612,11.929155620781213,0.13643038350497624
16.751996,11.933543284473604,0.13600328741203746
16.754392,11.932156963352215,0.13564445407321002
16.75678,11.928861089283028,0.13532161948433474
16.759159999999998,11.925285675960122,0.13500612891059316
16.761556,11.92315328487619,0.1346893868328391
16.763944,11.922603685658096,0.13436763496673898
16.766323999999997,11.929968045769185,0.13402236129475853
16.768724,11.93896052371648,0.13371555978760702
16.771107999999998,11.9545164865526,0.13340489855427573
16.773491999999997,11.974913372784842,0.13309921484389006
16.775888,11.995402806815704,0.13281295858180817
16.778275999999998,12.01323851379409,0.13254157648729809
16.780672,12.035917040026472,0.13220810271939704
16.783068,12.052077407340407,0.13192355668036224
16.785456,12.061999154989612,0.13167868072814834
16.787836,12.068615549280285,0.13144836246085556
16.790232,12.075418935026061,0.13119039998290058
16.79262,12.078684649987826,0.130930199862263
16.795004,12.075991284538587,0.13069785549982016
16.7974,12.06640767311856,0.1304995154718004
16.799788,12.05458964352664,0.13030298912167834
16.802167999999998,12.049988620987468,0.13004078978372816
16.804564,12.051254131060688,0.1297323134065807
16.806952,12.055824994492436,0.12941129528204764
16.809331999999998,12.060767944976527,0.1291009271651303
16.811728,12.067014148072731,0.12879605016531576
16.814116,12.07032708486274,0.12851466623668548
16.816499999999998,12.075362583145445,0.1282250559217214
16.8189,12.08240018217457,0.1279198327793853
16.821288,12.094373148256304,0.12757703362420122
16.823672,12.108999841390514,0.12722029464989024
16.826076,12.128561901577337,0.1268248559209286
16.828464,12.143840221017603,0.12647170130055826
16.830848,12.162051806764065,0.12609697670080647
16.833243999999997,12.182405262883805,0.12570328192488162
16.835632,12.20476081974996,0.1252960008949777
16.838012,12.224555197362257,0.12492231331547277
16.840408,12.247515158706229,0.12454300163532249
16.842796,12.274199782289314,0.12414061820408691
16.845176,12.301256492924738,0.12374790987753471
16.847579999999997,12.324681089119665,0.12339780408473129
16.849968,12.34046936938126,0.12312258524257479
16.852348,12.3531846137098,0.12287415009561806
16.854751999999998,12.364549383597984,0.12264414963599352
16.857139999999998,12.377124858299664,0.12240020101120407
16.85952,12.384345657068152,0.12220543228464106
16.861915999999997,12.391938542888978,0.12202174273712096
16.864303999999997,12.401673299083079,0.12181892693511936
16.866684,12.408195249717267,0.12164611751622932
16.869087999999998,12.406848566992645,0.12153117836432381
16.871475999999998,12.402056761282632,0.12143032948122807
16.87386,12.394750998147003,0.12133797684281827
16.876255999999998,12.388423622399397,0.12121628047602356
16.878639999999997,12.375997396613922,0.12112097614658844
16.88102,12.353048810417167,0.12109569992139854
16.883428,12.320509029368909,0.12113517882949909
16.885811999999998,12.285595060521896,0.12117933522152247
16.888192,12.242160832010018,0.12127970970814311
16.8906,12.195793337191944,0.12140053833711371
16.892988,12.15035700793365,0.12151623666127387
16.895367999999998,12.105572304981411,0.12163624364580425
16.897764,12.06251016352187,0.1217509467823589
16.900152,12.01474497243519,0.12192096639195454
16.902531999999997,11.970704443587628,0.12206649891172519
16.904932,11.925685527352044,0.12224198870990793
16.907315999999998,11.886393374101988,0.12237891543468622
16.909699999999997,11.848032386411711,0.12250969646676216
16.912096,11.806970449840717,0.12267702367512226
16.914483999999998,11.766420369948921,0.12285192468609532
16.916864,11.732108909721854,0.12299487593851229
16.919259999999998,11.705898400279068,0.1230928620082824
16.921647999999998,11.681363230500738,0.12320736404876363
16.924028,11.658223861133141,0.1233467413067937
16.926432,11.642346824788667,0.12346859272506279
16.928819999999998,11.639738423706568,0.12352580423202693
16.9312,11.645882599714806,0.12354233645707006
16.933595999999998,11.660639583186532,0.12352259961523308
16.935983999999998,11.687222179681655,0.12343604758269847
16.938367999999997,11.717621986214507,0.12334651638047853
16.940763999999998,11.754400182038946,0.12322226303819972
16.943151999999998,11.79876747196847,0.12304896367552841
16.945532,11.851655021562864,0.12282181073133719
16.947927999999997,11.918137967501593,0.12249961123718814
16.950315999999997,11.983270438999963,0.12219822616999902
16.9527,12.052686651244887,0.12185916223486634
16.955095999999998,12.121031928303173,0.12153134395149795
16.957483999999997,12.191239536481014,0.12119464789214254
16.959868,12.265451346151693,0.12082919335831696
16.962263999999998,12.341665256568787,0.12044883818184902
16.964651999999997,12.417879166985877,0.12007164762166296
16.967032,12.487947005536862,0.11974677446712602
16.969431999999998,12.559225548901342,0.11940993597331294
16.971819999999997,12.628781530773127,0.11907959238585929
16.974204,12.697965425592571,0.11874158171089516
16.976599999999998,12.767056772613401,0.11839055829305484
16.978987999999998,12.83642765888795,0.11803424223909453
16.981368,12.904495292550385,0.11767824623863689
16.983767999999998,12.966184536921231,0.11735655547644924
16.986155999999998,13.025779132747044,0.11703159500565317
16.98854,13.07606207297507,0.11675837435954496
16.990935999999998,13.117964523165096,0.11653178359702093
16.993323999999998,13.152697188130613,0.11633957496894762
16.995704,13.178909593431266,0.11619808361386288
16.998099999999997,13.203678976492943,0.11605510226225016
17.000487999999997,13.221930200636173,0.11594674325799877
17.002868,13.240321194406263,0.11583475035797955
17.005271999999998,13.257781022616575,0.11572834194910747
17.007659999999998,13.27244735414755,0.11563706463656094
17.01004,13.289255556051803,0.1155293352437305
17.012444,13.30434119646336,0.11542778986158803
17.014832,13.321988016128774,0.11529801614743869
17.017211999999997,13.337260647995432,0.11517157221258548
17.019607999999998,13.358027725422147,0.11499999110813258
17.021995999999998,13.374650831729166,0.11485865759069536
17.024376,13.385127866170073,0.1147608396812172
17.026771999999998,13.393090943185367,0.11466976828455824
17.029159999999997,13.392486538707551,0.11464539488251205
17.03154,13.39574656609571,0.11459894175874391
17.033939999999998,13.402451716469262,0.11454185396898525
17.036324,13.413812694641708,0.11446165775559153
17.038708,13.431831601359459,0.11434584354472814
17.041103999999997,13.450502134383271,0.11423287462757384
17.043491999999997,13.468381271474161,0.11412068559955069
17.045872,13.486120638938191,0.11401227924096044
17.048275999999998,13.510378165320668,0.11387216616498724
17.050663999999998,13.535706626889787,0.11372441565534593
17.053048,13.562245793272403,0.11356587151929433
17.055443999999998,13.590135434095382,0.11339265728966019
17.057831999999998,13.613229477492604,0.11324613713130556
17.060212,13.63581166421063,0.11309347269711317
17.062616,13.655181045368739,0.11296534906810775
17.065004,13.677483692833043,0.11282114527116077
17.067383999999997,13.694571433991017,0.1127144029337688
17.069779999999998,13.71422035440285,0.11258085394624828
17.072167999999998,13.736150914814816,0.11242777288661436
17.074548,13.76087497190612,0.11226252379456239
17.076947999999998,13.79523744567717,0.11202589221284844
17.079331999999997,13.82959991944822,0.11179108479800792
17.081716,13.858095860606879,0.11158945457154601
17.084111999999998,13.892598104004788,0.11135380823634614
17.086496,13.925098246656281,0.11113177243094523
17.088891999999998,13.963464921920167,0.11087941561002784
17.091292,14.005416489796305,0.11061470014032905
17.09368,14.049509928045719,0.11033554137826758
17.096059999999998,14.087736833682744,0.11008873769065956
17.098456,14.122239077080655,0.10985860325268013
17.100844,14.151014557493035,0.10965688839219398
17.103223999999997,14.172061174173468,0.10949454893981833
17.105628,14.191664768614924,0.10932939063450779
17.108016,14.21140813268324,0.10916116868575548
17.1104,14.233992215259137,0.10896047375922806
17.112796,14.250849534849502,0.10878809902762131
17.115188,14.264401501081334,0.10862100745675067
17.117568,14.278093236940027,0.10845105523643445
17.119971999999997,14.291133346492662,0.10827857769799525
17.12236,14.298446693059768,0.10813388250553072
17.12474,14.297100010335146,0.10803248079528137
17.127143999999998,14.291237269438495,0.10794759321068075
17.129531999999998,14.291288282982478,0.10781151016031779
17.131912,14.282167410555537,0.1077116722313736
17.134307999999997,14.269880954396925,0.1076135741268266
17.136695999999997,14.248282842640526,0.10755440173138828
17.139076,14.22244821196582,0.10750411167533026
17.141479999999998,14.19689312054483,0.10744644525996974
17.143867999999998,14.176692705057036,0.10735223351659509
17.146248,14.165431858114685,0.1072100224776009
17.148647999999998,14.161899874904284,0.10703088788498964
17.151031999999997,14.170752583224719,0.10679622752040083
17.153416,14.188405090463743,0.10651879268730127
17.15582,14.20628991512824,0.10625501903368727
17.158203999999998,14.224407057218217,0.10600556524979089
17.160587999999997,14.248111192666864,0.10573434976042775
17.162983999999998,14.277914178153377,0.10544757690264342
17.165367999999997,14.307297854759312,0.10517191058762501
17.167748,14.335982683230943,0.10491335673878618
17.170151999999998,14.371604979501605,0.10462003645722287
17.172539999999998,14.414816369877352,0.1042949751368858
17.17492,14.459890091372655,0.10396256878766794
17.177315999999998,14.499189828054188,0.10367613187450116
17.179703999999997,14.543797018840669,0.10337561306013707
17.182088,14.590778397425902,0.10307477492317649
17.184483999999998,14.643486538996667,0.10274920267954138
17.186871999999997,14.699919342806545,0.1024102949213577
17.189252,14.754350045870007,0.10208364651053799
17.191647999999997,14.808920518560328,0.10175710403856877
17.194035999999997,14.85855562419804,0.10145851975362699
17.196416,14.90139303166358,0.1011917673911891
17.198812,14.936641345024034,0.10095734210305786
17.2012,14.9636017161451,0.10077050875959925
17.20358,14.992052331333388,0.10056809010785048
17.205983999999997,15.0178492194692,0.1003727523599418
17.208371999999997,15.040852610925675,0.10018806401904475
17.210752,15.06534624644937,0.0999887250707703
17.213155999999998,15.089048486040149,0.09978979511182977
17.215543999999998,15.115591444138504,0.09956276978065165
17.217924,15.136267869624472,0.09936207967654959
17.220319999999997,15.151357301751766,0.09918106091634783
17.222707999999997,15.171661640185393,0.09897286702232211
17.225088,15.195318553805796,0.09874259288193385
17.227484,15.220325941866557,0.09850161107597954
17.229872,15.24589240843476,0.09824891243821286
17.232256,15.272390040562742,0.09799465640070709
17.234651999999997,15.295023240824749,0.09775598707578453
17.23704,15.316445736273257,0.09752665476376261
17.239424,15.334515656534991,0.09731966081611411
