Time,Force,Position
16.727916,0.2969535611284105,0.0
16.7303,0.2905751718368225,0.0
16.732696,0.290203084784485,0.0
16.735084,0.2868977314259523,0.0
16.737464,0.2783774717610872,0.0
16.73986,0.27171954321577874,0.0
16.742248,0.2638509098569715,0.0
16.744628,0.2639906794838317,0.0
16.747024,0.2650616146704703,0.0
16.749412,0.2652013842973305,0.0
16.751792,0.26762279392432803,0.0
16.754192,0.2740484050441592,0.0
16.75658,0.28154495135062896,0.0
16.75896,0.285037296164265,0.0
16.76136,0.2870393969106818,0.0
16.763748,0.294908030269489,0.0
16.766128,0.3054303906807709,0.0
16.768528,0.3196774133311661,0.0
16.770912,0.3284299904215085,0.0
16.773308,0.34090722975096416,0.0
16.775703999999998,0.34789002352036696,0.0
16.778091999999997,0.3528707165433529,0.0
16.780472,0.3554299999393413,0.0
16.782868,0.3620860326267805,0.0
16.785256,0.37446882829974976,0.0
16.787636,0.3912279125178903,0.0
16.790039999999998,0.4074279182285899,0.0
16.792427999999997,0.4219979102452103,0.0
16.794812,0.4358690541275296,0.0
16.797207999999998,0.44890158024868765,0.0
16.799595999999998,0.4621664237953229,0.0
16.801976,0.4745926495807969,0.0
16.804372,0.4871114231648879,0.0
16.806763999999998,0.5018646149208732,0.0
16.809144,0.5192715337293331,0.0
16.811539999999997,0.5342570429107956,0.0
16.813931999999998,0.5428169409724268,0.0
16.816312,0.5509575301534776,0.0
16.818707999999997,0.5589583497076679,0.0
16.821092,0.5657484644483596,0.0
16.823476,0.5824093132942754,0.0
16.825872,0.604657155498861,0.0
16.82826,0.6238319617703912,0.0
16.83064,0.6367681483771938,0.0
16.833036,0.64812154311816,0.0
16.835424,0.6538879445004563,0.0
16.837808,0.6663594962563042,0.0
16.840204,0.6732440546534822,0.0
16.842592,0.6836209578642963,0.0
16.844988,0.6948364788362716,0.0
16.847383999999998,0.704748747196131,0.0
16.849771999999998,0.7185726692502072,0.006817523824806255
16.852155999999997,0.7332352090654445,0.013396345740404398
16.854551999999998,0.7496675322016214,0.01962744368924618
16.856935999999997,0.7649363723525427,0.02580572747848237
16.85932,0.7783428813839075,0.0322206095982717
16.861715999999998,0.799245936721742,0.03829344430004755
16.864103999999998,0.8156329338875451,0.04460926492229721
16.866484,0.8373746069865409,0.050601350400045354
16.86888,0.856602322659922,0.05677432652675394
16.871268,0.8670302394147176,0.06338378529000219
16.873652,0.8769462994903157,0.06970904577177356
16.876047999999997,0.8899353954989689,0.07606409930955742
16.878436,0.909861959306651,0.08210496011303392
16.880816,0.928298279047114,0.08833280331574228
16.883215999999997,0.9515301962133288,0.09441887148435806
16.885604,0.9631215959533802,0.10118444466674134
16.887984,0.9785774275594047,0.10797376706598735
16.890383999999997,0.9906806839786537,0.11496860053445346
16.892768,1.005158128196657,0.12187504520943523
16.895163999999998,1.018796954653499,0.1290827132639494
16.897568,1.0288036666698448,0.12959191962289662
16.899952,1.0358298905517522,0.13070311065816692
16.902331999999998,1.0408067918589998,0.13228955466501024
16.904736,1.048018111338141,0.13380865789170335
16.907124,1.0592336323101166,0.13488643734367617
16.909504,1.0718921755210677,0.13594773367973537
16.911908,1.090137712090689,0.1365847746728034
16.914296,1.1030285727271176,0.13777236787617553
16.916672,1.1233687578417728,0.13844298263735827
16.919079999999997,1.1489238492627603,0.1385641367245569
16.921464,1.173919862176307,0.1389145726394857
16.923844,1.2007782062094103,0.13914993738166248
16.92624,1.224283975055738,0.13975015233554317
16.928628,1.2471381175960077,0.14028246136340314
16.931008,1.2710631953229157,0.14075644077092161
16.933404,1.305557855289349,0.1402649655494922
16.935792,1.3431255511888376,0.13958907028435902
16.938171999999998,1.3841855919019623,0.13856818334162851
16.940568,1.4258047111225278,0.13750475306044507
16.942956,1.4704043184775313,0.1360229309287124
16.945335999999998,1.514631838780198,0.1344220466677404
16.94774,1.5573237890452711,0.13250274836128975
16.950124,1.5983403996458911,0.13043596223794773
16.952507999999998,1.6399160887539521,0.12836766549755046
16.954904,1.6797692163693165,0.12647356878364455
16.957292,1.7093795228271194,0.12515037341681545
16.959671999999998,1.7335426055531127,0.12410533049208101
16.962068,1.7601270979061034,0.12279815997391984
16.964456,1.7772601650344506,0.12203035190950623
16.966836,1.794393232162798,0.12129976811538366
16.969231999999998,1.8052876796264177,0.12080854527211235
16.971619999999998,1.8107349033582272,0.12055987324469422
16.974,1.8127370041046442,0.12042925195549073
16.976395999999998,1.8180916800378366,0.12002385116055102
16.978783999999997,1.8158572618659423,0.12003808780536716
16.98118,1.8068251455218798,0.12043915315712933
16.983576,1.7912748702593688,0.12116168946834462
16.985964,1.769858062384467,0.12223473756944625
16.988343999999998,1.743645657083814,0.12356327637566274
16.99074,1.7152913814098834,0.1250089836528961
16.993128,1.6870768753628136,0.12641576573865512
16.995511999999998,1.6623074923011365,0.12771521503454158
16.997908,1.638981131478435,0.12901145382903573
17.000296,1.6119301084166207,0.1304525274938079
17.002675999999997,1.5820855886754717,0.1320507475787504
17.005072,1.5613204071066282,0.13307951354310732
17.00746,1.5444196574037579,0.13390069716072256
17.00984,1.5277984469546086,0.1346343049043588
17.01224,1.5171835387447097,0.13503031201504637
17.014628,1.5036353642286153,0.13558542125361817
17.017008,1.4940913912053553,0.13592199841162667
17.019403999999998,1.4925558211677619,0.13577166854615952
17.021787999999997,1.4948846829961424,0.13541007900653157
17.024183999999998,1.496002840011024,0.13516258507914974
17.02658,1.500985428891879,0.13469555836644606
17.028968,1.5078303488922908,0.1341276525619768
17.031347999999998,1.5174687655720374,0.1333989466248954
17.033752,1.5311113837446175,0.1323884418369736
17.036136,1.5467561026636152,0.1312234039840361
17.038515999999998,1.5614696560228343,0.13009826162436508
17.04092,1.5740413390087762,0.1291257427779922
17.043308,1.5878237268082172,0.12807171755916935
17.045688,1.6000233227418215,0.1270506672913347
17.048084,1.6118036097948454,0.1261094115490037
17.050472,1.625446227967426,0.1250415348041782
17.052851999999998,1.629078342407922,0.12467031375958426
17.055256,1.6301964994228038,0.12439086626182029
17.05764,1.6301039516241866,0.12423430516565945
17.060019999999998,1.6280093030791525,0.12421207004192865
17.06242,1.6272651289744777,0.12403790745131021
17.064804,1.6265209548698027,0.12386373142710336
17.067183999999997,1.618839312966099,0.12411803606517192
17.06958,1.6085039440099205,0.12448270666350214
17.071968,1.5964460135610454,0.12490586033701448
17.074364,1.5843880831121704,0.12532901401052682
17.07676,1.5704678215437387,0.12586207316768183
17.079144,1.5576184951619458,0.12630247820952714
17.081523999999998,1.544629399153292,0.12676000269738105
17.083928,1.5315005335177787,0.1272475016770731
17.086316,1.5193028334420435,0.12769510516349866
17.088696,1.5123200396726408,0.12777260527977027
17.091099999999997,1.5022642099701826,0.12804219130180072
17.093488,1.4929997762006426,0.12830197168630997
17.095868,1.4841546513116834,0.12847283728898082
17.098264,1.4773116271691409,0.12851319494079622
17.100652,1.4772663011987668,0.1281680452564937
17.103032,1.4778726015344508,0.12784182135252567
17.105428,1.477407966683496,0.12759564074238053
17.107812,1.475872396645903,0.12743181067545786
17.110191999999998,1.472194956235033,0.12743650140344087
17.112596,1.469308911757081,0.12742468814715388
17.114984,1.467214263212047,0.1274006098885077
17.117364,1.4716377735854613,0.1270319393858395
17.11976,1.4779236150784323,0.12656891534381273
17.122144,1.4843492261982636,0.12607324238434336
17.124527999999998,1.4946392691840684,0.12535155592915628
17.12692,1.502927211423456,0.12476382112197426
17.129307999999998,1.5104237577299255,0.12419777157607455
17.131704,1.5167095992228967,0.12373849547159493
17.1341,1.5229954407158677,0.12327921936711532
17.136488,1.5282103470222004,0.12292871902804899
17.138868,1.5383606203811444,0.12231628056169488
17.141264,1.548510893740089,0.1217038420953408
17.143652,1.5605234982185905,0.12101244600198063
17.146031999999998,1.5677405052713396,0.12055995436382473
17.148439999999997,1.5741661163911707,0.12012313783071922
17.150824,1.5804519578841416,0.1197165811358855
17.153204,1.5879485041906114,0.11919972130895708
17.155604,1.5975869208703584,0.1185342097419574
17.157992,1.6109499997892183,0.11769882331226647
17.160372,1.6203088772152445,0.11708053609295568
17.162768,1.6296677546412708,0.11644421800819707
17.165156,1.6334396387086276,0.11609255184802636
17.167536,1.6361405875893449,0.11581836357231111
17.169932,1.6387017668432027,0.11557682421403845
17.17232,1.6392608453506434,0.11545139286784084
17.174716,1.643824125350918,0.115111678301443
17.177115999999998,1.6453143694181376,0.11494582505869129
17.179499999999997,1.648806714231774,0.11466563839970233
17.18188,1.6559764994562798,0.11440842583501372
17.184276,1.6622132232631384,0.11467610831701439
17.186664,1.6677492030778265,0.11554208009784384
17.189044,1.6831993471102435,0.11659038157346122
17.19144,1.709168059838204,0.11793244220118447
17.193828,1.7562702494716067,0.11918422335212868
17.196208,1.8222242760103147,0.1204872918580069
17.198604,1.90623874352141,0.12181821955503802
17.200992,2.004029911258338,0.12335296411375601
17.203388,2.1169482536614583,0.12501396964161418
17.205783999999998,2.248206576290686,0.1266859014029583
17.208175999999998,2.4012500021314143,0.12820723715599588
17.210556,2.5766376096910832,0.1295854661582317
17.21296,2.7708770541560575,0.13096986482421855
17.215348,2.9843876444069175,0.1323329836322082
17.217727999999997,3.2177284589511044,0.13364298519801657
17.220128,3.4702478714825604,0.13490301982280412
17.222516,3.7319353782692,0.13640179392379798
17.224895999999998,4.01201008711019,0.1377603939391306
17.2273,4.308237579833638,0.1390878864339592
17.229684,4.612424357856641,0.14040988141065205
17.232067999999998,4.924153008156489,0.14137446930573536
17.234472,5.24151587364325,0.14193128014059436
17.236856,5.557158073495184,0.1422524770813408
17.239236,5.86344518763683,0.14233955094082487
17.241632,6.150740695246311,0.14240595566542075
17.24402,6.4174618044577905,0.14245915747970317
17.246399999999998,6.66402782415185,0.14245956977091928
17.2488,6.900309488433711,0.14221650513136114
17.251188,7.121883286929963,0.14187763047273586
17.253567999999998,7.320740816654935,0.14161540162060593
17.255964,7.502283975370062,0.14127301937079403
17.258352,7.659528073448076,0.14101337535485306
17.260731999999997,7.795685916448891,0.14074798983972947
17.263128,7.908196325118649,0.14054238949407907
17.265515999999998,7.999153948002384,0.14040421735374287
17.267896,8.066789001779155,0.140378494582494
17.270291999999998,8.122834551673744,0.14028968454338206
17.272679999999998,8.169944324738628,0.1401251833782522
17.27506,8.199411069853834,0.14003224533621858
17.277455999999997,8.220686212244008,0.1398932889844789
17.279844,8.2354450915736,0.1397295873059986
17.282224,8.243640486014373,0.13957791216402204
17.28462,8.24294353373794,0.13951181373842442
17.287008,8.245738926275145,0.1393837835855898
17.289388,8.250768736984242,0.1392510739457294
17.291784,8.259523209932453,0.1390781685595935
17.294172,8.27079164030628,0.13888736176309943
17.296568,8.277636560306691,0.13876997933187987
17.298963999999998,8.282339609933826,0.13868565916281136
17.301351999999998,8.289044760307377,0.1385745933607218
17.303736,8.294352214412328,0.13852778275555772
17.306131999999998,8.303756417808728,0.13845671634325482
17.308519999999998,8.317117600869718,0.13836762257957827
17.3109,8.33485507247588,0.13824002350442569
17.313295999999998,8.350171134455046,0.13815630566350892
17.315683999999997,8.370422563486823,0.13800653493263818
17.318068,8.390813762145461,0.13785054060856575
17.320463999999998,8.400263291512234,0.1378403914315382
17.322851999999997,8.412134230506007,0.13778353929359669
17.325236,8.419349341700887,0.13777813258991828
17.32764,8.425540739537372,0.13775470883009602
17.330028,8.432291215881298,0.1377062348983853
17.332407999999997,8.440951245173023,0.13760295820139817
17.334804,8.441742641105941,0.13759933561321414
17.337191999999998,8.440159849240104,0.13760656720755823
17.339572,8.436295417374131,0.1376525310155288
17.341972,8.434013777373993,0.13769114343130182
17.344359999999998,8.432383763679914,0.13773258201731306
17.34674,8.432057002597949,0.13777953486330638
17.349135999999998,8.432753954874382,0.13784462947775375
17.351523999999998,8.431960663083593,0.1379450588208446
17.353904,8.430608292785365,0.1380705641761507
17.356303999999998,8.426043116927222,0.13824516133365147
17.358691999999998,8.423200502561775,0.13840581940792618
17.361072,8.427155586368496,0.13848442946448805
17.363471999999998,8.431110670175215,0.13856292642944829
17.365855999999997,8.435996919541715,0.13863137744242787
17.36824,8.44623784484141,0.13861806023526366
17.370635999999998,8.45661853976796,0.1385988990899833
17.373023999999997,8.471282975441067,0.13851533295042448
17.375408,8.488601138166649,0.13841040167049642
17.377812,8.50084416421276,0.13837304337686193
17.380195999999998,8.512807651005147,0.13834865753144487
17.382579999999997,8.527052777797673,0.1382857017402586
17.384975999999998,8.543020466082895,0.13820964235770405
17.387363999999998,8.557405362502282,0.13814009223223336
17.389747999999997,8.57085909336189,0.13808095993818487
17.392144,8.583521428288579,0.1380250024807579
17.394531999999998,8.599676108028905,0.13791035781414915
17.396915999999997,8.615179161463175,0.13779273470855782
17.399312,8.635385264524576,0.13759393798486255
17.401699999999998,8.654008575720143,0.1374013445167619
17.404083999999997,8.67877795878182,0.1371268457346972
17.40648,8.704758046656996,0.13683338781807391
17.408868,8.727944637852838,0.1365696919910126
17.411248,8.7502000634889,0.13631558967622104
17.413648,8.769801762072486,0.13608406531895206
17.416031999999998,8.789543230282934,0.1358475459928962
17.418416,8.804628870694492,0.13565766988666197
17.420811999999998,8.814639374426575,0.13553346519121634
17.423199999999998,8.818923115173131,0.13547189773592663
17.425584,8.82548849591982,0.13537307390587017
17.427979999999998,8.830191545546956,0.13529301471517222
17.430367999999998,8.834754825547229,0.13521907558770768
17.432764,8.839597644801225,0.13513336716199864
17.435156,8.846163025547916,0.13503478840550615
17.437544,8.85286817592147,0.13493056777619816
17.439923999999998,8.863577527787855,0.1347777696237837
17.44232,8.865998937414853,0.13473515180111562
17.444703999999998,8.870562217415129,0.13466222715798226
17.447087999999997,8.870422447788268,0.13466822901951087
17.449492,8.876288980400659,0.13460173697998049
17.451876,8.879222246706854,0.13456883876219586
17.454255999999997,8.879734103386053,0.13457761591213838
17.456652,8.882248060811667,0.13456269245119898
17.459039999999998,8.889837154916753,0.1344864240480359
17.461436,8.900219745701172,0.13438394954744348
17.463832,8.91232489797829,0.1342707749489098
17.46622,8.931087978800717,0.1340913145238452
17.4686,8.953435952235397,0.13388236554336136
17.470996,8.97936881828233,0.1336441503996281
17.47338,9.008746807314655,0.13338483210432203
17.475763999999998,9.043572020078791,0.13308158688275415
17.47816,9.083053060641817,0.1327388586970153
17.480544,9.1236975841901,0.13241026090897595
17.482927999999998,9.168858165910413,0.1320485411235913
17.485324,9.212528503563508,0.13171802161921586
17.487712,9.251495791589468,0.1314611375675618
17.490108,9.298191943347375,0.13112455920073923
17.492504,9.344329016597843,0.13081292700145655
17.494892,9.392747729848447,0.13046589724239258
17.497276,9.433530127165719,0.13022352508972576
17.499679999999998,9.474032985229274,0.1299930527828129
17.502067999999998,9.514023986613628,0.1297538033259575
17.504448,9.554806383930902,0.12951455519009897
17.506847999999998,9.592375975688258,0.12932075076613056
17.509235999999998,9.631528359311451,0.12912440311738455
17.511616,9.670540973307787,0.12893637952170497
17.514011999999997,9.709134278423537,0.12876836963446078
17.516399999999997,9.747215726860095,0.12859315241723612
17.518784,9.788509980856565,0.12838228143835453
17.521179999999998,9.826219342240782,0.12819853105851425
17.523567999999997,9.861274976572526,0.12803517307619117
17.525948,9.8895329127321,0.12793581049708957
17.528347999999998,9.917278992212479,0.12782921500657257
17.530735999999997,9.944513215013659,0.12771727768044108
17.533116,9.976031178561394,0.12755640320924305
17.535512,10.01425429248268,0.12731192215863463
17.537896,10.050894614538127,0.12707454449349068
17.540276,10.087162849541237,0.1268248933960248
17.54268,10.12999646529104,0.12650261101191868
17.545068,10.180885705854752,0.1260772986326227
17.547444,10.235127521605243,0.12561467768342174
17.54984,10.293233769221706,0.12512285955895536
17.552228,10.349617455345472,0.12464276064791
17.554607999999998,10.404558119230263,0.12416336862087125
17.557004,10.455541803450462,0.12369586873321009
17.559388,10.505082465431688,0.1232303424819202
17.561784,10.55024683886774,0.12279010413960507
17.56418,10.596342377863571,0.12234577899981319
17.566568,10.635360679433512,0.12196925654692325
17.568948,10.675170376936371,0.12159134848791411
17.571351999999997,10.711255412200119,0.12123982181212348
17.573739999999997,10.754417684889754,0.1208245468725715
17.57612,10.795717626459831,0.12042362474816419
17.578516,10.831942431350438,0.12007172386251118
17.580904,10.86537373956171,0.11974214977271157
17.583284,10.898525508519262,0.11942763021116824
17.585684,10.932748212663453,0.1191050386298709
17.588068,10.969904183113835,0.11876220174116793
17.590452,10.997421736884474,0.118519165242597
17.592855999999998,11.01944484509506,0.11833629525480444
17.59524,11.03732398218595,0.11819228656802822
17.59762,11.052269852970644,0.11807174335426168
17.600016,11.069357594128618,0.11793124964012175
17.602404,11.087748587898707,0.11779768900936269
17.604784,11.10944493502733,0.11765520824610212
17.60718,11.13100151252909,0.1175180302383659
17.609568,11.152977398911432,0.11736712620223254
17.611964,11.174301658987718,0.11721407628084095
17.614368,11.200980594997194,0.11701023714188621
17.616756,11.23022071026053,0.11677423246945168
17.619135999999997,11.260671530337364,0.1165227993629537
17.621532,11.28339348668225,0.11632667439259484
17.62392,11.306394982280858,0.11612181352879489
17.6263,11.329676017133183,0.11590739754925822
17.628695999999998,11.353096821612374,0.11568944878540202
17.631083999999998,11.367997366426694,0.11552699449900024
17.633464,11.377962544188405,0.11540184227507419
17.635868,11.381269793404808,0.11532049966328854
17.638256,11.388069387434845,0.11519996858631726
17.640636,11.396219455905243,0.11506066358163453
17.643031999999998,11.405719998815997,0.11490264302617649
17.645415999999997,11.413497980234057,0.11475134779066609
17.6478,11.416480364226365,0.11463248770431321
17.650195999999998,11.420161596352974,0.11449197960632841
17.65258,11.421189101427109,0.11436388216491641
17.654964,11.420214505754824,0.11425113193111136
17.65736,11.41961199713488,0.11415050022022714
17.659748,11.416448309261078,0.11408283981235463
17.662128,11.410071815827358,0.1140447174609846
17.664524,11.398480416087306,0.11405101142861793
17.666912,11.388611577839953,0.11405079691151748
17.669307999999997,11.381815775525652,0.11402567320884542
17.671704,11.376882304330907,0.1139897132488876
17.674091999999998,11.375813265002138,0.11392803155838374
17.676472,11.372742124926951,0.11388136157383957
17.67888,11.374606351904376,0.11379917826353916
17.681268,11.380474780374636,0.11368696995899379
17.683647999999998,11.391138806270646,0.11354375070109238
17.686044,11.40087166660688,0.1134062305604771
17.688432,11.408462656569835,0.11328813018810158
17.690811999999998,11.414051545786377,0.11318507721338986
17.693208,11.421782305376194,0.11306292275158833
17.695596,11.433377496831984,0.11291554774468406
17.697976,11.440037321235161,0.11280316318933817
17.700371999999998,11.445626210451701,0.11270029748714905
