Time,Force,Position
17.578336,0.11940367684088966,0.0
17.580723999999996,0.11768111534819324,0.0
17.583104,0.11502738829571849,0.0
17.585507999999997,0.11223389161638353,0.0
17.587896,0.10944039493704857,0.0
17.59028,0.10587273199070431,0.0
17.592675999999997,0.10230506904436006,0.0
17.595064,0.10165344273830215,0.0
17.597444000000003,0.0996513419918853,0.0
17.59984,0.09380203904540377,0.0
17.602227999999997,0.08809250572578245,0.0
17.604608,0.08394853460608853,0.0
17.607003999999996,0.07917016684624553,0.0
17.609392,0.0693166624069303,0.0
17.611776,0.05932338834075484,0.0
17.614168,0.047607552781882966,0.0
17.61656,0.03989591871584478,0.0
17.618955999999997,0.03232405427666681,0.0
17.621352,0.025031729091209275,0.0
17.623739999999998,0.02135428868033914,0.0
17.626123999999997,0.017926395360855094,0.0
17.62852,0.015319890136623491,0.0
17.630907999999998,0.01643804715150517,0.0
17.633288,0.016625038606608532,0.0
17.635683999999998,0.01398854122004259,0.0
17.638072,0.014390620434714412,0.0
17.640456,0.014390620434714414,0.0
17.642851999999998,0.012685288607926792,0.0
17.64524,0.01111972640799938,0.0
17.647619999999996,0.01111972640799938,0.0
17.650016,0.01111972640799938,0.0
17.652403999999997,0.010485329767850292,0.0
17.654787999999996,0.010485329767850292,0.0
17.657187999999998,0.010485329767850292,0.0
17.659576,0.010485329767850292,0.0
17.661955999999996,0.010485329767850292,0.0
17.664352,0.011444591632093711,0.0
17.666739999999997,0.013148027601012087,0.0
17.66912,0.01824936472708017,0.0
17.67152,0.024204653422349082,0.0
17.673907999999997,0.035170627302938275,0.0
17.676291999999997,0.04629170461842725,0.0
17.678688,0.06025160458362508,0.0
17.681075999999997,0.07933196719866906,0.0
17.683456,0.10658859873070575,0.0
17.685851999999997,0.14028617519061318,0.0
17.68824,0.18267187724671102,0.008604505552521124
17.690635999999998,0.2334833953111877,0.016702747641923775
17.693036,0.2925809597571829,0.024485955787726704
17.695424000000003,0.3540980379723063,0.03258895500858193
17.697803999999998,0.4223183707031121,0.040490911982455455
17.700204,0.4949603179494631,0.04847989914105359
17.702588,0.5752366852712747,0.05624270509781611
17.704971999999998,0.6631474726685469,0.06381861427639815
17.707368000000002,0.7548282482753064,0.07147142037636635
17.709760000000003,0.8525606520916902,0.07900798015711363
17.712139999999998,0.9535230911338988,0.08653386560624068
17.714536000000003,1.05807042278836,0.09402395062187924
17.716924,1.1610349625769851,0.10156090111163332
17.719304,1.2661413727388875,0.10899025747572441
17.7217,1.3710154654753124,0.11637641290865455
17.724088000000002,1.4742142185472842,0.12381694741957247
17.726472,1.5742946097158264,0.1312244292061787
17.728868,1.6709770997272195,0.1386388633432332
17.731256000000002,1.766031471902402,0.14587809366488783
17.73364,1.8558256118008785,0.1530884700700874
17.736036,1.935331604571419,0.15179015255380574
17.738424000000002,2.003478515027386,0.15113630439270112
17.740808,2.064410314288472,0.150735437133754
17.743204,2.124924700526848,0.14991625558393917
17.745592000000002,2.1796669978093193,0.14926111757192206
17.747971999999997,2.232129550949522,0.14840326053785682
17.750368,2.276026518454487,0.14780707768171406
17.752755999999998,2.310426734764434,0.14747039882478663
17.755139999999997,2.34319883323817,0.14694065907342818
17.757536,2.3691279075693648,0.14654087628863988
17.759923999999998,2.3890053536909344,0.14622422383345696
17.762304,2.4066956034688536,0.14582724649486323
17.764704000000002,2.425643779888514,0.14523762579324606
17.767088,2.437050084031331,0.14485790432945472
17.769472,2.446361739629114,0.1444867746393882
17.771872000000002,2.4543701426147817,0.14409587502877003
17.774256,2.4621462281749724,0.14363917185516684
17.776652,2.4703416226157433,0.14312087759425957
17.779052,2.473741419630762,0.14281110541856984
17.781439999999996,2.472625158473749,0.14265509361482648
17.78382,2.4736507676900135,0.14238134738260583
17.786216000000003,2.477469873585613,0.1419913180557641
17.788607999999996,2.480078274667714,0.14168531453839986
17.790988,2.480544805376538,0.14149985714653307
17.793384000000003,2.4802199401524434,0.14132937555416827
17.795772,2.477892974181932,0.14125261003109163
17.798152,2.4764971737712,0.1411403515319281
17.800551999999996,2.4780346396666624,0.1408987189338425
17.80294,2.477290465561987,0.14079496872370123
17.805320000000002,2.47719791776337,0.14069927541279306
17.807719999999996,2.4780365355245313,0.14056637978834058
17.810108,2.4759418869794976,0.14056322086542772
17.812488000000002,2.4667700010085745,0.14089995597944288
17.814887999999996,2.459320676530348,0.1411967000029014
17.817276,2.451079956119203,0.14150465499330295
17.819656000000002,2.448705768320449,0.1415449688471352
17.822055999999996,2.443910170894697,0.14174266578512074
17.824444,2.4400457390287236,0.14190089051042978
17.826824000000002,2.438183407909167,0.14196903008803388
17.829223999999996,2.4454004149619157,0.14163190782242285
17.831612,2.45555068832086,0.14118624236699526
17.833992000000002,2.4671912057470244,0.1406309545297294
17.836391999999996,2.4771091616804917,0.1401113109757591
17.83878,2.4863754913079004,0.13957911030643588
17.841160000000002,2.4965729864950883,0.13901994212777624
17.843556,2.502486740935722,0.13866303203857977
17.845944000000003,2.510682135376493,0.13818440723427244
17.848323999999998,2.5176668250037646,0.13778263438386254
17.850724,2.5229289531383405,0.1374197587391064
17.853112000000003,2.5304727212730533,0.13693437259764576
17.855496000000002,2.5409497557139615,0.1363358457966369
17.857892,2.549005380527872,0.13587181247300767
17.860280000000003,2.5642780123945323,0.1350655581393384
17.862664000000002,2.581692514634469,0.1341491975282212
17.86506,2.599107016874406,0.1332368238533545
17.867448000000003,2.6098635905690344,0.13259419323189037
17.869832000000002,2.621691099450301,0.1318930358135697
17.872228,2.630725111652233,0.1312947950568572
17.874616000000003,2.6389677279212473,0.13071378671204553
17.877000000000002,2.6381310060179555,0.1305202223231145
17.879396,2.632358917062051,0.1305174817974867
17.881784000000003,2.6213719217998146,0.13075005635363393
17.884168000000003,2.6134579624706338,0.13085012345669914
17.886564,2.608197730193927,0.13087803011488827
17.888951999999996,2.6037288938501386,0.13089405168078214
17.891336000000003,2.6054061293724606,0.13065060586617025
17.893732,2.6014491497078702,0.1307002975355545
17.896124,2.600565205976335,0.13061875366628425
17.898504000000003,2.6043370900436917,0.13038997038030584
17.900903999999997,2.6034059244839134,0.1304197093003764
17.903292,2.598982414110499,0.13063935324415343
17.905672000000003,2.600285666722615,0.13065966906706716
17.908068,2.594743999334319,0.13104516648985912
17.910455999999996,2.5915765197447778,0.13139224220274465
17.912840000000003,2.5887811272075734,0.1317883056404892
17.915236,2.588080383215403,0.1321972032631102
17.917623999999996,2.588962431089069,0.13258386176448486
17.920004,2.59086819232113,0.13303043307729426
17.922404,2.5908644006053914,0.13364949662787656
17.924791999999997,2.593234796688407,0.1342433422818195
17.927172,2.596908445383539,0.1348593997070937
17.929567999999996,2.6098937496764543,0.13515107453766773
17.931956,2.6239027673277637,0.13550206624143632
17.93434,2.635630144978937,0.1359740933530912
17.936735999999996,2.6421426163237776,0.1366836395170996
17.939124,2.6493067139746764,0.1373937493238492
17.941508,2.6647587538649624,0.13773863804075523
17.943903999999996,2.6782086930088322,0.1381649870834604
17.946292,2.689796301033145,0.1386486528849218
17.948676,2.707297663498091,0.13881672422609434
17.951071999999996,2.7287106796572536,0.13874805180429592
17.95346,2.7480290472713826,0.1386780818258797
17.955844,2.7713988382065886,0.1383388060924469
17.958239999999996,2.7888095487307867,0.13812808635761797
17.960628,2.8059879418295077,0.1378524662150325
17.963012,2.8222823911966937,0.13750020077000585
17.965412,2.8374133575786242,0.13711733166915957
17.967799999999997,2.854733416162075,0.1365466368849703
17.97018,2.876104898066602,0.1357276359274537
17.972575999999997,2.898454767359151,0.1347765114431658
17.974964,2.920572319226223,0.1337489470172676
17.977344000000002,2.9344491506821497,0.13296830585407493
17.979743999999997,2.94264644098079,0.1322655984588356
17.982132,2.9536844497870076,0.1313864018730207
17.984512000000002,2.9682148034068625,0.13031333760823288
17.986908,2.9783688684815455,0.12934904323948326
17.989296000000003,2.982516631316978,0.1286202571267925
17.991676,2.9848020630328533,0.12794572737367313
17.994076,2.9824316669498376,0.1274019923204494
17.996464000000003,2.9745668253067685,0.12710611803447183
17.99886,2.965351509223341,0.12688960445112485
18.001255999999998,2.9577189850057493,0.12665506319980496
18.003644,2.9505983174673553,0.1264472179930232
18.006023999999996,2.9497162695936896,0.12609812162419998
18.00842,2.945481646533248,0.12589388029999923
18.010807999999997,2.944831916085059,0.1256072079116115
18.013191999999997,2.941760776009873,0.12543995819708337
18.015592,2.933195190374634,0.12550432203890563
18.017976,2.9239307566050936,0.12565044446021242
18.02036,2.917180280261169,0.12575388359508088
18.022756,2.9132233005965786,0.12578550799069385
18.025144,2.91406191835774,0.12568303149683815
18.027524,2.9211391557836284,0.12545028060739147
18.029924,2.923513343582383,0.12543139558252173
18.032312,2.9309154462323668,0.12534459842579698
18.034696,2.9446487163456947,0.12521107965630476
18.037092,2.961360578735592,0.1251556877850247
18.03948,2.9878015097459842,0.1250839718664298
18.041864,3.0251803183325,0.12515696170449558
18.04426,3.07116814266676,0.1255162058931784
18.046648,3.1306059061448894,0.1261718650735612
18.049032,3.2067989621254203,0.12704867321150498
18.051428,3.305613843220744,0.1279716556447558
18.05382,3.422534491258828,0.12903444988925292
18.0562,3.571296072210871,0.12988514698229472
18.058596,3.7382559679042924,0.13091854110434864
18.060988,3.9343558476309544,0.1318528625604835
18.063372,4.157733380271299,0.13269097778825487
18.065768,4.402010176533741,0.13358620110409836
18.06816,4.664672278992665,0.13459086259090508
18.07054,4.949631341342285,0.1356048273789126
18.072940000000003,5.252371305410574,0.13667528803371135
18.075328,5.571868457839132,0.13778760829489684
18.077708,5.912406539374517,0.13878372837253042
18.080104,6.261089001806694,0.1398931176842558
18.082492,6.618754462896817,0.1410352952704577
18.084872,6.991875755592968,0.14201242503760902
18.087272,7.366672387953574,0.1429834878361812
18.08966,7.7528318943444905,0.14357705276195804
18.092044,8.14476917726492,0.143692520856386
18.094436,8.527028405108835,0.14349118075706185
18.096824,8.890857000785896,0.14310517837469416
18.099208,9.23173890612407,0.14265539759921586
18.101604,9.548975272989056,0.14215382131702597
18.103992,9.830041640223156,0.14178635782047633
18.106372,10.08886016525267,0.14130689850506886
18.108772,10.316119192479814,0.14084003095131423
18.11116,10.512889657091229,0.14035099330233555
18.11354,10.68648111393828,0.13978456476562864
18.11594,10.835356097125507,0.13919482159003205
18.118328,10.956906205570803,0.1386664118847286
18.120708,11.062025886737793,0.13810508615076877
18.123108,11.145313242865038,0.13759825269141035
18.125496,11.209282231378156,0.13713090443128512
18.127876,11.263803586382366,0.1366021097469678
18.130272,11.305384963064038,0.13605943039213247
18.13266,11.330114707728947,0.13556899572115472
18.13504,11.343951900788108,0.1350905168529991
18.13744,11.338793695599366,0.13475749459692923
18.139828,11.322461503693283,0.1345144202038433
18.142212,11.30449929809312,0.13430182655253053
18.144608,11.287048949172156,0.13409529569691872
18.147,11.268108356183971,0.133913180167679
18.14938,11.251169863942204,0.13371161189663247
18.15178,11.240469991365163,0.13346899133492238
18.154168,11.22944335770616,0.13326032466040694
18.156552,11.222326481883504,0.13306443882971908
18.158948,11.225917062069367,0.1328238947187313
18.161336,11.226340162665688,0.13266441791297498
18.163716,11.231371869232655,0.1324956229333399
18.166112,11.24143149065085,0.13230368922451716
18.1685,11.244134335389438,0.13218862403527282
18.17088,11.252052086434357,0.13202001335190722
18.173276,11.262531016733135,0.1318142671131885
18.175664,11.270868076658633,0.13163302546137462
18.17806,11.28269748139777,0.1314091769585666
18.180456,11.295365503898068,0.13115809279359072
18.182844000000003,11.309943079346166,0.13086824541045036
18.185228,11.32284531512981,0.13056103125782
18.187624,11.337377564607534,0.130225634640088
18.190012000000003,11.346602359980308,0.12992214642372543
18.192392,11.355827155353085,0.12961955051153637
18.194792,11.365284268151335,0.12933301117936782
18.197180000000003,11.373390906509227,0.12906694536138263
18.19956,11.386293142292871,0.12876446164661376
18.20196,11.400266313263153,0.12845067919205788
18.204348000000003,11.413168549046796,0.12814750943060782
18.206728,11.421275187404687,0.12788312972659058
18.209128,11.432734400949355,0.12757980196949098
18.211516000000003,11.442610822628188,0.12728083637707918
18.2139,11.449973286881404,0.12699276904629125
18.216296,11.466974167814369,0.12660636439632533
18.218684000000003,11.484813666508494,0.1261962217351572
18.221068,11.501489682217363,0.1257778675315014
18.223464,11.51541942307514,0.12535372187275592
18.225852,11.524972875387748,0.12495375284088038
18.228236000000003,11.534154240648016,0.12454333143311763
18.230632,11.544686080348644,0.12411560199630085
18.23302,11.559873747848165,0.12365817544473658
18.235404000000003,11.573059314601267,0.12321923635626854
18.2378,11.588758838779984,0.12277076442104548
18.240188,11.604690680384177,0.12233958505233902
18.242568,11.623555788294567,0.12188728258537398
18.244968,11.646377875869549,0.12142857788193845
18.247356,11.66756994975045,0.12100080681978251
18.249736,11.691927607363024,0.12056901215565735
18.252136,11.724014128707543,0.12008562078574052
18.254524,11.759545773037459,0.11959027907403298
18.256904,11.797591374792985,0.1190882968679528
18.259300000000003,11.83721976841435,0.11858484476820433
18.261688,11.877779327595492,0.11807642324311428
18.264072,11.912844441216583,0.11762575307395884
18.266472,11.943346274837397,0.11722485378411891
18.26886,11.97543090032405,0.11682402905137267
18.271244000000003,12.009749943982596,0.11642474697238817
18.27364,12.047793649880255,0.11600671678873276
18.276028,12.08606967320339,0.11560647545794701
18.278408,12.121644747645806,0.11524416279500577
18.280808,12.15400701652831,0.11491154552879855
18.283196,12.18594997653023,0.11459244762653759
18.285576,12.216822001345513,0.11428302157725675
18.287972,12.245971464668102,0.11398017281387843
18.29036,12.274841388736967,0.11368754906967887
18.292744,12.3009178161265,0.11341119961422427
18.29514,12.324992142769613,0.11314983996327006
18.297528,12.34799553422609,0.11289918904827413
18.299912,12.366854954562871,0.11268323661582187
18.302308,12.385574605272794,0.11247299860399412
18.304696,12.406016817475413,0.11225875496567171
18.30708,12.430183691917144,0.11202721975033517
18.309476,12.45886662453091,0.11177788177800445
18.311864,12.490343053824008,0.11151557537731768
18.314248,12.52433344054272,0.11124741732994695
18.316648,12.558695914313768,0.11099249417281437
18.319036,12.595572345510433,0.11073342177947412
18.321416,12.628816662266601,0.1105129647647965
18.323812,12.663504001261746,0.11029633079983392
18.3262,12.699774132122725,0.11007896832805548
18.328584,12.740280781902015,0.10985169510561947
18.33098,12.783813245786117,0.10962685906203402
18.333368,12.832513394148311,0.10938824247382889
18.335752,12.885869370309395,0.10912920598290975
18.338148,12.937502784977784,0.10887644521061726
18.340536,12.99155760927317,0.10860110740233406
18.34292,13.047894073568695,0.10830696147748296
18.345316,13.103858450811881,0.10800395194022283
18.347708,13.157029331375735,0.10771467760788787
18.350088,13.205264844886972,0.10745487414322617
18.352488,13.247773595412681,0.10722540876033324
18.354876,13.284415813326,0.10703045921370632
18.357256,13.316122664186704,0.10686557057897014
18.359656,13.34089204724838,0.106741099555304
18.362044,13.368082839937054,0.10659455746882315
18.364424,13.395692941506308,0.1064383127012235
18.366824,13.423722351956142,0.10627287109077228
18.369212,13.455895733525672,0.10608112887368167
18.371596,13.488907732856362,0.10586933514055291
18.373992,13.522618580321355,0.10564070544710266
18.37638,13.557028275920647,0.10539643841486647
18.378764,13.58869169666885,0.10514382145133051
18.381164,13.616258368125601,0.10489777669252567
18.383552,13.64010037734324,0.10466843673457224
18.385932,13.664733782493796,0.10443930938218342
18.388332,13.686945778017355,0.10423275906578526
18.39072,13.70915777354091,0.10402747822686428
18.393104,13.732812791303447,0.10382647296985
18.395504000000003,13.757398974625758,0.10362170304580096
18.397892,13.787200064254405,0.10338466045650382
18.400276,13.826080492055356,0.10309867100457387
18.402672000000003,13.867242559856441,0.10279521434514331
18.40506,13.90761323172461,0.10249176092754736
18.407444,13.95641161545903,0.1021348119754025
18.409840000000003,14.001485336954335,0.1017948454583565
18.412232000000003,14.041344152143306,0.10148757197756401
18.414612,14.07412572990639,0.10122005743175733
18.417012,14.1030428758035,0.10097170956996811
18.419400000000003,14.125254871327057,0.10077266562671942
18.421784,14.144254061290699,0.10059520099835591
18.42418,14.158317884201729,0.10044311529062762
18.426572,14.176106369351873,0.10027802665696792
18.428956,14.193755084875157,0.10011665402592994
18.431352,14.214057527450915,0.0999489616523474
18.433744,14.234639509280393,0.09977504726668204
18.436128,14.25764290073687,0.09958132511765339
18.438524,14.279715126633567,0.09939197599270266
18.440912,14.297411063985095,0.09921318139949249
18.443296,14.318878885403977,0.09900185185058902
18.445696,14.33503925271791,0.09880425773591198
18.448084,14.339746094060784,0.09865353921259949
18.450468,14.343801309097598,0.09849971435525025
18.452868,14.34920699857477,0.09833263921182592
18.455256,14.350888025812832,0.0981791628552854
18.45764,14.350706721931335,0.09803199456220801
18.460036,14.352155431743919,0.09786473689774927
18.462428000000003,14.358307191183638,0.09766123566331676
18.464816,14.36301592838438,0.09745401567635979
18.467216,14.369913757786643,0.09721287030963899
18.469604,14.377091126442624,0.09696484928301621
18.471988000000003,14.381474998419272,0.09672576630819779
18.474388,14.377198841104196,0.09652231137975417
18.476784,14.374133388602614,0.0963091571582465
18.479164,14.369904453115781,0.09608627960633082
18.481576,14.363952956136249,0.09586643457667897
18.483964,14.355068192850522,0.0956594419681708
18.486344000000003,14.346323199191655,0.0954493662248316
18.48874,14.340371702212124,0.09522993347666962
18.491128,14.326504350045544,0.09506498212222142
18.493508,14.31887561754369,0.09488525900999699
18.495904000000003,14.317765043960282,0.09468392550943194
18.498292,14.316095391869435,0.09449589374197953
18.500672,14.316288070898146,0.09430220788506835
18.503068,14.3151302754865,0.09412138457505632
18.505456,14.316765976754189,0.09393159806861283
18.507836,14.319193073954793,0.0937421583883685
18.510252,14.317336430408842,0.09357761048539566
18.512636,14.319064679475145,0.09340467335152328
18.51502,14.321025245966926,0.09324501484356591
18.517416,14.322846042831847,0.09308852559368823
18.519804,14.330393602682298,0.09291109238268519
18.522184000000003,14.341526055145001,0.09272451377512372
18.52458,14.35037686760757,0.09255389813478154
18.526968,14.355735335256503,0.09240862307922933
18.529348,14.36360776033105,0.09226149734956338
18.531744,14.373342516525152,0.092108801673324
18.534132,14.3775828271592,0.09198999903435903
18.536516,14.378889871487054,0.09188314288093018
18.538912,14.3855515917481,0.09174516834023828
18.5413,14.386207009769898,0.09163459086932392
18.54368,14.385931262231916,0.09152715358707247
18.546076,14.385935053947653,0.09141320701483951
