Time,Force,Position
4.1828,0.1514046910439767,0.0
4.185251999999991,0.13989560721533686,0.0
4.1876960000000025,0.12624465301342003,0.0
4.190135999999995,0.11366463399814168,0.0
4.1925839999999965,0.095218082370473,0.0
4.195043999999996,0.0769113003696645,0.0
4.197487999999993,0.06461082060810655,0.0
4.199928,0.05710593827230043,0.0
4.202376000000001,0.05174292630977136,0.0
4.204819999999998,0.046100375093521884,0.0
4.207263999999995,0.041249219810190516,0.0
4.209707999999992,0.03639806452685914,0.0
4.212147999999999,0.035551110736361476,0.0
4.214591999999996,0.029629020266391567,0.0
4.217035999999993,0.023706929796421666,0.0
4.219476,0.017784839326451765,0.0
4.221919999999997,0.012654144789399975,0.0
4.224363999999994,0.0075234502523481815,0.0
4.226799999999997,0.00346369090193492,0.0
4.2292520000000025,0.0023455338870532385,0.0
4.231691999999995,0.000287875283056828,0.0
4.234135999999992,0.000287875283056828,0.0
4.236579999999989,0.0002878752830568281,0.0
4.239031999999995,0.0002878752830568281,0.0
4.241475999999992,0.0002878752830568281,0.0
4.243923999999993,0.0002878752830568281,0.0
4.246364,0.005558339446968829,0.0
4.248807999999997,0.012970673984157893,0.0
4.251255999999998,0.022385109267763804,0.0
4.253695999999991,0.029517904551232446,0.0
4.256147999999996,0.036371160580980666,0.0
4.258579999999995,0.04243302067781078,0.0
4.26103599999999,0.043279974468308446,0.0
4.263475999999997,0.04598925937836276,0.0
4.265919999999994,0.045989259378362755,0.0
4.268367999999995,0.045989259378362755,0.0
4.270811999999992,0.045989259378362755,0.0
4.273259999999993,0.045989259378362755,0.0
4.2757079999999945,0.045989259378362755,0.0
4.278148000000002,0.04570138409530593,0.0
4.2805879999999945,0.04570138409530593,0.0
4.28304399999999,0.04570138409530593,0.0
4.285483999999997,0.045701384095305934,0.0
4.287936000000002,0.045701384095305934,0.0
4.290368000000001,0.045701384095305934,0.0
4.292811999999998,0.045701384095305934,0.0
4.295251999999991,0.04043091993139394,0.0
4.297696000000002,0.03301858539420487,0.0
4.300143999999989,0.023604150110598958,0.0
4.302579999999992,0.016471354827130316,0.0
4.305031999999997,0.009618098797382093,0.0
4.307475999999994,0.0035562387005519803,0.0
4.309919999999991,0.0027092849100543107,0.0
4.312364000000002,0.0,0.0
4.314811999999989,0.0,0.0
4.317251999999996,0.0,0.0
4.3197040000000015,0.0,0.0
4.322136,0.0,0.0
4.324579999999997,0.0,0.0
4.32701999999999,0.0,0.0
4.3294640000000015,0.0,0.0
4.331911999999988,0.0,0.0
4.3343440000000015,0.001870667148893049,0.0
4.336799999999997,0.005883204671063159,0.0
4.3392399999999895,0.007102245513898307,0.0
4.341684000000001,0.007102245513898307,0.0
4.344132000000002,0.007102245513898308,0.0
4.346587999999997,0.010463156730010517,0.0
4.349040000000002,0.011682197572845665,0.0
4.351479999999995,0.017976375095153048,0.0
4.353920000000002,0.02534148780409896,0.0
4.356363999999999,0.03163566532640634,0.0
4.358807999999996,0.03471703728879813,0.0
4.361251999999993,0.038869344437828454,0.0
4.363692,0.04115932046730213,0.0
4.366135999999997,0.044380462056554125,0.0
4.368579999999994,0.05253697069841816,0.0
4.3710200000000015,0.058691378593865334,0.0
4.373459999999994,0.061912520183117326,0.0
4.375923999999998,0.06527343139922953,0.0
4.378355999999997,0.06877411224220195,0.0
4.380808000000002,0.07134362752539605,0.0
4.383251999999999,0.07083177084619836,0.0
4.3857,0.06681923332402825,0.0
4.388143999999997,0.06574829813738972,0.0
4.390608,0.06910920935350194,0.0
4.393047999999993,0.07568292612952973,0.0
4.395495999999994,0.07810433575652721,0.0
4.397927999999993,0.08588042131671735,0.0
4.40037199999999,0.09044370131699189,0.0
4.402811999999997,0.09165440613049064,0.0
4.405259999999998,0.1008735139296568,0.0
4.407708,0.11637846322179392,0.0
4.410147999999992,0.12974154214065398,0.0
4.412591999999989,0.14496695217907068,0.0
4.4150319999999965,0.15833003109793073,0.0
4.4174759999999935,0.1636847070311234,0.0
4.419923999999995,0.17397475001692805,0.0
4.422383999999994,0.1886410815479039,0.0
4.424835999999999,0.20274833457143893,0.0
4.427275999999992,0.21522557390089456,0.0
4.429723999999993,0.23408120252193826,0.0
4.43216799999999,0.2561024148746544,0.0
4.4346319999999935,0.28129754698837933,0.0
4.437075999999991,0.3085317697895587,0.0
4.439523999999992,0.3295254770681409,0.0
4.441971999999993,0.3505172884888539,0.0
4.444412,0.377373736664088,0.0
4.446863999999991,0.40487991528751077,0.0
4.449303999999998,0.4333153636128426,0.0
4.451747999999995,0.4739012901856665,0.007841552626145496
4.454191999999992,0.5080597097807901,0.016573617516551502
4.456631999999999,0.5473839179961336,0.025145722523893133
4.459075999999996,0.596017885951391,0.033597713280273424
4.461519999999993,0.6506090384597866,0.04222983573047407
4.463971999999998,0.7128799370140169,0.050976419429528706
4.466411999999991,0.7831101208678022,0.05996274695775594
4.4688680000000005,0.8570158492745885,0.06905532989023244
4.471307999999993,0.9385087759285923,0.07799206969080226
4.4737480000000005,1.0290319230687894,0.08688059186413702
4.476187999999993,1.1305873914415971,0.09567692243677506
4.4786439999999885,1.231162576568514,0.10470807119556808
4.481083999999996,1.3368110025170339,0.11374225047333776
4.483527999999993,1.4524680363397686,0.12253860337655277
4.485968,1.576970195051463,0.1311528003689846
4.488411999999997,1.7195365864512833,0.13943968374594862
4.49085199999999,1.869272763075609,0.14760081273994285
4.493296000000001,2.020312192312051,0.15579555073366125
4.495735999999994,2.1747967445338854,0.16399322746188066
4.498179999999991,2.3322145630619153,0.17221953315214103
4.500631999999996,2.484277705656752,0.1726868395423214
4.503071999999989,2.646491121610534,0.17213023755467785
4.505516,2.804188479392284,0.17182343278302717
4.507955999999993,2.960442814935059,0.17162288081844854
4.510419999999996,3.1186067034256326,0.17119311957506783
4.512863999999993,3.280310158558086,0.170511112884806
4.515315999999999,3.4462048066384767,0.16950612367537568
4.517764,3.610843423934994,0.1683979069695814
4.520207999999997,3.7747378671268366,0.1673784014285632
4.522651999999994,3.932440912482195,0.16647993528934313
4.525095999999991,4.086373969628066,0.16564510842418972
4.527535999999998,4.240681009684142,0.16456675678072863
4.529979999999995,4.395734119702765,0.1634125047703834
4.532423999999992,4.54007977371287,0.16256062153181983
4.534863999999999,4.675859842087739,0.16190727914725783
4.537307999999996,4.797068022588118,0.1616432160718258
4.539763999999991,4.911712718199675,0.16147336853929192
4.54219599999999,5.023798130415242,0.16123918726560474
4.544651999999999,5.133743568115402,0.1609269217321592
4.547091999999992,5.240058787232936,0.16058182068554538
4.549539999999993,5.345165197394841,0.16011501874835385
4.55198399999999,5.436770654868893,0.15987971168763748
4.554435999999996,5.526887764133596,0.15954080373904236
4.556876000000003,5.609510222949701,0.1592619266227195
4.5593239999999895,5.68677990169048,0.158999850568005
4.561768000000001,5.753993750728804,0.15890457963893273
4.564211999999998,5.81650644599786,0.1588275345909267
4.566648000000001,5.875249153057429,0.15873271183337626
4.569096000000002,5.926357440041537,0.15870664122532271
4.571543999999989,5.979702041055407,0.15852758624619576
4.573979999999992,6.026715474605934,0.15841225625150734
4.576423999999989,6.0706105462530315,0.1582827072013889
4.57887199999999,6.107383054503866,0.15822775014606427
4.581316000000001,6.145832798277024,0.1580614093596331
4.583767999999992,6.183678137572364,0.15784790272753033
4.586207999999999,6.2227814035094475,0.15755051749317844
4.588656,6.255925589035522,0.15733234497356338
4.591095999999993,6.28432139896409,0.15716033734443208
4.593543999999994,6.304756027735233,0.15711033254619927
4.595987999999991,6.325098108707757,0.15702454885178466
4.5984399999999965,6.343345541135248,0.1569451860468489
4.6008839999999935,6.365784166510677,0.15672668349760918
4.603324000000001,6.388409783341209,0.15645778703681287
4.605767999999998,6.412944953119538,0.1561109959959637
4.608211999999995,6.435105935099114,0.15578806610932802
4.610652000000002,6.456103434093436,0.15545089778270946
4.613095999999999,6.47021068711697,0.15520654409899273
4.615544,6.48273514827467,0.15497694021693495
4.617979999999989,6.49553914868609,0.15473074095969883
4.620431999999994,6.5028959253657,0.15457116426975656
4.622875999999991,6.512953650926027,0.15432972374785883
4.625320000000002,6.520357649433881,0.1541260079845725
4.627767999999989,6.52431652495634,0.15396547651610912
4.63021599999999,6.526552838986103,0.1538282079189489
4.632655999999997,6.52678705226945,0.15373024429381413
4.63509599999999,6.522644977007625,0.15369099977429634
4.637527999999989,6.520784541745939,0.1535954714121731
4.639972,6.520926207230667,0.15346076596268224
4.642420000000001,6.522650664581231,0.15331155011380346
4.644863999999998,6.520370920438964,0.15324165864397118
4.647303999999991,6.515529997042839,0.15324617257478546
4.64973599999999,6.5091988295794945,0.15330047073546518
4.652191999999999,6.498304382115874,0.15346808756686908
4.6546400000000006,6.488201330585174,0.1536270192849045
4.657083999999998,6.479960610174028,0.1537544594292801
4.659531999999999,6.474653156069079,0.15382770415860214
4.661991999999998,6.4737219905093015,0.15384276507733402
4.664443999999989,6.475584321628857,0.1538128996877855
4.666883999999996,6.4745133864422195,0.1538363974016776
4.669319999999999,6.477027343867833,0.15380867246649635
4.671763999999996,6.477399430920172,0.15382763870546204
4.674211999999997,6.4807047842787044,0.15379401281209443
4.67665199999999,6.489597130995907,0.15367205215833102
4.679096000000001,6.4983497080862485,0.15355935498683407
4.681528,6.5071022851765905,0.15344638768046986
4.683971999999997,6.524235352304938,0.15320411587877927
4.686419999999998,6.542020045739343,0.15296473757774476
4.688863999999995,6.5573833295467505,0.15278718745270814
4.6913160000000005,6.575679879660353,0.15255765373847638
4.6937599999999975,6.601053667199845,0.15219698241251142
4.6962119999999885,6.628848864366334,0.15177344585675706
4.698651999999996,6.6587859319061,0.15130699062216652
4.701099999999997,6.691796035378922,0.15077832479753295
4.703543999999994,6.722524498851607,0.15030565254632988
4.705991999999995,6.749248760831458,0.1499070132792214
4.708435999999992,6.771968821318476,0.14958230770767772
4.710883999999993,6.794688881805493,0.14926132289109095
4.713331999999994,6.814894984866896,0.1489695515973075
4.715775999999991,6.838034354234494,0.14862622096822103
4.718223999999992,6.858519996549617,0.1483198322600292
4.720663999999999,6.8810077396111575,0.1479795994363582
4.72311599999999,6.904286878605615,0.14763862845250428
4.725555999999997,6.924912290547598,0.14733340559715968
4.727999999999994,6.944606536929803,0.1470424977221251
4.730443999999991,6.96364915700595,0.14674838725324282
4.732887999999988,6.97510268297701,0.14657242819740166
4.735348000000002,6.98669597857493,0.1463893251791729
4.737780000000001,7.0008504534267075,0.1461399577134934
4.740235999999996,7.015564006785926,0.14586206806294044
4.742675999999989,7.021989617905758,0.14573687792694512
4.745115999999996,7.031348495331785,0.14556709926637146
4.747559999999993,7.039636437571174,0.1454190678246208
4.750007999999994,7.045922279064143,0.14530411420883632
4.752451999999991,7.0526274294376945,0.1451659770960592
4.754899999999992,7.062126076490582,0.14498886131671457
4.757331999999991,7.077491256155859,0.14472057651360914
4.759776000000002,7.090062939141802,0.14449112606480802
4.762219999999999,7.103286248433801,0.1442652152688408
4.764659999999992,7.114647226606244,0.14406464903019134
4.767099999999999,7.125868435151828,0.14387190354893697
4.769536000000002,7.135087542950994,0.14371300218316185
4.771987999999993,7.139511053324409,0.1436247189372344
4.774428,7.145005498884461,0.14351674419204308
4.7768760000000015,7.15250204519093,0.14337694133004592
4.779315999999994,7.161860922616958,0.14321258679487325
4.781768,7.174153066349179,0.1430031935673847
4.784211999999997,7.186724749335121,0.14278001562458215
4.786659999999998,7.200227597880842,0.14254686201125902
4.789091999999997,7.208655309747089,0.14239708576323482
4.791535999999994,7.220715136053833,0.14216428650155868
4.793987999999999,7.226908429748187,0.14202090175381532
4.796427999999992,7.230447996390068,0.1419063714171423
4.798871999999989,7.235477807099166,0.14174947609596264
4.801316,7.240367848181402,0.14160018100338348
4.803755999999993,7.243675097397805,0.1414602194054546
4.806196,7.243676993255674,0.14134713247815828
4.808639999999997,7.2456809898599595,0.14120264701556437
4.811092000000002,7.243820554598271,0.141113383729955
4.813531999999995,7.241168723403664,0.14102849392282202
4.815984,7.237865265903002,0.14094062870164406
4.818423999999993,7.23391018209628,0.14084977719416114
4.820864,7.232376507916556,0.14070422365641122
4.823307999999997,7.229632128923334,0.1405860418081023
4.825751999999994,7.22237169175808,0.14052086673195824
4.828195999999991,7.213109153846407,0.1404873944708798
4.830635999999998,7.198911248882125,0.14053048713880403
4.833067999999997,7.182851012798285,0.14059729539919483
4.835511999999994,7.160924244102056,0.14075294362560048
4.837952000000001,7.145003777645077,0.14081199528496618
4.840395999999998,7.1326682038003515,0.1408283175602295
4.842844,7.121683104395984,0.1408103095542827
4.845292000000001,7.111629170551396,0.14078045245561158
4.847743999999992,7.101295697453087,0.14076527934360292
4.850183999999999,7.0904503676755795,0.14073935991298317
4.852632,7.080955512338431,0.1406783827592374
4.855075999999997,7.06610598106809,0.14071628793726906
4.857528000000002,7.049394118678192,0.14077812361194306
4.859971999999999,7.035103665915292,0.14078603971411263
4.86242,7.025888349831864,0.14070942920763793
4.864855999999989,7.015602098561797,0.1406525641126653
4.86730399999999,7.006107243224649,0.140590953355863
4.869743999999997,6.996472618260641,0.1405365124570121
4.872187999999994,6.983113331057519,0.14053146990850954
4.874628000000001,6.976411972399706,0.14043272904667614
4.877076000000002,6.970921318555392,0.14030640243868595
4.8795319999999975,6.969434866203911,0.14011521410771055
4.8819759999999945,6.96673770903893,0.1399512136363523
4.884416000000002,6.96990708448634,0.13969691751223043
4.886859999999999,6.9670701576945,0.1395403315096439
4.889303999999996,6.95743553273049,0.1394855209600248
4.8917439999999885,6.9495234692591765,0.13941344822607574
4.89419199999999,6.94482421134778,0.13928147826224285
4.896627999999993,6.941335658249882,0.13912212435945132
4.899068,6.940780371458179,0.13891941661305768
4.901519999999991,6.94367020765187,0.13868605883637722
4.903959999999998,6.955499612391004,0.13831636555771604
4.906399999999991,6.969470887503416,0.13790890770090042
4.90883199999999,6.986235659295164,0.13746870007460876
4.911276000000001,6.998576920713498,0.13711456785520024
4.91371199999999,7.0167847147442215,0.13667910052338442
4.916156000000001,7.034201112842027,0.1362475637831273
4.918604000000002,7.0494756405665555,0.1358527413621734
4.921059999999997,7.070756470530333,0.13536569374265633
4.923512000000002,7.085379371948804,0.13496846883234684
4.925951999999995,7.102935539673469,0.13453350438672634
4.928387999999998,7.123844282584912,0.1340398990652903
4.930831999999995,7.149036766242908,0.13347384921744612
4.933284,7.171575522848428,0.1329363578236151
4.9357279999999975,7.198118480946784,0.1323386791059734
4.938175999999999,7.229876345351473,0.13165682838854817
4.940607999999997,7.259492339382883,0.13101261706036355
4.94304799999999,7.284684823040879,0.13045021415745944
4.945495999999992,7.3095977674451555,0.1299060942371232
4.9479399999999885,7.331297906289516,0.12941889326273814
4.950384,7.348202447708124,0.12899574997248744
4.952815999999999,7.3592404565143426,0.12865254411094795
4.95526799999999,7.368416134201004,0.12833122880387937
4.957707999999997,7.375589711141248,0.12803950268661277
4.96014799999999,7.3871867984549064,0.12767265186277024
4.962587999999997,7.394919453902592,0.12735652494677782
4.965043999999992,7.402512339723417,0.12704685221241835
4.967483999999999,7.41224709591752,0.12670205856119252
4.969939999999994,7.419839981738345,0.1263931736366665
4.972371999999993,7.431948925731203,0.12604115516192627
4.974812,7.438191337111668,0.12576377827651933
4.977251999999993,7.442152108491998,0.12552941568617562
4.979692,7.44383123987219,0.1253363470772144
4.982143999999991,7.451097364611051,0.12508745001198537
4.984583999999998,7.461436525282968,0.12479950229262655
4.987039999999993,7.46856288039497,0.12456101018132863
4.989487999999994,7.475177378827773,0.12431055883254934
4.9919280000000015,7.487146553193769,0.12398045009577144
4.994375999999988,7.500326432373264,0.12362996756366491
4.996815999999996,7.511643980433203,0.12329595825920898
4.9992599999999925,7.5243120029335016,0.12293261739343524
5.001711999999998,7.539913291739993,0.1225347935400404
5.004159999999999,7.55230177498657,0.12218259251658284
5.006599999999992,7.567763294166202,0.12179213426095693
5.009056000000001,7.576147575919945,0.12149301852750963
5.011495999999994,7.582529756927272,0.12121845300864029
5.013936000000001,7.590914038681015,0.12091918145794416
5.016368,7.600229485994537,0.12061184840606995
5.018811999999997,7.608893307002001,0.12030006542067516
5.021259999999998,7.615182940210711,0.11999606792964036
5.023703999999995,7.626407940472032,0.1196338135873641
5.026156,7.635630839986937,0.1192966540801887
5.028587999999999,7.645133278755562,0.11894659268933679
5.031043999999994,7.6470466234191,0.11867531498086385
5.033484000000001,7.642162269910472,0.11847901081591107
5.0359320000000025,7.635555354909144,0.11829272846055934
5.038376,7.635466598826265,0.11804637719652206
5.040839999999989,7.631373641250552,0.11784826626013035
5.043279999999996,7.625418352555283,0.11766740405971048
5.045727999999997,7.6253295964724055,0.1174229518969243
5.048159999999996,7.623890365949168,0.11720655141465867
5.050603999999993,7.622590905052791,0.11698422146590141
5.053051999999994,7.627157976768804,0.11669850318811943
5.055495999999991,7.6275810773651225,0.11646650012815651
5.057943999999992,7.634290019454412,0.11615217612106317
5.060379999999995,7.646074098223176,0.11577855018317307
5.062823999999992,7.656927011432159,0.11541426133826474
5.065263999999999,7.667268067961945,0.11504017486386547
5.067707999999996,7.680262851544206,0.11465004254918928
5.070155999999997,7.692558786992166,0.11429162485237217
5.072611999999992,7.705134261693846,0.11392390514973333
5.075068000000002,7.7181290452761075,0.1135366180446835
5.077503999999991,7.729773354418009,0.11317634888927827
5.079951999999992,7.745282095425885,0.11277821285938518
5.082395999999989,7.763724102739956,0.11234931493074542
5.084851999999998,7.788824038599336,0.11186158621146788
5.087295999999995,7.806195110726768,0.11145091770491916
5.089748,7.8254285139737565,0.11102585385072622
5.092175999999995,7.839726550168134,0.11064951019017179
5.094619999999992,7.8481580537501205,0.11033257102875121
5.097059999999999,7.85458745658569,0.11003573751571695
5.099503999999996,7.859014758674843,0.10976117491863968
5.101951999999997,7.865583931137272,0.10946164219069124
5.104395999999994,7.872153103599701,0.10916148049558572
5.106847999999999,7.880165298301106,0.10886886592938275
5.1092960000000005,7.880169090016845,0.10865981593572163
5.1117399999999975,7.8823147521058585,0.10842441737413454
5.114187999999999,7.882830400500793,0.10822768784999588
5.116643999999994,7.8788299907236965,0.10806055150589494
5.119099999999989,7.87618005538696,0.10786717183358215
5.121539999999996,7.870037775236586,0.10772683612933057
5.123987999999997,7.866129913258107,0.10759030746147387
5.126431999999994,7.863572525719988,0.10742778030086111
5.128887999999989,7.855800231875535,0.10732540744187012
5.131327999999996,7.849750499523779,0.10721511804056541
5.1337759999999975,7.83890516974627,0.10714580757055743
5.136212,7.83499730776779,0.10700939850289323
5.138655999999997,7.829227114669754,0.10688664679577098
