Time,Force,Position
7.462843999999999,0.008104450945472193,0.0
7.465223999999999,0.010913955618107951,0.0
7.46762,0.01091395561810795,0.0
7.470011999999999,0.010478638744226521,0.0
7.472391999999999,0.009251925937426983,0.0
7.474791999999999,0.009251925937426984,0.0
7.477179999999999,0.009251925937426984,0.0
7.479559999999999,0.009251925937426984,0.0
7.481959999999999,0.009251925937426984,0.0
7.484344,0.008025213130627444,0.0
7.486727999999999,0.006007104390909795,0.0
7.489132,0.006007104390909795,0.0
7.491519999999999,0.006007104390909795,0.0
7.493903999999999,0.006007104390909795,0.0
7.496307999999999,0.006007104390909795,0.0
7.498695999999999,0.006007104390909795,0.0
7.501075999999999,0.006007104390909796,0.0
7.503471999999999,0.008676839436685345,0.0
7.50586,0.010275639295822363,0.0
7.508239999999999,0.008676839436685345,0.0
7.510639999999999,0.007745673876907024,0.0
7.513028,0.005464033876769752,0.0
7.515407999999999,0.011998200788518792,0.0
7.517804,0.015459331767212451,0.0
7.520192,0.020922563492322965,0.0
7.522572,0.027456730404072004,0.0
7.524972,0.035992998062237894,0.0
7.52736,0.044808804974124206,0.0
7.52974,0.05562671263242737,0.0
7.532135999999999,0.06830695141028717,0.0
7.534523999999999,0.08191835574792529,0.0
7.536904,0.09459859452578509,0.0
7.539308,0.10434556699744972,0.0
7.541696,0.11595487058867099,0.0
7.544079999999999,0.12877487899339102,0.0
7.546476,0.14252605295788934,0.0
7.548864,0.15520629173574912,0.0
7.551247999999999,0.16307492509455632,0.0
7.553644,0.17015216252044546,0.0
7.556032,0.17868843017861136,0.0
7.558411999999999,0.1845549627910017,0.0
7.560812,0.1907010346571125,0.0
7.5632,0.1879075379777775,0.0
7.565579999999999,0.19205150909747143,0.0
7.567979999999999,0.19419337947074852,0.0
7.570368,0.1932622139109702,0.0
7.572747999999999,0.1924708179780521,0.0
7.575147999999999,0.19233104835119189,0.0
7.577536,0.19126011316455335,0.0
7.579915999999999,0.18739568129857986,0.0
7.582315999999999,0.18488172387296536,0.0
7.584704,0.1842300975669074,0.0
7.587083999999999,0.18651173756704467,0.0
7.589483999999999,0.18613965051470716,0.0
7.591871999999999,0.1834859234622324,0.0
7.594251999999999,0.1799010308499793,0.0
7.596648,0.17738707342436477,0.0
7.599036,0.17729452562574768,0.0
7.601412,0.17785360413318854,0.0
7.603807999999999,0.17669012114793295,0.0
7.606192,0.17459547260289904,0.0
7.608568,0.17007941443086766,0.0
7.610984,0.16849662256503142,0.0
7.613367999999999,0.16505149957963858,0.0
7.615748,0.15839357103433013,0.0
7.618152,0.15466890879521683,0.0
7.620535999999999,0.14692403706996904,0.0
7.622919999999999,0.13824799978494295,0.0
7.62532,0.12850102731327834,0.0
7.627708,0.11968522040139203,0.0
7.630087999999999,0.10858777348936845,0.0
7.632484,0.09655916101756654,0.0
7.634872,0.08575726135256417,0.0
7.637252,0.07667792318025822,0.0
7.639643999999999,0.06666741944817399,0.0
7.642031999999999,0.05650113809592873,0.0
7.644408,0.04633485674368347,0.0
7.646823999999999,0.035889036137717774,0.0
7.649212,0.026809697965411838,0.0
7.651591999999999,0.022525957218857716,0.0
7.653995999999999,0.022106648338277083,0.0
7.656383999999999,0.027181785017749316,0.0
7.658764,0.0303945905776649,0.0
7.661159999999999,0.027740863525190153,0.0
7.663544,0.03151274759254659,0.0
7.665923999999999,0.034493235726984914,0.0
7.66832,0.03935206297428068,0.0
7.670707999999999,0.04514205578135476,0.0
7.673103999999999,0.05093204858842884,0.0
7.675507999999999,0.053649005462447545,0.0
7.677892,0.05715735826938435,0.0
7.680271999999999,0.05717336626268515,0.0
7.682668,0.05594665345588561,0.0
7.685051999999999,0.053788775089307746,0.0
7.687431999999999,0.053632997469146744,0.0
7.68984,0.053632997469146744,0.0
7.692223999999999,0.053632997469146744,0.0
7.694604,0.053632997469146744,0.0
7.697008,0.053477219848985735,0.0
7.699396,0.050388175922629556,0.0
7.701775999999999,0.04636796643649505,0.0
7.704179999999999,0.03913495139044496,0.0
7.706564,0.03376426746395152,0.0
7.708947999999999,0.03225801540343155,0.0
7.711343999999999,0.027538957782996,0.0
7.713728,0.022680130535700237,0.0
7.716111999999999,0.017821303288404474,0.0
7.718503999999999,0.012031310481330392,0.0
7.720891999999999,0.006241317674256309,0.0
7.723276,0.0035243608002376086,0.0
7.725671999999999,1.600799330079788e-05,0.0
7.728059999999999,0.0,0.0
7.730435999999999,0.0006676342993586977,0.0
7.732839999999999,0.005199700464690888,0.0
7.735227999999999,0.015738068869273633,0.0
7.737608,0.026276437273856375,0.0
7.740012,0.03974807198463429,0.0
7.7424,0.05242831076249409,0.0
7.744776,0.06496877991349367,0.0
7.74718,0.0747157523851583,0.0
7.749568,0.08432295522996273,0.0
7.751944,0.09406992770162736,0.0
7.754348,0.10209433868059557,0.0
7.756736,0.1078371096594265,0.0
7.759115999999999,0.10943590951856351,0.0
7.761512,0.11275727087039696,0.0
7.763895999999999,0.1160786322222304,0.0
7.766275999999999,0.12154186394734091,0.0
7.76868,0.12914696604572848,0.0
7.771068,0.13596067221119795,0.0
7.773448,0.1427743783766674,0.0
7.775851999999999,0.1505192501019152,0.0
7.778236,0.15745671790094412,0.0
7.780619999999999,0.15866742271444287,0.0
7.783023999999999,0.15107832860935608,0.0
7.785408,0.14348923450426931,0.0
7.787792,0.1318959389063488,0.0
7.790191999999999,0.12188543517426453,0.0
7.792579999999999,0.11015236994948384,0.0
7.79496,0.10214396696381645,0.0
7.797355999999999,0.0961376647245659,0.0
7.799743999999999,0.09092275841823345,0.0
7.802123999999999,0.08850134879123599,0.0
7.804527999999999,0.09357648547070821,0.0
7.806915999999999,0.10307513252359478,0.0
7.809299999999999,0.11206192289728366,0.0
7.811695999999999,0.119977778084334,0.0
7.814083999999999,0.1265431588310254,0.0
7.816464,0.12868502920430247,0.0
7.818859999999999,0.12933665551036033,0.0
7.821244,0.1255647714430039,0.0
7.823627999999999,0.1225842833085656,0.0
7.826024,0.12239729185346225,0.0
7.828408,0.12123191301033741,0.0
7.830791999999999,0.12095047789874776,0.0
7.833195999999999,0.1196906553991366,0.0
7.835583999999999,0.12066525107141961,0.0
7.837968,0.12280332972895817,0.0
7.840363999999999,0.1326230502902006,0.0
7.842751999999999,0.14490950644881434,0.0
7.845131999999999,0.15514664003276818,0.0
7.847531999999999,0.1666398044005946,0.0
7.849919999999999,0.18032016511207202,0.0
7.8523,0.19097281586086795,0.0
7.854695999999999,0.2033933540727342,0.0
7.857083999999999,0.21557967900125397,0.0
7.859463999999999,0.23167576176612115,0.0
7.86186,0.25196114162105615,0.0
7.864248,0.2773669841258373,0.0
7.866627999999999,0.3108265555866597,0.010692492811120316
7.869024,0.3554128919365789,0.02073257317135361
7.871411999999999,0.3991133886970936,0.03123113115296327
7.873792,0.44285921142798224,0.0418616300596002
7.876192,0.49749948162249025,0.05168313056913605
7.878575999999999,0.5587504585340637,0.061374335409822164
7.880975999999999,0.6268916814164227,0.07077006233491412
7.883372,0.6976394095230135,0.08016836094807601
7.885759999999999,0.7711334124806959,0.08948570604092676
7.88814,0.839505056930663,0.09913009140208462
7.890535999999999,0.9063864573134109,0.10893202808575495
7.892923999999999,0.9781560029205278,0.11863775398573506
7.895303999999999,1.0547211459533967,0.12801310865458082
7.897699999999999,1.1316583760386028,0.137422605455718
7.900088,1.2121804987360618,0.14667577597119738
7.902471999999999,1.298149845165331,0.15570237877106477
7.904867999999999,1.3867729186470745,0.1647692160146266
7.907256,1.482333459927847,0.17347185922873978
7.909635999999999,1.577474692328039,0.18217337770073516
7.912039999999999,1.678342687713761,0.1906582650464121
7.914423999999999,1.7790709134726228,0.18839621267814688
7.916803999999999,1.878728204044846,0.18673629004857406
7.9192,1.9862541279758765,0.18442817544037798
7.921583999999999,2.0957821526533236,0.18198400959260996
7.923964,2.2008866669573566,0.18039510238925524
7.926356,2.310926548314001,0.17874252515651906
7.928739999999999,2.421618055976704,0.17732753041450375
7.93112,2.5358944562516603,0.17584372042780433
7.933515999999999,2.651102022086395,0.17441760975845613
7.9359,2.7752491564665744,0.17251455420674022
7.938279999999999,2.905123053832285,0.17037677558924968
7.940692,3.0368592823175518,0.16829842923697969
7.94308,3.1671052667355992,0.16654996929730234
7.945459999999999,3.2993533519000633,0.16475476118312932
7.947856,3.430250962624169,0.16314848698415946
7.950239999999999,3.558075537415219,0.16180017303439723
7.95262,3.6905559400051606,0.16034998737321224
7.955031999999999,3.816470961848411,0.1593362982231295
7.957419999999999,3.945831106677055,0.15828612086287633
7.959795999999999,4.071838676318922,0.15747286485630094
7.962192,4.200220433759544,0.1566787977537663
7.964575999999999,4.33083660937206,0.1559117585227646
7.966956,4.457401361663499,0.1553932080097415
7.969351999999999,4.587783323992668,0.15485784255671786
7.971739999999999,4.724915762665763,0.15422415190838212
7.974119999999999,4.861721440256894,0.15376016068704848
7.976531999999999,4.997920817512342,0.15341157671533234
7.978919999999999,5.133933203312686,0.1531522315499738
7.981299999999999,5.274274655829957,0.15289396726647467
7.983696,5.41051746319791,0.1528627887671341
7.986079999999999,5.547596992469155,0.15293218600674663
7.98846,5.689657214763387,0.15300346814610521
7.990876,5.836558360453743,0.15307081885366436
7.993259999999999,5.991093926219563,0.15310073373065947
7.99564,6.155405782434119,0.15303916064538223
7.998056,6.328842302791356,0.15288956909280024
8.00044,6.506328350611799,0.15277279669262753
8.00282,6.69494116332134,0.15252863708886177
8.005212,6.88709164681489,0.15230158241751274
8.0076,7.085014219264345,0.15205861826324088
8.009979999999999,7.287126088803868,0.1518335201691866
8.012395999999999,7.491564924313902,0.15164013862166587
8.01478,7.703545632100781,0.15137159840229328
8.017159999999999,7.91827261473875,0.15111757370053205
8.019563999999999,8.132021209988697,0.15092753108225046
8.021948,8.346141892290984,0.15076278204617413
8.024327999999999,8.568270977578935,0.15048648829618216
8.026724,8.795195660292643,0.1501574412503612
8.029112,9.020258011886789,0.1498596079941879
8.031492,9.251234117921571,0.14944997036573993
8.033895999999999,9.482397215411453,0.1490071599608605
8.03628,9.711745203610022,0.1485774081620725
8.03866,9.940908096211356,0.14811731389952426
8.041056,10.163879590976206,0.14770476142482178
8.043439999999999,10.37721456491918,0.147361844412479
8.045819999999999,10.58449791065253,0.14705979958218524
8.048236,10.786009167429976,0.14677837232162574
8.050619999999999,10.9780236730124,0.14655392252644764
8.052999999999999,11.163195154452286,0.14635613097837838
8.055408,11.344783639137782,0.14612054922596096
8.057792,11.517434451135708,0.1459098283328038
8.060172,11.687293662312163,0.14565807676370782
8.062567999999999,11.850496840801183,0.14540428702287383
8.064955999999999,12.008254691416258,0.14513063785871155
8.067336,12.161358610090314,0.1448298480895003
8.06974,12.310599992756266,0.144502531827388
8.072123999999999,12.450484393854062,0.1442185197418591
8.074504,12.584084849316756,0.14394339864667893
8.076908,12.717267891756736,0.14362235968639314
8.079296,12.845610010800591,0.1433098213019609
8.081676,12.970833767941018,0.14299126180710295
8.084071999999999,13.094010098364656,0.1426595373544196
8.086456,13.211786426884725,0.14234960867063157
8.088835999999999,13.325233688687863,0.14204478916953578
8.091239999999999,13.441149581946245,0.14169382922791643
8.093627999999999,13.550454768487562,0.1413728327505612
8.096008,13.656362053871728,0.14105169504772314
8.098412,13.764458431457417,0.1406940922182474
8.1008,13.87250948307273,0.14030233166808534
8.10318,13.975532619836812,0.13993806853957882
8.105583999999999,14.078742748056001,0.13955139440362133
8.107972,14.175202399931262,0.13919890584549513
8.110348,14.268636237701712,0.1388554976998668
8.112739999999999,14.359044261367348,0.13852202639540542
8.115127999999999,14.447916714995394,0.13817704573415626
8.117507999999999,14.53204079302593,0.13784870365513271
8.1199,14.611835804339536,0.13752409586232525
8.122288,14.688512453749714,0.1371922922080668
8.124668,14.75685583495013,0.1368956932296917
8.12708,14.817425026448225,0.13661837642331917
8.129468,14.874363999363695,0.13632723477222353
8.131848,14.920455746643784,0.13607819403279234
8.134252,14.960635635341111,0.1358352087917125
8.136636,14.999327175829087,0.13555824339700434
8.139016,15.027683347360888,0.13532715883399227
8.141416,15.056413501802895,0.1350504432820471
8.143804,15.08323599915497,0.1347507526071294
8.146184,15.097069400498393,0.1345080602411614
8.148584,15.102941620684394,0.13430383382702105
8.150972,15.10634710527302,0.13408964768492512
8.153352,15.106354688704497,0.13387101061193393
8.155756,15.103755766911744,0.13364531732545526
8.158144,15.09654823914834,0.13342703168081982
8.160523999999999,15.084312796533709,0.1332266777062654
8.162927999999999,15.066350590933546,0.13306178103905916
8.165312,15.044943262347989,0.1329109567842818
8.167691999999999,15.024886408202793,0.13274400602909936
8.170096,14.997892086258567,0.13262448198640714
8.172483999999999,14.969454742075364,0.132504692789692
8.174864,14.94273995938486,0.13237737875380107
8.177264,14.909739335201385,0.13229921885035315
8.179651999999999,14.879252668443526,0.1322121054732893
8.182032,14.848998319111141,0.1321372858068531
8.184436,14.81948814388343,0.1320794680047268
8.186819999999999,14.795425192387532,0.13199326781508794
8.189204,14.773968746115864,0.1319137381336932
8.1916,14.753116704322013,0.13185502773360377
8.193988,14.742227944431999,0.131745978853537
8.196368,14.736506869020076,0.131616153223316
8.198763999999999,14.729947175846991,0.13150735202560887
8.201148,14.724131656778583,0.1314163175926566
8.203527999999999,14.72520638368096,0.13129812737658686
8.205928,14.734941139875062,0.13112740479175858
8.208316,14.750123119800975,0.13092992249120372
8.210695999999999,14.767958826779363,0.1307202785520465
8.213099999999999,14.791381527116421,0.13048049423628708
8.215484,14.808518385960507,0.1302882654254242
8.217863999999999,14.831382007790124,0.13006145400843733
8.220267999999999,14.856480047791635,0.1298331470582266
8.222655999999999,14.882229714099202,0.12960747420490704
8.225036,14.915568474511854,0.12933750483870884
8.227432,14.950117939738009,0.12905577345268776
8.22982,14.984574857165548,0.12875781690483748
8.232199999999999,15.013444781234414,0.1284900380373531
8.234604,15.039800747877667,0.12823127718934743
8.236991999999999,15.061920195602605,0.1279883895405068
8.239372,15.082736390715432,0.12774231825473195
8.241776,15.09703442690981,0.12753171618512912
8.244159999999999,15.108166879372513,0.1273273316930337
8.24654,15.122651907021995,0.12709449128295555
8.248944,15.138115322059496,0.1268380401977257
8.251327999999999,15.149202448551826,0.12660056341867482
8.253708,15.151722093551047,0.12643041227368573
8.256112,15.151448241870934,0.12627518473370006
8.258496,15.155737670191096,0.12608088944027984
8.260876,15.15444010515259,0.12591531899711614
8.26328,15.163292813473026,0.12568196042976956
8.265668,15.175218557726518,0.12542891698952485
8.268048,15.190357107539924,0.1251525627167302
8.270444,15.20577519660705,0.12487025648910328
8.272827999999999,15.220541659368122,0.12458741057402796
8.275208,15.237170453248748,0.12429632445751512
8.277612,15.258827161980603,0.12399228359028872
8.279995999999999,15.288632043324988,0.12363595396553578
8.282376,15.319879946908346,0.12328105106240249
8.28478,15.35271064235754,0.12292438584818906
8.287168,15.384330632993237,0.12257915408607054
8.289548,15.422748321801102,0.12219688870412836
8.291952,15.466613234340779,0.12179273908281546
8.294336,15.510338377253593,0.12139425441071738
8.296716,15.550431405725911,0.12102912232829949
8.29912,15.59038466457137,0.12066809869284861
8.301508,15.631828167484047,0.12028875915206753
8.303887999999999,15.672200735210087,0.11991736421845829
8.306292,15.707218627002934,0.1195861782921962
8.308676,15.745821411408034,0.11924081095749509
8.31106,15.777207188760386,0.11894370631570575
8.313455999999999,15.802446894246623,0.11868643580162744
8.31584,15.824893103053526,0.11844318444781025
8.31822,15.845476980740873,0.11820894061129321
8.320623999999999,15.861777117681665,0.11800489777946392
8.323008,15.876866549808959,0.11781230124985108
8.325388,15.885437823017806,0.11764925372358687
8.327784,15.890656521039876,0.11751226800658396
8.330167999999999,15.892569865703418,0.11738208541850123
8.332552,15.8908983177547,0.11726510297213365
8.334947999999999,15.890577244246344,0.11713436526647715
8.337332,15.88480894700618,0.11702517784594549
8.339711999999999,15.875595526780621,0.11692598410672507
8.34212,15.859863947636615,0.1168549543426146
8.344503999999999,15.850697749239304,0.11673735666002345
8.346884,15.838738054162654,0.11663164017186237
8.349283999999999,15.827849294272639,0.11651859533112974
8.351671999999999,15.81602936882285,0.1164094027424978
8.354052,15.806351313746337,0.11628575223148657
8.356451999999999,15.796021632363766,0.11615972886830843
8.358839999999999,15.783177993555581,0.1160389751921061
8.36122,15.772476225120673,0.11590367734954532
8.363615999999999,15.761494917432044,0.1157747011541475
8.366007999999999,15.748092200116417,0.11566628691345388
8.368388,15.739764619480262,0.11552828897965518
8.370783999999999,15.729714477351411,0.1153950377434058
8.373168,15.721526666342118,0.11525356073763103
8.375563999999999,15.711476524213268,0.11512002766161011
8.37796,15.70608220988331,0.11496653824041032
8.380348,15.703341622605826,0.11480411485236626
8.382728,15.70097312238068,0.11465063744674812
8.385131999999999,15.702189514767786,0.11448469434702371
8.38752,15.699913562341257,0.11434627753640104
8.389899999999999,15.703224603273398,0.11418395920263892
8.392296,15.69810793233929,0.11407551100333758
8.394684,15.697647089204073,0.1139474287726623
8.397064,15.694113210135802,0.11383731637055262
8.39946,15.69151049662731,0.11372312366058196
8.401843999999999,15.689699179051733,0.11360844230546457
8.40424,15.68681692628952,0.11350080720624472
8.40664,15.69324632912509,0.11335451905643952
8.409028,15.701677832707075,0.11319775780134247
8.411408,15.708386774796365,0.11304543420030189
8.413812,15.721241788751765,0.11285753379609773
8.416196,15.729161435654555,0.11269544002540076
8.418576,15.738152017743984,0.11252647500414296
8.420971999999999,15.752217736512884,0.11232976249480384
8.423356,15.763350188975586,0.11214697602219674
8.425735999999999,15.773271936624791,0.11197489420978485
8.428139999999999,15.784264619460636,0.11179621459928339
8.430524,15.792743344870866,0.11162249399777484
8.432903999999999,15.79800926472118,0.11146967315150676
8.4353,15.807698694944907,0.11128613575819911
8.437683999999999,15.815386024422219,0.11111335076226475
8.440064,15.826006620205725,0.11092563393238727
8.442459999999999,15.831691848936618,0.11076289663775085
8.444847999999999,15.84031034397371,0.11058560143827645
8.447227999999999,15.848137443077883,0.11040867216160348
8.449639999999999,15.848095908823247,0.11027081851064624
8.452027999999999,15.84977693606131,0.11012871853302099
8.454407999999999,15.847593531433398,0.11000516535590799
8.456812,15.841405925312653,0.1099026787387568
8.4592,15.836940880684603,0.1097958649565918
8.46158,15.831544670496774,0.10969296179527963
8.463984,15.828010791428502,0.10958266934219915
8.466372,15.821264106800314,0.10949256523502393
8.468752,15.808511119932877,0.10943361251018591
8.471155999999999,15.803766536051107,0.10933317133552933
8.47354,15.795157520303365,0.10925020196585984
8.475924,15.785337799742122,0.10917706733635563
8.478328,15.776961101419854,0.10910603077229553
8.480711999999999,15.770586503844005,0.10902465255730157
8.483092,15.763932367014434,0.10894952925670504
8.485488,15.758069626117782,0.10887390797139126
8.487876,15.754488525221268,0.10878181309503418
8.490255999999999,15.755842791377363,0.1086656972796628
8.492659999999999,15.758919619026159,0.10854583081626407
8.495047999999999,15.764789943354288,0.10841541646143538
8.497428,15.777457965854584,0.10825358510173812
8.499824,15.78905505316824,0.10809863647240055
