Time,Force,Position
10.434319999999998,0.09362447135336159,0.0
10.436704,0.09925868654027466,0.0
10.439084,0.10261126172705046,0.0
10.441484,0.10954872952607933,0.0
10.443872,0.11383247027263346,0.0
10.446248,0.11855419751785161,0.0
10.448655999999998,0.12055629826426846,0.0
10.45104,0.11704527583254906,0.0
10.453424,0.1115321526544128,0.0
10.45582,0.10401692872985968,0.0
10.458208,0.09850380555172342,0.0
10.460588,0.094992783120004,0.0
10.462984,0.09041082550164606,0.0
10.465368,0.08475793269664958,0.0
10.467764,0.08003620545143142,0.0
10.470159999999998,0.07596610451227118,0.0
10.472547999999998,0.06989390282669407,0.0
10.474932,0.06582380188753383,0.0
10.477327999999998,0.0604032265080146,0.0
10.479715999999998,0.05004728407588337,0.0
10.482096,0.04076227683039067,0.0
10.4845,0.03068587365197987,0.0
10.486888,0.021820175287067797,0.0
10.489268,0.013234016175876146,0.0
10.491663999999998,0.00744135374401946,0.0
10.494051999999998,0.002719626498801304,0.0
10.496432,0.0,0.0
10.498836,0.0015089216853025633,0.0
10.501224,0.001508921685302563,0.0
10.503604,0.001508921685302563,0.0
10.506008,0.0015089216853025633,0.0
10.508396,0.0015089216853025633,0.0
10.510775999999998,0.0015089216853025633,0.0
10.513168,0.0020866778108268053,0.0
10.515555999999998,0.004806304309628109,0.0
10.517936,0.004806304309628109,0.0
10.52034,0.006035686741210251,0.0
10.522728,0.009406939546069457,0.0
10.525108,0.015851228283984043,0.0
10.527504,0.023086912954816734,0.0
10.529891999999998,0.028320496879232583,0.0
10.532272,0.033554080803648426,0.0
10.534676,0.03864789510120406,0.0
10.53706,0.04267077421212116,0.0
10.53944,0.045343178882679316,0.0
10.541844,0.045343178882679316,0.0
10.544232,0.045343178882679316,0.0
10.546615999999998,0.043834257197376755,0.0
10.549008,0.04501641780071575,0.0
10.551396,0.04736206138931033,0.0
10.553776,0.05059164870944008,0.0
10.556171999999998,0.05721913718671954,0.0
10.558559999999998,0.07041011055282115,0.0
10.56094,0.09210077010783521,0.0
10.563335999999998,0.119469074962267,0.0
10.565724,0.16147327127964567,0.008019154661589235
10.56812,0.21048501386084842,0.01678467863029922
10.570516,0.26926925517505035,0.025908043780307845
10.572904,0.33763900376714817,0.03542337516579948
10.575283999999998,0.4243468367274843,0.04486009052099227
10.57768,0.5329304248400686,0.05434276961980693
10.580068,0.6655769644485521,0.06378974507878282
10.582448,0.8262434352175253,0.07312386094955647
10.584848,1.0235426446104705,0.08216679133929258
10.587231999999998,1.2596164630006643,0.0909557199898509
10.589616,1.5362986772975038,0.09957016783668392
10.59202,1.8493340909645952,0.10806991579021717
10.594408,2.197419451389822,0.11647785038556364
10.596783999999998,2.5820735468505633,0.12473744095788522
10.599192,3.000801097539288,0.1328996886467398
10.601576,3.4499246630451257,0.14100673831268587
10.603955999999998,3.9239044718376515,0.14908010676900252
10.60636,4.416409356453519,0.1571427066482815
10.608748,4.919617905362163,0.16524489174936535
10.611128,5.433624562220073,0.1733772836346688
10.613532,5.958104461803154,0.1734551033377796
10.615916,6.49971742851458,0.17269766848840018
10.6183,7.050689272652034,0.17152441971523963
10.620696,7.6121853730586375,0.16986613605237103
10.623084,8.171915481860042,0.1682321374364105
10.625464,8.732255682712868,0.1664485935839801
10.62786,9.284967151063842,0.16460123829124623
10.630248,9.820553135717946,0.1627957226438952
10.632628,10.325000827308129,0.16123475624848624
10.635024,10.793282310983164,0.15989272916279876
10.637408,11.222371772638239,0.15870231264475035
10.639788,11.611989673019634,0.1576169043996798
10.642184,11.964090891045522,0.15661471029363358
10.644567999999998,12.273692837835048,0.15577741828356514
10.646948,12.543821327493022,0.155059392837165
10.649344,12.784811728975626,0.15437508110572903
10.651732,12.998851238626509,0.15372679289878366
10.654112,13.189757066483402,0.15309277030802496
10.656528,13.366421559263507,0.15239984898948944
10.658916,13.5302877392058,0.15164996458576394
10.661295999999998,13.676792326310007,0.15091181442549495
10.6637,13.798578543896515,0.1502637478574745
10.666084,13.90137315495086,0.14964927557213295
10.668463999999998,13.980892418726485,0.14911137874398703
10.670872,14.038579357462368,0.14863574214970673
10.673256,14.073455583770489,0.14825103727732952
10.675636,14.087428754740769,0.14797382327548592
10.67804,14.089111677836698,0.147752219864242
10.680428,14.082134571640903,0.14759823917376047
10.682808,14.073247912497306,0.14747806717556783
10.685204,14.064546348950946,0.14739126963110757
10.687592,14.064130831786107,0.14728654841190586
10.689972,14.070930425816144,0.1471747843900447
10.692376,14.090160037347394,0.14700813769974735
10.69476,14.122518514514159,0.14676834305980857
10.69714,14.158042575412594,0.1465206421108048
10.699536,14.19519665000511,0.14624865837764145
10.701924,14.234679586426006,0.1459343982247187
10.704304,14.272115096130113,0.14560336306869118
10.7067,14.304709682438093,0.1452735814794306
10.709088,14.328319374230253,0.1449786141433184
10.711467999999998,14.352395596731235,0.14465321210438364
10.713868,14.37288692661997,0.14434929219428785
10.716252,14.3921675516952,0.14405895888063527
10.718632,14.418338422741217,0.14373440793954748
10.721036,14.44432230233213,0.1434326938809962
10.723424,14.473331996027856,0.14312372301388676
10.725808,14.50136330233556,0.14284044125360254
10.728204,14.531396709389682,0.14253913687861827
10.730592,14.558916159018189,0.14224801161740278
10.732971999999998,14.587413996034716,0.14193007204189248
10.735376,14.607346247416006,0.14163601957139507
10.73776,14.615547329430385,0.14137411440014822
10.740139999999998,14.611225846144935,0.1411475865077845
10.742548,14.594381797559656,0.14095558239335593
10.744932,14.566178666659802,0.1408036525753594
10.747316,14.530852972363686,0.14067213688441219
10.749719999999998,14.488916571350503,0.14056545542684776
10.752104,14.440089924366534,0.14049090735645214
10.754488,14.385536514397035,0.1404558648740402
10.756884,14.335266845174091,0.14038069010112103
10.759272,14.280201578525395,0.14033852318137183
10.761652,14.226906095197638,0.14026619500202503
10.764048,14.173238524817542,0.14018399283633487
10.766436,14.115474205145997,0.1401152354631469
10.768816,14.059479668795392,0.1400171816509996
10.771219999999998,14.006046311698642,0.13988694285621295
10.773608,13.951449471616641,0.13974965685352433
10.775988,13.899274041161634,0.13958400194847426
10.778387999999998,13.849240481079905,0.13939803302573583
10.780772,13.799346690625036,0.13920688844288961
10.783152,13.750616383155423,0.13902203081784742
10.785552,13.711430048709072,0.1387887563734006
10.78794,13.67429114097951,0.13857669029154088
10.79032,13.637849185526381,0.13840371256534417
10.792723999999998,13.608529793469515,0.13820992175402655
10.795111999999998,13.586332964808909,0.13799534904399316
10.797492,13.565252397305317,0.13780872558072707
10.799896,13.548361126891793,0.1376238959053256
10.802283999999998,13.538220332822194,0.13740894354363103
10.804664,13.529475339163328,0.13721481128715374
10.807059999999998,13.524128246661611,0.13702475740962972
10.809447999999998,13.518174853824211,0.1368716884911297
10.811828,13.512686095837768,0.13674534324754958
10.814224,13.509803843075554,0.13662575810312347
10.816612,13.506594829231378,0.1365353046837745
10.818992,13.501336492812541,0.13648242423243667
10.821388,13.50240932385705,0.13641196788217416
10.823776,13.50515749456601,0.1363548063877426
10.826156,13.512002414566423,0.13628320539270983
10.828559999999998,13.520662443858146,0.13622117056694502
10.830948,13.531556891321767,0.1361565769734266
10.833328,13.541612721024226,0.1361159066899766
10.835727999999998,13.557535083339072,0.13603160070407302
10.838112,13.579463747893174,0.1358997574992301
10.840496,13.601671951700993,0.13576081131137538
10.842899999999998,13.6201554932697,0.1356461264813069
10.845287999999998,13.64306254521182,0.13548880388967804
10.847668,13.66573727972846,0.13531848134790475
10.850063999999998,13.689622719058603,0.13513600040172172
10.852451999999998,13.710994200963128,0.13496355708165678
10.854832,13.734787092494653,0.134764528760433
10.857228,13.760861624026317,0.13454295206973707
10.859616,13.79229083149117,0.13427423781499373
10.861996,13.824930743769524,0.13399330742965126
10.864396,13.862645792727351,0.1336734196495631
10.86678,13.90422527355115,0.13332776068802243
10.869164,13.946224063255531,0.13297331063275492
10.87156,13.988502392213631,0.13261324649005785
10.873948,14.026776519678899,0.13228423738124367
10.876332,14.064399020838108,0.131954692410708
10.878728,14.10681711942307,0.13159568623930612
10.881116,14.152587793194805,0.13120848742019836
10.883511999999998,14.197287531779903,0.1308330388652697
10.885908,14.240776565551503,0.13047271720710182
10.888296,14.28463768637544,0.1301231744249928
10.890676,14.334365339811766,0.12973647025489213
10.893071999999998,14.383813453994374,0.12936028141146183
10.895456,14.434285281535375,0.12899648488848364
10.897836,14.486339900942212,0.12863345555181635
10.900239999999998,14.54426105296144,0.12823459138340904
10.902627999999998,14.605906867219783,0.12781968210665529
10.905008,14.664339875918206,0.12743140668416947
10.907403999999998,14.720631014243356,0.12706369114665067
10.909791999999998,14.77850494443434,0.12669590043451756
10.912172,14.833026299438552,0.12635917063804167
10.914571999999998,14.884614388136566,0.12604210505581323
10.916956,14.934200376088164,0.1257402677352984
10.919351999999998,14.982575659226265,0.12545160601364644
10.921748,15.036817474976752,0.12512851647387896
10.924136,15.09185068666016,0.12480564608190882
10.926516,15.142228070544675,0.12450893858057985
10.92892,15.186878691443662,0.12424626290395228
10.931308,15.231808851596368,0.12397846773088701
10.933687999999998,15.27329388876368,0.12372295325382639
10.936084,15.314546608505516,0.12345632373212846
10.938472,15.348070464515404,0.12323483995579682
10.940851999999998,15.37828896716676,0.12302270245176386
10.943252,15.40748375645972,0.12280015248819139
10.94564,15.429368990901315,0.12261173604084795
10.948019999999998,15.446877936797737,0.12244078852797718
10.95042,15.456146162283016,0.1223079168280979
10.952808,15.470908833328346,0.12213303254528791
10.955187999999998,15.483157546948062,0.12196527082822037
10.957584,15.488376244970134,0.1218234260871645
10.959972,15.493921704074168,0.1216563757111678
10.962352,15.498024140939227,0.12148811681189728
10.964756,15.500543785938449,0.12132220672064699
10.967144,15.502970883139053,0.12114106648787891
10.969523999999998,15.503163562167765,0.12096084766688128
10.97192,15.500982053397722,0.12078401718132645
10.974308,15.49935962313512,0.12059411830381965
10.976688,15.49680602731274,0.1204082905669844
10.979088,15.489317064437747,0.12025068309015338
10.981471999999998,15.484761367868948,0.12007670436041777
10.983856,15.479134736113513,0.11991045318140651
10.986252,15.47830370178383,0.11971929320828543
10.988639999999998,15.4798468552529,0.11952527218823203
10.99102,15.48031907353533,0.11933883345882534
10.99342,15.484515954056874,0.11913510457219005
10.995803999999998,15.484940950511065,0.11896691182782636
10.9982,15.487740134764007,0.11879542350379682
11.000596,15.485324412710618,0.11865885861770123
11.00298,15.482489381776647,0.11853200573537995
11.005363999999998,15.485101574574488,0.11838269198331691
11.007768,15.489808415917361,0.11823748021070293
11.010152,15.499962480992043,0.1180705557724043
11.012536,15.509976776439865,0.11790682214068651
11.014932,15.521154554872943,0.11775149106973458
11.01732,15.52669811811911,0.11763990907058734
11.019704,15.53382447323111,0.11752662704195983
11.0221,15.540391749835674,0.11742648610750622
11.024488,15.549752523119565,0.1173139145673307
11.026868,15.56605076420249,0.11716292849433
11.029264,15.582349005285415,0.11701249243966025
11.031656,15.59943864230126,0.11686156113315228
11.034036,15.613734782637767,0.1167231958000316
11.036432,15.624725569615743,0.1165916409520759
11.03882,15.636787291780355,0.11645294406011475
11.041199999999998,15.645403890959578,0.11632400601624292
11.043604,15.659934244579432,0.1161459025795667
11.045988,15.673580654467752,0.11595336192880572
11.048372,15.68792591249037,0.11574472885417926
11.050768,15.703249557901014,0.11551355262588188
11.053152,15.715407619579981,0.11528595889484278
11.055532,15.718673334541746,0.11508845591818062
11.057932,15.715188573159587,0.11490699846925424
11.060315999999998,15.713194055844646,0.1147086797138897
11.062699999999998,15.7052404581187,0.11452505828332342
11.065096,15.698405017407635,0.11431507210832105
11.067484,15.690406093711314,0.11409695085394146
11.069864,15.678450190350402,0.11388202936799373
11.072264,15.66146637213826,0.11367759030500556
11.074652,15.635590207208915,0.1135027121178959
11.077048,15.606408688921041,0.11333350992634668
11.079444,15.574061586901491,0.11316671629943598
11.081828,15.541621937083326,0.11298386726689494
11.084212,15.511463927265297,0.11278287003974982
11.086608,15.48130591744727,0.11258151441057065
11.088996,15.454081173935435,0.11236472027993283
11.091376,15.42271245930391,0.11217264556923645
11.093776,15.390924435791801,0.11198957009363326
11.096164,15.359788038585751,0.11180857018289853
11.098544,15.327440936566205,0.1116371632741566
11.100948,15.295745460852713,0.11146779472712538
11.103336,15.272290705550368,0.11126669388668815
11.10572,15.251070368419915,0.11106644174675176
11.108116,15.23171236240902,0.11085844358551891
11.110504,15.217941349756792,0.11062723899913288
11.112884,15.204402654530046,0.11040781048254242
11.11528,15.18858231930316,0.11020514269432435
11.117668,15.176346876688527,0.10998993766987678
11.120052,15.169558657805705,0.10975488192985203
11.122448,15.16765858414725,0.10951272981997037
11.124836,15.169203633474192,0.10926191982995351
11.127216,15.171120769853468,0.1090198014557995
11.129612,15.173409993285084,0.10878682264227814
11.132,15.170204771156644,0.10859170131844555
11.134384,15.164345821975731,0.1084043277422028
11.13678,15.157555707235039,0.10822063149126653
11.139168,15.14969465730771,0.10804347807533896
11.141552,15.142904542567019,0.10785904500178586
11.143948,15.132389765587213,0.10768916077610811
11.146336,15.124388946033022,0.10751454511673318
11.148716,15.115456960919053,0.10734336479677936
11.15112,15.10359170949889,0.10718658182722808
11.153508,15.090935062145808,0.10702992790698596
11.155892,15.073063508486394,0.10690454814516005
11.158288,15.053981250013479,0.10678916241951526
11.160676,15.039834358593179,0.10664895351325003
11.163056,15.028061654971632,0.10650739161658064
11.165459999999998,15.021736175081896,0.1063476476298643
11.167844,15.012709746311442,0.1062145457188048
11.170228,15.005685418287403,0.10607116638067662
11.172624,14.996519219890088,0.10594134226336623
11.175008,14.993359323732022,0.10578076066804401
11.177392,14.992573615372711,0.1056194432344287
11.179788,14.999377001118487,0.10542665726949578
11.182176,15.008135265782439,0.10524241436038374
11.184556,15.016194682312088,0.10507422802683723
11.18696,15.02769922182713,0.10489834038867693
11.189348,15.039016769887068,0.10474474757716742
11.191732,15.053360132051818,0.1045928938103587
11.194128,15.06528208458957,0.1044611222676331
11.196516,15.081300786418776,0.1043250240436782
11.1989,15.098902280113817,0.1041885855528368
11.201304,15.121671458286947,0.1040414622560746
11.203687999999998,15.147885759445469,0.10388670861363139
11.206072,15.17461191728319,0.10373852424822469
11.208467999999998,15.198916665493911,0.10361096818380186
11.210855999999998,15.22615468001083,0.10347052299883716
11.213236,15.247106853034778,0.10336724329738789
11.215632,15.27034066605886,0.10324764453733878
11.21802,15.29515727094878,0.1031286524936915
11.2204,15.321696437331395,0.1030063069834984
11.222796,15.34274115815396,0.10292029815611052
11.225184,15.362854713416747,0.10283800323164756
11.227568,15.380174772000196,0.10276607436394361
11.229964,15.402849506516839,0.10266263275039712
11.232352,15.428317737712817,0.10254949601854914
11.234736,15.457650400774767,0.10242119424130798
11.237132,15.490754947904076,0.10226190274874968
11.23952,15.527212070220159,0.10208120104582152
11.2419,15.569955034029215,0.10186685633289108
11.2443,15.612977537091993,0.1016478349803448
11.246688,15.656791436087687,0.10142948906101507
11.249068,15.694599032844131,0.10123957325329677
11.251464,15.729752902548098,0.1010559286605319
11.253852,15.76318421075937,0.10087558566411785
11.256236,15.794101561545025,0.10069851568394543
11.258632,15.822085646024489,0.10053461358957687
11.26102,15.851420204944308,0.10035830116834349
11.2634,15.879683828677491,0.10018854910394064
11.2658,15.903291624611782,0.10003490903558819
11.268188,15.927039190172932,0.09987867040527053
11.270572,15.952137230174442,0.09971011115084574
11.272968,15.975512708683256,0.0995448577985511
11.275356,15.999679583124987,0.09937989903178789
11.277751999999998,16.015977824207912,0.09924908263374216
11.280156,16.032835143798277,0.09910675627025288
11.28254,16.042103369283556,0.0989919554828539
11.284919999999998,16.050160889955336,0.09888674619662326
11.287324,16.057147475440477,0.09878799429849897
11.289712,16.05719659312659,0.0987190949046564
11.292091999999998,16.051518947827173,0.09867079503239307
11.294496,16.041325244355722,0.09863415379413837
11.296884,16.036765756071187,0.09856196015904208
11.299264,16.036350238906344,0.09846915390368788
11.30166,16.039147527301417,0.09835880279218509
11.304048,16.045809247562463,0.09823398291193368
11.306428,16.05181934151745,0.09810611157438162
11.308832,16.05997130584572,0.09796686981427853
11.31122,16.07054467980098,0.09781043697954783
11.3136,16.081397593009964,0.09764799430563742
11.315996,16.09225050621895,0.09748591278903845
11.318384,16.102032484241295,0.0973296102289086
11.320764,16.11288539745028,0.09716757487824022
11.323168,16.123878080286126,0.09700291515241684
11.325556,16.14087706536122,0.09681274902807004
11.327936,16.155873949689898,0.09663170381472438
11.330339999999998,16.17101060364544,0.09644705534621151
11.332724,16.180560264242306,0.09627910146553563
11.335108,16.186664801853784,0.09611658203190934
11.337504,16.191977943532336,0.09595345383817712
11.339892,16.20129528670373,0.09577311966511826
11.342272,16.214896370621673,0.09556974245710913
11.344668,16.221280447486873,0.09540071392257292
11.347052,16.227384985098347,0.09523817445096479
11.349436,16.230276717149906,0.09509293009627863
11.351832,16.232237283641687,0.09495078108131913
11.354216,16.23484947643953,0.09481176147039255
11.356595999999998,16.235180029237227,0.09468718467318997
11.359,16.23509127315435,0.09457172665321198
11.361388,16.23607345225811,0.09445068875642591
11.363768,16.237335170615587,0.09432404764016253
11.366172,16.241809694532982,0.09418092216838228
11.368556,16.246284218450377,0.0940379181309321
11.370936,16.249315720128795,0.0938915862897356
11.373336,16.247132315500885,0.09376999968091956
11.375724,16.241736105313056,0.09366474370259252
11.378104,16.240995722924122,0.09354643301131647
11.380504,16.24798420426713,0.09340166898875858
11.382892,16.25534477266248,0.09326572758944414
11.385272,16.2682923344165,0.09311438040898767
11.387672,16.27816686023746,0.09297660362407568
11.390056,16.28962417792426,0.09284010255349501
11.39244,16.30722756747717,0.09267667633308663
11.394836,16.322968625910523,0.09251874930405236
11.397224,16.341642950650073,0.09235058950036322
11.399603999999998,16.36138821057626,0.09217775239234577
11.402004,16.38327534087572,0.0919946459688014
11.404392,16.405302240802044,0.09180883784212965
11.406771999999998,16.423604478489256,0.09163318208689446
11.409176,16.442278803228803,0.09146679469385233
11.411564,16.462675689461047,0.0912991662649229
11.413944,16.481861870879797,0.09114031341630409
11.41634,16.502770613791238,0.09097992670028614
11.418728,16.525913774874574,0.09082405728941825
11.421107999999998,16.55548254707774,0.09063749063608534
11.423504,16.59226832633366,0.09042066603543177
11.425892,16.628542248910374,0.0901988542950755
