Time,Force,Position
17.957667999999998,0.07804182956810984,0.0
17.960055999999998,0.08637103326403779,0.0
17.962436,0.09162720102691034,0.0
17.964836,0.09474149841650582,0.0
17.967223999999998,0.09664509099260259,0.0
17.969604,0.10134218024803429,0.0
17.971999999999998,0.1058994998766058,0.0
17.974387999999998,0.10831494913190025,0.0
17.976768,0.10979923282741637,0.0
17.979163999999997,0.11021258133629395,0.0
17.981552,0.11021258133629395,0.0
17.983936,0.11021258133629395,0.0
17.986331999999997,0.11021258133629395,0.0
17.98872,0.10854130618567448,0.0
17.9911,0.1037969951019996,0.0
17.993496,0.0931861514059344,0.0
17.995884,0.08071297659031255,0.0
17.998268,0.0681000321478305,0.0
18.000664,0.05790849733234593,0.0
18.003052,0.04464392658380597,0.0
18.005432,0.03217075176818412,0.0
18.007832,0.02384154807225618,0.0
18.01022,0.018585380309383625,0.0
18.0126,0.01547108291978813,0.0
18.015,0.013567490343691377,0.0
18.017388,0.008870401088259662,0.0
18.019772,0.004313081459688158,0.0
18.022168,0.0018976322043937157,0.0
18.02456,0.00041334850887759275,0.0
18.02694,0.0,0.0
18.02934,0.0,0.0
18.031728,0.0,0.0
18.034108,0.0,0.0
18.036504,0.0,0.0
18.038896,0.0,0.0
18.041276,0.0,0.0
18.043672,0.0,0.0
18.04606,0.0015315055237592732,0.0
18.048444,0.0021318454877402256,0.0
18.05084,0.003803120638359709,0.0
18.053228,0.005614165415839402,0.0
18.055612,0.008496145379957624,0.0
18.058008,0.011098586090355429,0.0
18.0604,0.015563357920309873,0.0
18.06278,0.022961396056459492,0.0
18.06518,0.031150830125527215,0.0
18.067568,0.03854886826167683,0.0
18.069948,0.046086676024686656,0.0
18.072348,0.05469541897433501,0.0
18.074732,0.06637719785703874,0.0
18.077116,0.0775471200605448,0.0
18.079512,0.08857727263719063,0.0
18.081904,0.10160952596025333,0.0
18.084284,0.1177148152163714,0.0
18.08668,0.1356824355920461,0.0
18.089072,0.15285866003480272,0.0
18.091452,0.1689639492909208,0.0
18.093852,0.18032492746336398,0.0
18.09624,0.1935482367553638,0.0
18.098624,0.20649200679364324,0.0
18.10102,0.21822507201842392,0.0
18.103412,0.2288872020565661,0.0
18.105796,0.23689560504223353,0.0
18.108192,0.24103957616192745,0.0
18.11058,0.24024818022900934,0.0
18.112964,0.23773422280339482,0.0
18.11536,0.23666328761675628,0.0
18.117748,0.2313086116835636,0.0
18.120132,0.22381206537709392,0.0
18.122528,0.21213028649439014,0.0
18.124916,0.20096036429088412,0.0
18.1273,0.18993021171423827,0.0
18.1297,0.17689795839117559,0.0
18.132092,0.16079266913505752,0.0
18.134472,0.1428250487593828,0.0
18.136884,0.12564882431662622,0.0
18.139272,0.10954353506050815,0.0
18.141652,0.09665105136430566,0.0
18.144064,0.08282740210832484,0.0
18.146452,0.06821235691942593,0.0
18.148832,0.054668246917165535,0.0
18.151228,0.041124136914905164,0.0
18.153612,0.03051329321883995,0.0
18.156008,0.021904550269191594,0.0
18.158404,0.015297908065960087,0.0
18.160792,0.009622431422506902,0.0
18.163172,0.0032953284729958163,0.0
18.165576,0.001112196643178643,0.0
18.167964,0.0,0.0
18.170344,0.0,0.0
18.17274,0.0,0.0
18.175128,0.0,0.0
18.177504,0.0,0.0
18.179904,0.0,0.0
18.182288,0.0,0.0
18.184668,0.0,0.0
18.187076,0.0,0.0
18.18946,0.0,0.0
18.191844,0.0,0.0
18.19424,0.0,0.0
18.196624,0.0,0.0
18.19902,0.0,0.0
18.201416,0.0,0.0
18.203804,0.0,0.0
18.206184,0.0,0.0
18.20858,0.0,0.0
18.210964,0.0,0.0
18.213344,0.00046057033712074266,0.0
18.215748,0.001992075860880016,0.0
18.218136,0.0035235813846392888,0.0
18.220516,0.008128122841453943,0.0
18.222916,0.01487453467154566,0.0
18.2253,0.021620946501637376,0.0
18.227684,0.026225487958452028,0.0
18.23008,0.031621425348184795,0.0
18.232468,0.03608619717813924,0.0
18.234848,0.04055096900809369,0.0
18.237252,0.043013640091631285,0.0
18.239636,0.04547631117516888,0.0
18.24202,0.04994108300512332,0.0
18.244424,0.05426608520821755,0.0
18.246812,0.05765992185153347,0.0
18.249192,0.06291608961440602,0.0
18.251588,0.06924319256391709,0.0
18.253976,0.07850356181962335,0.0
18.256356,0.08804347032905002,0.0
18.258756,0.09651244365183817,0.0
18.26114,0.10344991145086704,0.0
18.26352,0.10717457368998033,0.0
18.265916,0.11276156704865026,0.0
18.268304,0.11127132298143111,0.0
18.2707,0.10642850372743615,0.0
18.273096,0.10065451891366285,0.0
18.275484,0.09688263484630642,0.0
18.277864,0.09366982928639082,0.0
18.280264,0.09311075077895,0.0
18.282652,0.09576447783142474,0.0
18.285032,0.10321380230965131,0.0
18.287432,0.11266522753429471,0.0
18.28982,0.11825222089296465,0.0
18.2922,0.12705201981155015,0.0
18.294596,0.13571204910327547,0.0
18.296984,0.14185812096938621,0.0
18.299364,0.1438602217158031,0.0
18.301768,0.13999578984982958,0.0
18.304156,0.13049714279694302,0.0
18.30654,0.12202816947415487,0.0
18.308936,0.11463013133800526,0.0
18.311324,0.10937396357513271,0.0
18.313704,0.10225546469270351,0.0
18.316104,0.09914116730310801,0.0
18.318488,0.09723757472701126,0.0
18.320872,0.09626514771069283,0.0
18.323268,0.0954324903212346,0.0
18.325656,0.09324935849141744,0.0
18.32804,0.08934366516890384,0.0
18.330436,0.08222516628647464,0.0
18.332824,0.07231317072471048,0.0
18.335204,0.060399074416529475,0.0
18.3376,0.050347309227905104,0.0
18.339988,0.037222508106225356,0.0
18.342368,0.025168642171184138,0.0
18.344772,0.013766402542200816,0.0
18.34716,0.005437198846272878,0.0
18.349544,4.1261456540112034e-05,0.0
18.35194,0.0,0.0
18.354328,0.0,0.0
18.356712,0.0,0.0
18.359108,0.0,0.0
18.361492,0.0008760875019628867,0.0
18.363876,0.0026361187354609445,0.0
18.366272,0.006862885566330384,0.0
18.36866,0.013928475046908702,0.0
18.37104,0.01992123348297925,0.0
18.373436,0.03201094609904817,0.0
18.375824,0.055365297373204746,0.0
18.378204,0.08607263361123234,0.0
18.380608,0.12729853854480339,0.012700360694398682
18.382996,0.18593325814470363,0.02380596547632085
18.38538,0.25699420353007785,0.034855784738512474
18.38778,0.3481630166046299,0.04525284391107124
18.390164,0.460323641099895,0.055300856663408955
18.392548,0.5979449133596613,0.06498804190579298
18.394944,0.7634935689813003,0.07443326752703593
18.397328,0.9602749613233446,0.08362206363279928
18.399708,1.191686991542944,0.0926071930263264
18.402116,1.4616866393046888,0.10138519859631558
18.4045,1.7739985668476923,0.10993364481301797
18.406884,2.1303453356646513,0.11828416163458086
18.40928,2.527336900827988,0.12650664788614688
18.411668,2.965244945361851,0.13461236605531557
18.414048,3.4441166910944827,0.14258150500217406
18.416452,3.9592037624283756,0.15047450416518834
18.41884,4.515675739699486,0.15825711386987604
18.42122,5.103616562832219,0.1659444620441744
18.423616,5.715112272497393,0.17354775486923887
18.426004,6.354261513844328,0.18104989148734738
18.428388,7.011939622730343,0.1757916035396913
18.430784,7.676088668706563,0.17209998578699565
18.433172,8.351598692855227,0.16842205670473193
18.435552,9.030835275100873,0.16533851720745416
18.437952,9.706675852047239,0.16258245089161918
18.440336,10.375909513992278,0.16013618529176712
18.442716,11.032112545674028,0.15789383200781476
18.445116,11.6708161107487,0.15586562414357769
18.4475,12.286015802834912,0.15399538969009793
18.449896,12.870868597790126,0.15228919990552103
18.452292,13.417133775203194,0.1507922938358114
18.45468,13.919503880969165,0.14949017957717264
18.45706,14.382634742886934,0.14829665094228542
18.45946,14.809599396889553,0.14717327469290195
18.461848,15.192109900737638,0.14617773205689724
18.464228,15.537196270028831,0.14523794543330873
18.466624,15.843321038867675,0.1443944066396619
18.469012,16.112159546918615,0.1436399637139928
18.471392,16.344688285711815,0.1429867930217487
18.473792,16.54458469565813,0.14242940248742966
18.47618,16.720321814594193,0.14191834961005492
18.47856,16.882282233304423,0.14138592979580114
18.480956,17.027765002908104,0.14086115976352484
18.483344,17.152858469711013,0.1403822087579457
18.48574,17.266082893378023,0.13989437161455678
18.488136,17.36073312353558,0.13945166065985726
18.490524,17.442256383915492,0.1390247993325726
18.492904,17.512095696756734,0.1386122510263885
18.4953,17.56820173948465,0.13823984304916853
18.497688,17.616393822883385,0.13788857232827986
18.500072,17.661327774751832,0.1375327237871245
18.502468,17.703655221396044,0.13717136311934558
18.504856,17.742956853935443,0.1368148308482445
18.507236,17.775460788302674,0.13649907952583842
18.509636,17.813411946401715,0.13615986640277317
18.512024,17.852154500433674,0.13582069070248856
18.514404,17.891967989652272,0.13547541875107877
18.5168,17.9362975370429,0.13511204063016202
18.519188,17.984538738127743,0.13471148497099003
18.521568,18.029754125107782,0.13431479435533036
18.523972,18.07157161093067,0.13391616089937286
18.526356,18.099980691864317,0.13357523041418692
18.52874,18.11912533902843,0.1332641760670712
18.531144,18.13501185466225,0.1329468833287199
18.533532,18.146569303579145,0.13263135067848797
18.535912,18.16338888063062,0.13226810059045815
18.538308,18.181419162495587,0.13189624080426168
18.540696,18.196376408427497,0.13154348287245168
18.543076,18.216920647718077,0.13116566391533743
18.54548,18.23676603887436,0.13080252749450777
18.547868,18.254701877082844,0.1304637906843581
18.550248,18.27831725644861,0.1301133168082975
18.552644,18.304027284359414,0.12976509405900727
18.555032,18.328386837829857,0.1294289675030151
18.557412,18.34660031943419,0.12913017970872587
18.559808,18.364813801038522,0.12883257571808257
18.562196,18.382096117083076,0.12854006961730127
18.56458,18.39542145346304,0.128255066642151
18.566976,18.408746789843008,0.127971092889431
18.569364,18.42742680215616,0.12765382431550062
18.571744,18.443453087416838,0.12734604767231544
18.57414,18.46483404861071,0.12700413306405542
18.576528,18.489008506483916,0.12665027127671782
18.578912,18.510621785103268,0.12631825686873036
18.581308,18.530465280401682,0.12600768659793765
18.583692,18.541182215699546,0.1257631200986126
18.586092,18.547615410250856,0.12554587600647665
18.588488,18.555491627041143,0.12532918321560566
18.590876,18.562529226070264,0.1251300062932004
18.593252,18.570637760286026,0.12492428391050751
18.59566,18.5836816615544,0.12469405162953337
18.598048,18.59314067021052,0.1244769392452867
18.600428,18.603950153306997,0.12424837275249767
18.602824,18.618903607523166,0.12399623273545347
18.605212,18.638420341739618,0.123712655157911
18.607592,18.65556288815731,0.12343285807170556
18.609988,18.67205380826894,0.12315194641365367
18.612376,18.68547169244752,0.1228877165240021
18.61476,18.693582122521157,0.12264048720889728
18.617156,18.69475508479576,0.1224279714834827
18.619544,18.700863414122974,0.12219184126179125
18.621924,18.70226869382305,0.12198959508190946
18.62432,18.705256765388967,0.12178586883700028
18.626708,18.71131787288794,0.12156553794171883
18.629092,18.720312246693105,0.12133190740883859
18.631488,18.736383857924157,0.12106197402360301
18.633876,18.75324686508813,0.12079094307019869
18.636256,18.772251742625382,0.12050792815497718
18.638656,18.78995336755052,0.12022198146918389
18.641044,18.80658405728901,0.11994257927575667
18.643428,18.819350315161536,0.11968087479489242
18.645832,18.833327277847555,0.11941043591867193
18.648216,18.84330003904074,0.11915993183866079
18.6506,18.851410469114374,0.11891678951158888
18.652996,18.854445762508533,0.1186994286484215
18.655384,18.860274552582027,0.11847203762883246
18.657764,18.86382170265538,0.11825962256267832
18.660164,18.87044188866179,0.11803131777879583
18.662548,18.882509298400013,0.11778501821235857
18.664928,18.89858090963107,0.11751963464230984
18.667324,18.90957738418265,0.11728003746970904
18.669716,18.929420879481064,0.11698720835701452
18.672096,18.945679482167222,0.11670570104742699
18.674492,18.961146688920458,0.11642521323727412
18.67688,18.969816197501533,0.1161734789997669
18.679264,18.97490081347035,0.11593307674835915
18.68166,18.98347777425281,0.1156698403195187
18.684048,18.992753583169563,0.11539444278264575
18.686444,19.003240096899816,0.11511112677939916
18.68884,19.014006149883787,0.1148225843005202
18.691228,19.0265419861887,0.11451537369026588
18.693608,19.0382864265607,0.11420910312998006
18.696004,19.054594146932967,0.11387485084306612
18.698392,19.074254442492016,0.11352145847043735
18.700776,19.09540498211828,0.11315403201718521
18.703172,19.112691089878574,0.11280256026558712
18.70556,19.12988464984025,0.11243814315452207
18.707944,19.142701921256755,0.11208388949704652
18.71034,19.15035150819517,0.11174075261490035
18.712728,19.15348503696155,0.11141052009570501
18.715108,19.158528118675733,0.11105882070450854
18.717504,19.152629531098054,0.11075443893578431
18.719892,19.148500726841313,0.110431165359549
18.722276,19.145862166651792,0.11009457831885651
18.72468,19.15006852646269,0.10971603561449707
18.727068,19.15376302959438,0.10933264165255906
18.729452,19.153081244180907,0.10895945393582153
18.731848,19.147603861341675,0.1086040384655623
18.734236,19.138262046636473,0.10826297982876636
18.73662,19.13441467749132,0.10789254479758936
18.739016,19.126283567599614,0.10754369540847106
18.741404,19.120294328081187,0.1071841712980535
18.743788,19.10922995188329,0.10684679577193001
18.746184,19.093230208632775,0.10652875565413962
18.748572,19.08095512762138,0.10619947270112588
18.750956,19.067888650677062,0.10586983636505769
18.753352,19.06134033265119,0.10552096637681732
18.75574,19.065174605409748,0.10513964899038628
18.75812,19.076737741900246,0.10473197094270156
18.760516,19.095098576562915,0.10430071801642657
18.762904,19.111689627904642,0.10388752171839605
18.765288,19.137871874097875,0.10344266108006933
18.767684,19.165217603276368,0.10300620064386148
18.770072,19.195868685813387,0.10256886576741914
18.772452,19.225681150589246,0.10214831159446043
18.774856,19.256936637604085,0.1017306213399547
18.777244,19.294290974656793,0.10130390017028984
18.779628,19.331877629134972,0.10088683564094864
18.782024,19.37132661473271,0.10046477341761571
18.784412,19.40006624846406,0.10009356077601048
18.786792,19.43653474592736,0.09969817096403408
18.789192,19.469790437830742,0.09931859873630704
18.791576,19.5098438279063,0.09891812109655553
18.79396,19.55655514652716,0.09849946012413344
18.796356,19.601264364401604,0.0980899625728793
18.798744,19.65170034526158,0.09766485547332639
18.801124,19.699063290188498,0.09725456690733769
18.803528,19.739488767316384,0.0968705309558097
18.805916,19.775630503697723,0.09650755712325355
18.808296,19.810841074519278,0.09614917453265037
18.810692,19.850195616460528,0.09577543595506566
18.81308,19.883683625789384,0.09542137564959627
18.815464,19.914657677692635,0.09506989966084849
18.81786,19.940184505864075,0.09473053402676593
18.820248,19.964919938102597,0.09439185857376303
18.822632,19.988863974408197,0.09405347641550876
18.825028,20.00507914698185,0.09373762169982465
18.82742,20.022505024369003,0.09341480739615857
18.8298,20.040862067315935,0.09309030743690509
18.8322,20.06750705250225,0.09273440223967282
18.834588,20.08842527470304,0.09239467311986138
18.836968,20.112416532836882,0.09204448352321154
18.839364,20.129190783917974,0.09172136582033642
18.841752,20.138096401640258,0.09142219887606068
18.844132,20.14593108417591,0.09112766538610477
18.846532,20.14668852928567,0.09085682597568388
18.84892,20.144512708089234,0.09059446056330647
18.8513,20.144338987639212,0.09032599384462726
18.8537,20.141232000882997,0.09006562495435881
18.856084,20.133561734126513,0.08982726554104527
18.858468,20.123749596996745,0.08959775058121987
18.860864,20.111795589493703,0.08937623587668338
18.863252,20.103146935349198,0.0891540147754713
18.865636,20.094078972324102,0.0889384583258871
18.868036,20.08100680780618,0.0887348742786309
18.87042,20.066863708101614,0.08853525358076937
18.872804,20.055514105076387,0.08832952691635843
18.8752,20.04509566761094,0.08812184754168442
18.877588,20.033326755705133,0.08792294550689078
18.879972,20.01955574305291,0.08773022249228
18.882368,20.009229853386074,0.08753475591539739
18.884756,19.99541161890561,0.08735624056094807
18.88714,19.981733154052,0.08717495821496977
18.889536,19.97070841625087,0.08699014494517598
18.891924,19.95968367844974,0.08680518142845775
18.894308,19.95666734363427,0.08659661858074814
18.896708,19.953371469565084,0.0863924143863542
18.899096,19.945791854749338,0.08620450083990831
18.901476,19.937792931053018,0.08602308258596526
18.903876,19.931004712170193,0.08583504574807141
18.906264,19.91900158698104,0.08566480648244337
18.908644,19.90886079291144,0.08549058368003165
18.911044,19.894064171042956,0.08532512005743498
18.913432,19.880990110667163,0.08515828401262268
18.915812,19.873503043650036,0.08498078335853793
18.918208,19.86638806368525,0.08481063179927621
18.920596,19.859273083720463,0.08464036946900044
18.92298,19.848945298195762,0.08448207802245383
18.925376,19.83875728229792,0.08432132435225254
18.927768,19.824145756026663,0.08417879137779316
18.930148,19.80259676195638,0.08405501864847521
18.932548,19.78304986863251,0.08392530740901918
18.934936,19.764154601614706,0.0837982164591811
18.937316,19.7452593345969,0.08367093148374821
18.939716,19.726875924258284,0.08354877582538942
18.942104,19.699925032426563,0.08345856617383844
18.944488,19.676559033207095,0.08336381195996198
18.946888,19.658128401040237,0.08325590130172696
18.949272,19.645843840739495,0.08312867444590294
18.951656,19.631137870811756,0.08301381021759682
18.954052,19.6252316998026,0.08287705495262664
18.956436,19.62598345733875,0.08272676584996214
18.95882,19.628038467487016,0.08258226516671201
18.961216,19.629813938381563,0.08244247023121062
18.963604,19.632241035582165,0.08230611290629758
18.965988,19.639743269462247,0.08215516925212175
18.968392,19.650550856700853,0.08200507013876891
18.97078,19.668016372484768,0.08184190298134635
18.97316,19.687856076067444,0.08168122190927704
18.97556,19.715145104128343,0.08150819625761496
18.977948,19.749092060734547,0.08132187431702809
18.980328,19.78476157883346,0.08113533264097102
18.982724,19.824015989544616,0.08094517234180029
18.985112,19.864853192121608,0.08075685454277577
18.987492,19.90848389137794,0.08056467651236321
18.989892,19.95425646100755,0.08036425236618092
18.99228,19.99909786507737,0.08016613346094674
18.994664,20.03844482358715,0.07998940453856779
18.99706,20.075230602843064,0.07982788486335399
18.999448,20.117882914711366,0.07965304904993985
19.001832,20.15625148583312,0.07949402442192127
19.004228,20.187542819528982,0.07935497869443756
19.006616,20.222698585090814,0.07920811837064386
19.008996,20.260787616958847,0.07905516258384818
19.011396,20.29301011621449,0.07891563502084388
19.013784,20.322159579537075,0.07878569833563036
19.016168,20.346792984687628,0.07866095859326151
19.018564,20.365559857225794,0.07854956624286004
19.020952,20.385537434577458,0.07843280770131501
19.023336,20.400067788197312,0.07832249894489941
19.025732,20.415017450697746,0.07820599938851566
19.028124,20.429315486892122,0.07808683601750985
19.030504,20.445895163086632,0.07795891009912904
19.032904,20.464104852975222,0.07781911802703063
19.035292,20.48073175099798,0.07767813976541078
19.037672,20.505506821633265,0.07751628860003351
19.040072,20.52841956114899,0.07735727643565725
19.04246,20.554964415105214,0.07718113832413855
19.04484,20.582347886822596,0.07699245435807793
19.04724,20.606426005181454,0.07680297391325842
19.049628,20.633205072421028,0.07659844748960869
19.052012,20.664407650034015,0.07637831881930515
19.054408,20.690442543168913,0.07615959255078618
19.056796,20.713032313318415,0.07594210699152792
19.05918,20.740185363468193,0.07570678360906333
19.061576,20.766826556938767,0.07546674674863316
19.063964,20.7977514911559,0.07521365044499675
19.066348,20.83296016611959,0.07494748817098963
19.068744,20.859788351045275,0.07469222521995011
19.071136,20.889969111157736,0.074425088273361
19.07352,20.914003799404085,0.0741738234344947
19.075916,20.93510522134424,0.0739285073619761
19.078308,20.947686383619526,0.07369613556598974
19.080688,20.95598380514826,0.0734772727531371
19.083088,20.961347960370798,0.07326412269486937
19.085476,20.957632777421033,0.07307239850490657
19.08786,20.954476672978704,0.07287206379568457
19.090256,20.95439360446943,0.07266450505393168
