Time,Force,Position
18.317576,0.10861869576976003,0.0
18.319972,0.10605751651590233,0.0
18.32236,0.09961589740277035,0.0
18.32474,0.09131194717008176,0.0
18.32714,0.08314776656425334,0.0
18.329524,0.07591475151820325,0.0
18.331908,0.06868173647215316,0.0
18.334308,0.06144872142610305,0.0
18.336696,0.05621780712646982,0.0
18.339076,0.04912456170727993,0.0
18.341476,0.042171085914950265,0.0
18.343864,0.03628854530925912,0.0
18.346248,0.029614608770649864,0.0
18.348648,0.021869737045402085,0.0
18.351032,0.015056030879932621,0.0
18.353416,0.011315360647518542,0.0
18.355812,0.010787495975020055,0.0
18.358196,0.008117760929244506,0.0
18.36058,0.006518961070107488,0.0
18.362984,0.004920161210970469,0.0
18.365372,0.00346113097869366,0.0
18.367756,0.0,0.0
18.370152,0.0,0.0
18.37254,0.0,0.0
18.374924,0.0,0.0
18.37732,0.0,0.0
18.379708,0.0,0.0
18.382092,0.0,0.0
18.384488,0.0,0.0
18.386876,0.0,0.0
18.38926,0.0,0.0
18.391656,0.0,0.0
18.394044,0.0,0.0
18.396424,0.0,0.0
18.398828,0.0006676342993586977,0.0
18.401216,0.0014750382255776058,0.0
18.403596,0.005495247711712106,0.0
18.405992,0.010726162011345346,0.0
18.40838,0.014886141124340058,0.0
18.41076,0.02197938654352994,0.0
18.413156,0.027070531216302967,0.0
18.415544,0.03015957514265915,0.0
18.417924,0.03525071981543218,0.0
18.420324,0.041412799674843744,0.0
18.422708,0.04864581472089383,0.0
18.425092,0.06109373607327637,0.0
18.427496,0.07219118298529995,0.0
18.429884,0.08114675952404647,0.0
18.432264,0.08903140087615447,0.0
18.43466,0.09305161036228897,0.0
18.437044,0.09586111503492473,0.0
18.439428,0.09988132452105923,0.0
18.441824,0.10096826770099857,0.0
18.444212,0.10098427569429937,0.0
18.446608,0.10033264938824148,0.0
18.449004,0.10275405901523896,0.0
18.451392,0.09888962714926545,0.0
18.453776,0.09365871284963222,0.0
18.456172,0.08949873373663751,0.0
18.45856,0.08240548831744762,0.0
18.46094,0.0773143436446746,0.0
18.46334,0.07422529971831841,0.0
18.465728,0.06913415504554538,0.0
18.468108,0.0629720751861338,0.0
18.470504,0.05573906014008372,0.0
18.472896,0.04329113878770118,0.0
18.475276,0.0321936918756776,0.0
18.477676,0.023238115336931073,0.0
18.48006,0.015353473984823084,0.0
18.48244,0.011333264498688583,0.0
18.484844,0.008523759826052824,0.0
18.487232,0.004503550339918323,0.0
18.489612,0.0034166071599789944,0.0
18.492012,0.0034005991666781962,0.0
18.494396,0.0033845911733773985,0.0
18.496776,0.00015577762016100811,0.0
18.49918,0.0,0.0
18.501568,0.0,0.0
18.503948,0.0,0.0
18.506344,0.0,0.0
18.508732,0.0,0.0
18.511112,0.0,0.0
18.513512,0.0,0.0
18.515896,0.0,0.0
18.518276,0.0,0.0
18.520676,0.0,0.0
18.523064,0.0,0.0
18.525444,0.0,0.0
18.52784,0.0,0.0
18.530228,0.0,0.0
18.532612,0.0,0.0
18.535008,0.0,0.0
18.537396,0.0,0.0
18.539776,0.0,0.0
18.542172,0.0,0.0
18.54456,0.0,0.0
18.54696,0.0,0.0
18.549356,0.0,0.0
18.551748,0.0,0.0
18.554128,0.0,0.0
18.556532,0.0,0.0
18.55892,0.0,0.0
18.5613,0.0,0.0
18.563696,0.0,0.0
18.566084,0.0,0.0
18.568464,0.0,0.0
18.570868,0.0,0.0
18.573256,0.0,0.0
18.575636,0.0,0.0
18.578032,0.0,0.0
18.58042,0.0,0.0
18.582804,0.0,0.0
18.5852,0.0,0.0
18.587588,0.0,0.0
18.589968,0.0,0.0
18.592368,0.0005278646724984877,0.0
18.594756,0.0005278646724984876,0.0
18.597136,0.0005278646724984876,0.0
18.599532,0.0013352685987173959,0.0
18.60192,0.005075938831131476,0.0
18.604304,0.009747774623323876,0.0
18.6067,0.016561480788793336,0.0
18.609084,0.02458589176776154,0.0
18.611464,0.032470533119869534,0.0
18.613868,0.03821330409870046,0.0
18.616256,0.04488724063730971,0.0
18.618636,0.05356327792233582,0.0
18.621036,0.06023721446094507,0.0
18.623424,0.06691115099955432,0.0
18.625804,0.07572695791144063,0.0
18.6282,0.08146972889027156,0.0
18.630588,0.0881436654288808,0.0
18.632972,0.09174456603443466,0.0
18.635368,0.09641640182662707,0.0
18.637756,0.0980152016857641,0.0
18.640136,0.09748733701326562,0.0
18.642532,0.09748733701326562,0.0
18.64492,0.09748733701326562,0.0
18.6473,0.09667993308704671,0.0
18.6497,0.09293926285463264,0.0
18.652084,0.08826742706244023,0.0
18.654464,0.08145372089697077,0.0
18.656864,0.07342930991800256,0.0
18.659252,0.06554466856589457,0.0
18.661648,0.05980189758706364,0.0
18.664044,0.053127961048454395,0.0
18.666428,0.04445192376342828,0.0
18.668812,0.03777798722481904,0.0
18.671208,0.03110405068620979,0.0
18.673596,0.022288243774323476,0.0
18.67598,0.01656148078879334,0.0
18.678376,0.009887544250184089,0.0
18.68076,0.006286643644630217,0.0
18.683144,0.0016148078524378163,0.0
18.68554,1.6007993300797877e-05,0.0
18.687928,1.6007993300797877e-05,0.0
18.690308,1.6007993300797877e-05,0.0
18.692704,0.0002643334120788655,0.0
18.695096,0.003725464390772525,0.0
18.697476,0.003725464390772525,0.0
18.699876,0.003725464390772525,0.0
18.702264,0.0037254643907725254,0.0
18.704644,0.0037254643907725254,0.0
18.707044,0.0037254643907725254,0.0
18.709432,0.0037254643907725254,0.0
18.711812,0.0037254643907725254,0.0
18.714212,0.0037254643907725254,0.0
18.7166,0.0037254643907725254,0.0
18.71898,0.0037254643907725254,0.0
18.721384,0.0037254643907725254,0.0
18.723772,0.0037094563974717273,0.0
18.726156,0.0037094563974717273,0.0
18.728552,0.0037094563974717273,0.0
18.73094,0.0037094563974717277,0.0
18.733324,0.0037094563974717277,0.0
18.73572,0.0037094563974717277,0.0
18.738108,0.0037094563974717277,0.0
18.740492,0.00346113097869366,0.0
18.742888,0.0,0.0
18.745276,0.0,0.0
18.747656,0.0,0.0
18.750056,0.0,0.0
18.752444,0.0,0.0
18.754828,0.0,0.0
18.757224,0.0009924995234530242,0.0
18.759612,0.0012861509126049992,0.0
18.761996,0.002603515660152354,0.0
18.764392,0.0069466945125119415,0.0
18.76678,0.014036148215963338,0.0
18.769164,0.023452567889925915,0.0
18.77156,0.03547549278812009,0.0
18.773948,0.04796305253726879,0.0
18.776328,0.06650224049604196,0.0
18.778728,0.08988235185094084,0.0
18.781116,0.11917432178860402,0.0
18.7835,0.15223627993575437,0.0
18.785896,0.19172195334486664,0.0
18.788284,0.2385625075757192,0.008379549696381354
18.790668,0.2903365330013145,0.01689971584963056
18.793064,0.34997729592784776,0.025194949869105844
18.795452,0.4142719907954034,0.03369910474949104
18.797836,0.4858743446564561,0.04217951939963199
18.800232,0.5658552926976446,0.05053385316136002
18.80262,0.6540750652921083,0.05881845991242135
18.805,0.7501927892224524,0.06704823301310571
18.807404,0.8609749488259032,0.07491279749610649
18.809792,0.9824173426096268,0.08264001051185618
18.812172,1.1100964602002088,0.09041133107902656
18.814576,1.2460144023440667,0.09817008392693537
18.816964,1.3925925786681972,0.10583629660675427
18.819344,1.5471300402918826,0.11354872658202525
18.82174,1.7125600535213183,0.12128952783818181
18.824128,1.8810139849976972,0.12915358178923952
18.826508,2.055285331400354,0.13710549258462276
18.828904,2.2346752445949876,0.14516540329148955
18.831292,2.42397932200735,0.15326293299354105
18.833676,2.623057794010581,0.16135044406118756
18.836072,2.8276269198581256,0.16115793247212024
18.83846,3.0482562817895107,0.16070129094666663
18.84084,3.2813137653642386,0.160411932494288
18.843244,3.530803572075144,0.15985597687811035
18.845632,3.7951429100563887,0.1592497323279914
18.848012,4.072189908934698,0.15872665674576664
18.850412,4.363806899829629,0.1582160966016169
18.8528,4.668271321248482,0.1577289316026239
18.85518,4.978505935765369,0.15760888052307762
18.85758,5.297723548940209,0.15761664802068726
18.859968,5.628066031146277,0.1575836891396431
18.862344,5.969393612756712,0.15755737141758466
18.864748,6.3274330567570445,0.1575301044751136
18.867136,6.698739240161883,0.15743719806803497
18.869516,7.08866683890442,0.15722742666806794
18.871912,7.4967039963054525,0.15683850819530615
18.8743,7.921407690126011,0.15630630977346532
18.876684,8.3612423503285,0.15560851043360108
18.879076,8.811831688367745,0.15482949149269812
18.881464,9.2715003645793,0.1539965220094125
18.883844,9.741366535978042,0.15300805177356122
18.88624,10.205832705473217,0.1521385866640541
18.888628,10.666576108587146,0.15129723776404613
18.89102,11.121362327147938,0.15048622172798987
18.89342,11.564744137423782,0.14974416683125477
18.895804,12.000074114601453,0.14901873749274114
18.898184,12.423907135695565,0.1483325770077372
18.900588,12.833449704026773,0.1476851910531519
18.902976,13.232054394781855,0.14702787541913764
18.905356,13.621071682401173,0.1463520066976295
18.907752,13.999338083899469,0.1456460700212098
18.910144,14.36489872035857,0.1449123761193799
18.912524,14.702715173195164,0.1442760097027219
18.91492,15.024800046887748,0.14362044315154082
18.917308,15.321422376957964,0.1430318819141813
18.919692,15.594444494525364,0.14248280202132965
18.922088,15.842702916604695,0.14196408654629467
18.924476,16.06321715506152,0.14150646961572286
18.926856,16.258268849895973,0.14108364003160662
18.929252,16.425017282600482,0.1407286983182592
18.93164,16.56569687134693,0.14043367652421
18.93402,16.692692307666167,0.140116641992513
18.936416,16.800741463423606,0.13983436647151165
18.938804,16.89608295828399,0.13955740251316573
18.941188,16.984815642285174,0.1392571412038133
18.943584,17.061724609120827,0.13897228836939973
18.945972,17.12732171547015,0.13870537825406817
18.948356,17.188823968385893,0.13840477043804217
18.950752,17.240876691934865,0.1381107846054913
18.95314,17.28254872055728,0.13782965448000173
18.955524,17.313420745372564,0.13756933230222568
18.957924,17.334284162313633,0.13732765417914758
18.960312,17.351517360672077,0.13707172675162418
18.962692,17.357251707089084,0.13685024135952248
18.965096,17.35199905824385,0.1366663117326347
18.967484,17.338832450069443,0.1364993588747088
18.969864,17.321429322976723,0.13634686380935332
18.972268,17.305284122525745,0.13616616757900896
18.974656,17.287556130208927,0.13598831485851343
18.977036,17.27103884270561,0.1357989222734674
18.979432,17.25745482150849,0.13559159880751206
18.98182,17.239726829191675,0.13541248457008304
18.9842,17.224280476874995,0.13521411969000885
18.986596,17.204178296759427,0.13503944681250318
18.988984,17.179839597725543,0.134879074792056
18.991368,17.15219554533313,0.13472807397318773
18.993764,17.12301592290312,0.1345629852394612
18.996152,17.088016989688967,0.134414836302045
18.998532,17.054275983116558,0.13423819511392585
19.000928,17.016438227252692,0.1340719199642224
19.003316,16.97543488765716,0.1339113385579501
19.005696,16.932848756195785,0.13375295633521567
19.008104,16.890402394361274,0.13359053574860882
19.010492,16.8507495292061,0.13341308945065594
19.012872,16.817894362223093,0.1331956678870455
19.015272,16.786621987105924,0.13297412611743048
19.01766,16.75507007273503,0.13275810888021938
19.02004,16.71960650466992,0.132580721945385
19.022436,16.687588059590205,0.1323900661854129
19.024824,16.65515030562991,0.13220831913745879
19.027208,16.624714652416028,0.13201342212019576
19.029612,16.59441876882901,0.13181484579472857
19.032,16.564122885241993,0.13161572608870614
19.034384,16.534246310535554,0.13140648202465838
19.03678,16.50143646952292,0.1312139176161894
19.039168,16.468906167764004,0.131014331897183
19.041548,16.43809842749779,0.1308076887031969
19.043944,16.409525105403468,0.13059899928626853
19.046332,16.37997339592112,0.13041195350058454
19.048716,16.35251633498381,0.13022615342989205
19.051112,16.331669980763568,0.13002161460489758
19.0535,16.313569901394413,0.12982027198395735
19.05588,16.297424700943434,0.12962374457028988
19.058276,16.283094609783767,0.12943543629176804
19.060664,16.26764636160922,0.12927239835549356
19.063044,16.257226028285903,0.12909420960558743
19.065444,16.24904011313448,0.1289147108875421
19.067828,16.2473723569015,0.12870270713044765
19.070208,16.248218558094138,0.12848384955947534
19.072608,16.25372058708567,0.1282422275556522
19.074992,16.25652166719648,0.1280289996631538
19.077388,16.266632302158662,0.1277833035996386
19.079784,16.27590431935968,0.1275565270380195
19.082172,16.29220635215834,0.12730412227907076
19.084556,16.31367606943509,0.127034346781258
19.086956,16.342547889361825,0.12674768943346046
19.089344,16.373886444885933,0.12647265794765922
19.091724,16.40932174970149,0.12618939421193429
19.09412,16.447922638248723,0.12590199631118715
19.096508,16.490760045714264,0.12560289569404073
19.098892,16.5353200146725,0.12530045464083497
19.101288,16.58211440180263,0.12499856417995112
19.103676,16.634356012664572,0.12467642787455262
19.10606,16.685386918713014,0.12436527841361153
19.108456,16.741213422187208,0.12403110686071302
19.110844,16.79769155196746,0.12370099550232752
19.113228,16.857754574359966,0.12335886659216734
19.115624,16.91725851824503,0.12303054099496
19.118012,16.9731303476896,0.12273413232396682
19.120396,17.031236595306066,0.12244007272078089
19.122792,17.09399867072142,0.1221267168836703
19.12518,17.15326840132314,0.12184316935785015
19.12756,17.219196060470164,0.12153001607706763
19.129956,17.279489504430277,0.12125951063356467
19.132344,17.34029480506959,0.12099548585795582
19.134724,17.396584047536866,0.12075033748123042
19.13712,17.45687749149698,0.12048627465220943
19.139508,17.516100000270455,0.12023105571349285
19.141904,17.577604149044067,0.11996192194301385
19.1443,17.640970628937236,0.11968763129164053
19.146688,17.703266173643765,0.11942231891376053
19.149068,17.76877452391021,0.11913978177793158
19.151464,17.829207737497185,0.1188864114079561
19.153852,17.893225843696413,0.11862203974202648
19.156236,17.95417091396259,0.11837591180300418
19.158632,18.018328789788676,0.11811330052009321
19.16102,18.08155550005498,0.11785636323146706
19.1634,18.148134785508063,0.1175796074336477
19.1658,18.22006874689434,0.11727269716480264
19.168188,18.28734688048173,0.11698491471955237
19.170568,18.35397338776306,0.11669753324864661
19.172964,18.424371779111745,0.11638305774224572
19.175352,18.491744356355618,0.11607185853919275
19.177732,18.563028587293704,0.11572973036618849
19.180128,18.63743307599309,0.11535980380117691
19.182516,18.715469679132976,0.11496632768100297
19.184912,18.782611834809238,0.1146087241054525
19.187308,18.849801212313746,0.1142380112603763
19.189696,18.907678934220474,0.11390097529838002
19.192076,18.961599676462605,0.11356902226990548
19.194476,19.012634374226785,0.11323541575972226
19.19686,19.055056264527483,0.11292214421248516
19.199244,19.097013519977228,0.11258947636834589
19.20164,19.1347814783369,0.11225066920964395
19.204028,19.17380736333832,0.11188931044645563
19.206408,19.202869966435898,0.11155839130417708
19.208808,19.22560140207013,0.1112317880498088
19.211192,19.242793066173935,0.1109099340208919
19.213576,19.253513793187533,0.11059545328380826
19.21598,19.264049424603904,0.11025593446727447
19.218368,19.26890551486298,0.10992245429743498
19.220748,19.262727388031582,0.10962289675239575
19.223152,19.2501708719086,0.109341691105481
19.22554,19.23179504500146,0.10906848175180313
19.22792,19.202245231376985,0.10883083933937891
19.230316,19.16459446696822,0.10861428523756188
19.232704,19.132066061067178,0.10835911608229946
19.235088,19.094509740314905,0.10811061851733325
19.237484,19.06100484288371,0.10782903221208887
19.239872,19.02633646246726,0.10753973419590863
19.242252,18.99236693018511,0.10723683981871775
19.244652,18.96202951234346,0.10690883623716312
19.24704,18.930900698568884,0.10658043898231989
19.24942,18.89939979774197,0.10624358577613614
19.251816,18.865524709116304,0.10590694876495106
19.2542,18.83435056937136,0.10554791540136015
19.25658,18.807180631119248,0.10517143941849971
19.258988,18.77921929693422,0.10479423924546014
19.261376,18.74939563162963,0.10442121003926315
19.263756,18.71864080076526,0.10404990744600186
19.266152,18.69137831471453,0.10365648820585976
19.268544,18.664814676798102,0.10324775627834923
19.270924,18.64202292294903,0.10281138706108478
19.27332,18.620302104286598,0.10236843424640649
19.275712,18.602073630437797,0.10190227971847911
19.278092,18.58319353028294,0.10143150625704125
19.280488,18.560309228635248,0.10097567908044235
19.282876,18.536633531054644,0.10051818475967202
19.28526,18.51002456716784,0.10006994189339391
19.287656,18.479690941041923,0.0996306993517721
19.290044,18.445492883050033,0.09920329507727546
19.292424,18.40594014912495,0.09880058357193583
19.294828,18.362942292214477,0.0984012519596254
19.297216,18.317523025677005,0.09801580317447528
19.2996,18.269961888766257,0.09763917426097476
19.301996,18.222121212601785,0.09726618023838532
19.304384,18.169484939011564,0.09690678878819889
19.306768,18.111773528741868,0.09656586918679065
19.309164,18.056064219218587,0.09621525535736423
19.311552,17.99700233450854,0.09588079322432627
19.313936,17.930304133865157,0.0955831666542451
19.316332,17.872498279938974,0.09526680444275945
19.31872,17.812922642691852,0.09496710016104291
19.321104,17.75614050212407,0.09465842007970007
19.3235,17.697169269354767,0.0943743654484306
19.325888,17.64429688662333,0.09407977574299049
19.328272,17.592727756504008,0.09378936475920556
19.330668,17.545115606049272,0.09349887473902647
19.33306,17.503742075259268,0.09319588702482481
19.33544,17.46539435857408,0.09289530847883842
19.33784,17.426999420060646,0.09260962874503065
19.340228,17.3949828708388,0.09230913985484179
19.342608,17.36664376202782,0.09201448564544149
19.345008,17.343472337694934,0.09171314291029352
19.347396,17.321464396347302,0.09141964393980308
19.349776,17.303692973917983,0.09112241486940427
19.352176,17.29174086227281,0.09082188999403426
19.354564,17.29082296771812,0.09049631977348209
19.356948,17.294653448760936,0.09017372516123646
19.359344,17.30830744208073,0.08983486905843648
19.361732,17.33406658767764,0.08946714857093035
19.364116,17.357404323647557,0.08911631518642786
19.366512,17.385630204841846,0.0887664283895066
19.368904,17.41152722420775,0.08844584377379183
19.371288,17.4468756687983,0.08810177864203943
19.373688,17.480454330067907,0.08777672696320994
19.376072,17.52106300693516,0.08744401755852547
19.378452,17.561904001227894,0.08712338008140554
19.380848,17.59855380257269,0.08683612057820542
19.383232,17.640511058022437,0.08654294169365209
19.385612,17.689917637950405,0.08623411058815023
19.388008,17.737694204184294,0.08594145262986119
19.390396,17.791849159709773,0.08563924878220855
19.392776,17.845584806354676,0.08534618492915086
19.39518,17.905559072664303,0.08504596043032327
19.397568,17.96190122453343,0.08476818799699871
19.399948,18.020617564201313,0.08449407312133896
19.402352,18.07584155905556,0.08424045057506264
19.404736,18.129715079469452,0.08399799199213545
19.407116,18.179444628763648,0.0837723484168614
19.40952,18.224750667684425,0.08356830467127119
19.411908,18.26963739772463,0.08337266843374151
19.414288,18.315734832578332,0.08317183728446895
19.416692,18.363834368178445,0.08296513671267491
19.419076,18.41193390377856,0.08276075757018798
19.42146,18.464037640871513,0.08254548482761531
19.423856,18.51199740684477,0.08234593667686667
19.426244,18.561819503937585,0.08214383817793722
19.428624,18.618067212150223,0.08191764745530114
19.43102,18.67124188442981,0.08170280342061494
19.433408,18.723345621522768,0.08149374780738454
19.435788,18.777591228988996,0.08127730622446332
19.43818,18.82382843346955,0.08108471855828159
19.440568,18.871788199442808,0.0808921863399158
19.442948,18.914300741684254,0.08070803616599541
19.445344,18.959886319858754,0.08051463537702212
19.447732,19.004960041354057,0.08031708200370105
19.450116,19.051104698036,0.0801163175571304
19.452512,19.096597728411883,0.07991320153143121
19.454896,19.143581002854987,0.0797000082272557
19.457296,19.19312545655195,0.0794729741311129
19.459688,19.246022485435685,0.07923329787692115
19.462076,19.293984147266812,0.07900700580886742
19.46446,19.344227449098078,0.07877179780629617
19.466856,19.389814923130444,0.07854550092286808
19.46924,19.434611001229904,0.0783199721498243
19.47162,19.48103709302343,0.07808232195634024
19.474016,19.523226665898655,0.07784553630234062
19.476408,19.560620641348123,0.07761943824455478
19.478788,19.597362990491533,0.07739063560490077
19.481184,19.63466441814239,0.07715406753931826
19.483568,19.670103514673684,0.07692100148868578
19.485968,19.71331869676517,0.07665883001799217
19.488364,19.756301561431183,0.07638802170561416
