Time,Force,Position
26.336564,0.3916325331090416,0.0
26.33896,0.4057870079608198,0.0
26.341348,0.42008125243945815,0.0
26.343732,0.4355862017315953,0.0
26.346128,0.4458762447174,0.0
26.348516,0.4552351221434264,0.0
26.3509,0.4588672365839226,0.0
26.353296,0.4597058543450838,0.0
26.355684,0.45868214098668847,0.0
26.358068,0.45658749244165453,0.0
26.360464,0.457565879829676,0.0
26.362852,0.46268823833739137,0.0
26.365236,0.47474806464413566,0.0
26.367632,0.4795908838981306,0.0
26.37002,0.4802897320324317,0.0
26.372404,0.47498227792748215,0.0
26.3748,0.4639480608370025,0.0
26.377188,0.44998057744032766,0.0
26.379572,0.42958748292382165,0.0
26.381968,0.40491064766076157,0.0
26.384356,0.37930264683792314,0.0
26.38674,0.35797838676163884,0.0
26.389136,0.3415894937379666,0.0
26.391524,0.3307875940729642,0.0
26.393908,0.3270629318338509,0.0
26.396308,0.32520060071429413,0.0
26.398692,0.3294843414608483,0.0
26.401076,0.33455947814032067,0.0
26.403472,0.33642180925987736,0.0
26.405864,0.3344197085134605,0.0
26.408244,0.3318585292596028,0.0
26.410644,0.3210094077663572,0.0
26.413032,0.30322281847408283,0.0
26.415412,0.2865071643684469,0.0
26.417808,0.2707226758225894,0.0
26.420196,0.2637379861953174,0.0
26.42258,0.25754469250096346,0.0
26.424976,0.2594995714191372,0.0
26.427364,0.2728154285097541,0.0
26.429748,0.28748176004073,0.0
26.432144,0.3000062211984288,0.0
26.434532,0.3042427401167398,0.0
26.436916,0.30596530160943625,0.0
26.439312,0.3041029704898796,0.0
26.4417,0.29944714269098793,0.0
26.444084,0.2937203797054578,0.0
26.44648,0.2824991711598747,0.0
26.448868,0.27155750186801214,0.0
26.451252,0.26462003406898327,0.0
26.453648,0.26261793332256644,0.0
26.456036,0.25703093996389653,0.0
26.45842,0.25465675216514216,0.0
26.460816,0.2541448954859445,0.0
26.463204,0.2567060747398022,0.0
26.465588,0.2601984195534382,0.0
26.467984,0.2611768069414597,0.0
26.470372,0.2632261295161197,0.0
26.472756,0.25898961059780873,0.0
26.475152,0.24632537981324973,0.0
26.477544,0.23538371052138715,0.0
26.479924,0.22472158048324498,0.0
26.48232,0.22206785343077023,0.0
26.484708,0.21578201193779925,0.0
26.487092,0.20749406969841144,0.0
26.489492,0.19613309152596822,0.0
26.491876,0.1850516526072454,0.0
26.49426,0.174249752942243,0.0
26.496656,0.1628274408061251,0.0
26.499044,0.15109437558134445,0.0
26.501428,0.13673879713903137,0.0
26.503824,0.12980132934000252,0.0
26.506212,0.12458642303367007,0.0
26.508596,0.12337571822017132,0.0
26.510992,0.12309617896645089,0.0
26.51338,0.12323594859331108,0.0
26.515764,0.12095430859317383,0.0
26.518164,0.11881243821989679,0.0
26.520552,0.11988337340653532,0.0
26.522932,0.12244455266039302,0.0
26.525332,0.12407456635447237,0.0
26.52772,0.12542504079483133,0.0
26.5301,0.12398201855585529,0.0
26.5325,0.12775390262321173,0.0
26.534888,0.13031508187706942,0.0
26.53728,0.13860302411645725,0.0
26.539676,0.14582003116920658,0.0
26.542068,0.15611007415501124,0.0
26.544456,0.16767215591798937,0.0
26.546852,0.1775428900232134,0.0
26.54924,0.18896520215933135,0.0
26.551628,0.1920382380923867,0.0
26.554024,0.19245754697296735,0.0
26.556412,0.19022312880107323,0.0
26.5588,0.18598660988276225,0.0
26.561196,0.18039961652409228,0.0
26.563584,0.1757437887252007,0.0
26.565972,0.17080842167258872,0.0
26.568368,0.1657332849931165,0.0
26.570756,0.16144954424656235,0.0
26.573144,0.152090666820536,0.0
26.57554,0.1447338901409265,0.0
26.577928,0.13709757420759655,0.0
26.580316,0.12745915752784978,0.0
26.582716,0.12703984864726914,0.0
26.585104,0.12289587752757525,0.0
26.5875,0.11968307196765966,0.0
26.589908,0.11661003603460428,0.0
26.592292,0.11488747454190784,0.0
26.594692,0.11530678342248846,0.0
26.597088,0.11279282599687393,0.0
26.599476,0.11614540118364973,0.0
26.601872,0.12215170342290027,0.0
26.604272,0.12573659603515336,0.0
26.606656,0.13239452458046178,0.0
26.609056,0.14198571943196542,0.0
26.611452,0.14985435279077264,0.0
26.61384,0.16000462614971708,0.0
26.616236,0.1682925683891049,0.0
26.61864,0.17765144581513123,0.0
26.621028,0.19702082697324186,0.0
26.623428,0.217461143317991,0.0
26.62582,0.23724983335668226,0.0
26.628208,0.2570385233953735,0.0
26.630608,0.27082091119481416,0.0
26.633004,0.28539469492717295,0.0
26.635404,0.2990373130997534,0.0
26.6378,0.30932735608555817,0.0
26.640192,0.31640459351144723,0.0
26.642588,0.32255066537755805,0.0
26.644984,0.33391164355000125,0.0
26.647368,0.3412684202296107,0.0
26.649768,0.351977772095996,0.0
26.652164,0.36482899433565835,0.0
26.654552,0.36874064802987505,0.0
26.656936,0.37186090579117353,0.0
26.659336,0.37684349467202877,0.0
26.661724,0.3807551483662454,0.0
26.664104,0.3843872628067416,0.0
26.666504,0.384666802060462,0.0
26.668892,0.3781486431420138,0.0
26.671272,0.36962838347714866,0.0
26.673672,0.3626909156781198,0.0
26.67606,0.3557534478790909,0.0
26.67844,0.34625480082620436,0.0
26.68084,0.33503359228062135,0.0
26.683224,0.32460377966795645,0.0
26.685608,0.31831793817498544,0.0
26.688004,0.3111009311222362,0.0
26.690392,0.3045355503755448,0.0
26.692776,0.2895424577626054,0.0
26.695172,0.27655146589608287,0.0
26.697564,0.2564832366036712,0.0
26.699948,0.23934827361745467,0.0
26.702344,0.2318045054827418,0.0
26.704732,0.22211886697475186,0.0
26.707116,0.21643742995959564,0.0
26.709512,0.20433038182460822,0.0
26.7119,0.19450497368975805,0.0
26.714284,0.1901740111149608,0.0
26.71668,0.1895677107792768,0.0
26.719068,0.18709907932403622,0.0
26.721452,0.18397882156273768,0.0
26.723848,0.18286066454785596,0.0
26.72624,0.18416391715997174,0.0
26.728624,0.18919183201120082,0.0
26.73102,0.19515091242220822,0.0
26.733408,0.1991078920867988,0.0
26.735792,0.20706907324422305,0.0
26.738188,0.21237652734917256,0.0
26.740576,0.22410959257395327,0.0
26.74296,0.23691359298537248,0.0
26.74536,0.25251109007612665,0.0
26.747748,0.2631732201142688,0.0
26.750132,0.26610648642046403,0.0
26.752528,0.2701106879132977,0.0
26.754916,0.2651753208606857,0.0
26.7573,0.2697386008609602,0.0
26.759696,0.27309117604773603,0.0
26.762084,0.27094930567445896,0.0
26.764468,0.2668053345547651,0.0
26.766864,0.2683881264206012,0.0
26.769256,0.26754950865944,0.0
26.77164,0.2647087901518619,0.0
26.774036,0.2629390068309223,0.0
26.776424,0.2614487627637032,0.0
26.778808,0.26023805795020444,0.0
26.781204,0.25781664832320694,0.0
26.783592,0.25032010201673716,0.0
26.785976,0.24855031869579755,0.0
26.788376,0.24822355761383397,0.0
26.790764,0.24868819246478852,0.0
26.793148,0.25129469768902013,0.0
26.795548,0.2586968003390036,0.0
26.79794,0.27582986746735083,0.0
26.800316,0.290821064222421,0.0
26.802712,0.31233041989593946,0.0
26.805095999999995,0.32955603482290374,0.0
26.807476,0.3451988578840318,0.0
26.80988,0.3641942561319357,0.0
26.812268,0.38533152475311666,0.0
26.814644,0.3993915559484085,0.0
26.817052,0.4169439319573364,0.0
26.819436,0.4302125672197102,0.0
26.821816,0.44227049766858517,0.0
26.82422,0.4509758529306843,0.0
26.826608,0.4566081722597283,0.0
26.828988,0.4637307356559912,0.0
26.831392,0.4777907668512831,0.0
26.833776,0.48570472618046423,0.0
26.83616,0.4911047280840308,0.0
26.838556,0.4927800677484841,0.0
26.840944,0.4953865729727157,0.0
26.843324,0.49119538002477864,0.0
26.84572,0.4786236970388367,0.0
26.848108,0.4731292514787838,0.0
26.850484,0.4671229492395333,0.0
26.852892,0.4623273518137815,0.0
26.85528,0.4609768773734225,0.0
26.85766,0.45948663330620343,0.0
26.860056,0.4552028925596493,0.0
26.86244,0.4553426621865095,0.0
26.864823999999995,0.4541319573730107,0.0
26.86722,0.45720499330606607,0.0
26.869608,0.4602780292391215,0.0
26.871988,0.46255966923925873,0.0
26.874392,0.47084761147864646,0.0
26.876776,0.4805785759570103,0.0
26.879156,0.4835118422632055,0.0
26.88156,0.4887267485695379,0.0
26.883948,0.49459328118192825,0.0
26.886324,0.5029737712199331,0.0
26.888724,0.5033458582722707,0.0
26.891108,0.5095844779369986,0.0
26.893488,0.5172661198407024,0.0
26.895896,0.5181500635722376,0.0
26.898284,0.5188942376769126,0.0
26.900663999999995,0.5144235054752551,0.0
26.90306,0.5093011469675397,0.0
26.905448,0.5043185580866845,0.0
26.907828,0.5009187610716654,0.0
26.910224,0.49616848961628746,0.0
26.912612,0.4923493837206879,0.0
26.914992,0.49053237857150517,0.0
26.917388,0.4883432863699849,0.0
26.919775999999995,0.49136910047479715,0.0
26.922156,0.4874574467805805,0.0
26.924552,0.4818232315936674,0.0
26.926936,0.48312648420578325,0.0
26.92932,0.4865716071911761,0.0
26.931716,0.4902962694302894,0.0
26.934104,0.49229837017670625,0.0
26.936484,0.5004465427892338,0.0
26.93888,0.5039388876028699,0.0
26.941268,0.5086419372300047,0.0
26.943648,0.5132052172302792,0.0
26.946048,0.515906166110997,0.0
26.948436,0.5239617909249077,0.0
26.950832,0.5309464805521796,0.0
26.953236,0.5359290694330349,0.0
26.955624,0.5381181616345551,0.0
26.958004,0.5364428219701018,0.0
26.960408,0.5330449208129521,0.0
26.962792,0.5276449189093856,0.0
26.965172,0.5224772344312963,0.0
26.967572,0.513817205139571,0.0
26.96996,0.5099527732735976,0.0
26.972336,0.5050174062209855,0.0
26.974744,0.4950069024889012,0.0
26.977132,0.47763962207720745,0.0
26.979512,0.45999280241179324,0.0
26.981908,0.444487853119656,0.0
26.984296,0.43070546532021525,0.0
26.986676,0.4231616971855024,0.0
26.989072,0.4202737568496812,0.0
26.99146,0.4226932706188095,0.0
26.993839999999995,0.4252053321865548,0.0
26.996236,0.43032389897853174,0.0
26.998624,0.43604687024832334,0.0
27.001004,0.4467505345411009,0.0
27.003408,0.46308651816292234,0.0
27.005796,0.49185251928595625,0.006365162052211619
27.008175999999995,0.5256917612305931,0.013075034604710663
27.010572,0.5643247047431126,0.020098503508996852
27.01296,0.612267407995546,0.02716971994784659
27.01534,0.6663070654279779,0.034569524664122504
27.017736,0.7246738937194684,0.04232792177370964
27.020124,0.7948172173482444,0.050130158611852715
27.022504,0.876317727433725,0.05805104575545411
27.024908,0.9779752228944959,0.06584072705532892
27.027296,1.087078251117755,0.07395030282012012
27.029679999999995,1.2057214606485358,0.08227914591200865
27.032076,1.334184390740559,0.09069736424849471
27.034464,1.4758196165806006,0.09901592978684037
27.036844,1.6271347933550244,0.10736300800040828
27.03924,1.7897599347579098,0.11570433396720949
27.041628,1.9717034437749241,0.12392193908854333
27.044008,2.1635138951814237,0.13216724452579678
27.046408,2.3722685264032983,0.14033469716545569
27.048796,2.59172871777582,0.14849696642221288
27.05118,2.8243158789259852,0.15660491736249676
27.053576,3.0649548731743232,0.15831924604727526
27.055959999999995,3.3208627075735824,0.15960316909326913
27.058344,3.5923189213774833,0.16048232388392994
27.060748,3.8704311678688232,0.1613063497231196
27.063132,4.1605541229807965,0.1617513775725531
27.065516,4.459522202981728,0.16183204728569842
27.067912,4.7629591193264496,0.16185642065863112
27.070295999999995,5.069421849775983,0.16177543580874443
27.07268,5.373882479479101,0.16182344974563434
27.075076,5.684396633249712,0.16151842056120436
27.07746,5.997286870676946,0.16096047101555006
27.07984,6.3078973639619145,0.16030793956721143
27.082239999999995,6.609150875678723,0.15979438933693565
27.084624,6.905750455454512,0.159245370859959
27.08702,7.198347729595334,0.1586850624983577
27.089424,7.4822868703023016,0.15823662041350248
27.091812,7.7614323094413855,0.15775900278694982
27.094192,8.034341024773614,0.1573166626340708
27.096588,8.299942081112341,0.1568818137151032
27.098976,8.558794556965015,0.156458648941028
27.101356,8.809595199719515,0.15603068425017147
27.103756,9.046896785644034,0.15567271904030006
27.106144,9.268045587686096,0.15540319413301965
27.108524,9.479839304017869,0.15511089407346312
27.110924,9.679484437960019,0.15483825357347314
27.113312,9.871264730259101,0.15451343728056613
27.115692,10.052246914608919,0.15416919686963712
27.118092,10.224572861382747,0.15377076218676114
27.12048,10.38754372244629,0.15334699625460718
27.12286,10.542230432986184,0.1528947494914236
27.125256,10.691798576734096,0.15240048508707948
27.127644,10.83676001036923,0.1518616166734374
27.130028,10.980327539451503,0.15123008605510083
27.13242,11.11593578323422,0.150595368358734
27.134808,11.244655676904019,0.14994874963238014
27.137191999999995,11.3694204867671,0.14926250207923658
27.139588,11.492092543943016,0.14852031831209572
27.141976,11.603312971005739,0.14782500966159134
27.144356,11.712952502060496,0.14707790208618182
27.146756,11.816587626733874,0.1463381316057552
27.149144,11.912867870585508,0.14562076319742878
27.151524,12.006309291787433,0.14489091293903142
27.15392,12.098774221459207,0.1441317336270807
27.156308,12.186398227734854,0.1433796758686929
27.158704,12.268762001733798,0.1426459652022167
27.161107999999995,12.34637740013523,0.14194095622469463
27.163496,12.421386293312432,0.1412369076899119
27.165876,12.4943005379446,0.140540863421015
27.168272,12.565259903658596,0.13984586717181843
27.170656,12.629840880081003,0.13920244120348044
27.17304,12.686972532025184,0.1386225340227553
27.175436,12.738936499491274,0.1380762592356356
27.17782,12.786663948039052,0.13755707964812194
27.180204,12.835369783974853,0.13701194662505164
27.1826,12.88212074099248,0.1364658593130272
27.184984,12.923704013532017,0.13595135535256528
27.187364,12.958257270473908,0.1354802565528913
27.189764,12.992578209990324,0.13499481533030416
27.192148,13.02201100428237,0.13453108592664503
27.194532,13.045484718163406,0.13409626308514896
27.196928,13.066724013872554,0.13366403774167182
27.199316,13.08172468991697,0.13326734453667125
27.201712,13.092628616669934,0.1328863897289489
27.204108,13.101949751557065,0.13251029275241927
27.206496,13.110619260138135,0.1321324116989107
27.208876,13.114772710547175,0.13178114601665172
27.211272,13.115061729090241,0.13145815921460066
27.21366,13.111905624647916,0.1311515386713631
27.21604,13.10809789389953,0.13084329255498173
27.218444,13.100565500912031,0.1305579093515753
27.220832,13.09186962493928,0.13026396025738954
27.223212,13.079588856354274,0.12998914785356938
27.225608,13.061860864037458,0.12974533245373113
27.227996,13.037474943175335,0.12954653934424745
27.23038,13.010575064887597,0.12935654333602076
27.232776,12.978088193241186,0.12920130639255345
27.235164,12.942947594542304,0.12905899555456557
27.237544,12.908226304723998,0.12890354611577542
27.239948,12.868429878226223,0.12878903298415398
27.242336,12.828353912474729,0.12868215607834835
27.244716,12.79028004746965,0.12855833745836204
27.24712,12.75434805283785,0.1284139318193581
27.249507999999995,12.721069785258523,0.12825477662986123
27.251888,12.684718481746142,0.12812073593629886
27.254284,12.64743601267398,0.12799174357933563
27.256672,12.61201587472138,0.1278502706398769
27.259052,12.57831829826147,0.12770052845780303
27.261448,12.543130477734344,0.12757244683128985
27.263836,12.502448211647163,0.12749814816018265
27.266216,12.47056574447857,0.12735753392739624
27.268612,12.433980227682842,0.12726907838754606
27.271,12.400979603499366,0.12716063375333939
27.273384,12.370353167114644,0.12704659904240395
27.27578,12.345034184834873,0.1269049100544995
27.278164,12.315663779234027,0.12681852473271782
27.280548,12.289458957364849,0.12672508443427113
27.282944,12.265488553667566,0.12663017621586517
27.285332,12.244032107395899,0.1265249060038586
27.287728,12.229093820042678,0.12637747776784408
27.290128,12.215738324555295,0.1262262039169749
27.292516,12.197959318694497,0.12611968458762543
27.294896,12.181623335072675,0.1260135251175026
27.297291999999995,12.159932675517663,0.1259581330361729
27.29968,12.141687138948042,0.1258871714358964
27.302064,12.123813689430758,0.1258270534663423
27.304464,12.10738326215245,0.12576740250523977
27.306852,12.091464691553337,0.12571435513868712
27.309236,12.07806007837984,0.12565187383335388
27.311632,12.071592933005375,0.12553467408025623
27.314016,12.056418536510941,0.1255033907252338
27.3164,12.04976439968137,0.12541417833926383
27.318795999999995,12.044693054717637,0.12532164194486523
27.321184,12.043066832739296,0.12521397577799653
27.323564,12.039298740387677,0.12512661866406893
27.325963999999995,12.042468115835089,0.12498493857922328
27.328348,12.049781462402194,0.12480704605303197
27.330732,12.058025974529075,0.12462327909329808
27.333128,12.061986745909405,0.12448027817706694
27.335516,12.06380564691646,0.12435783627199273
27.3379,12.06655571348329,0.1242295600669838
27.340296,12.076243247849149,0.12404795106267955
27.342684,12.088304970013763,0.12386243317996495
27.345068,12.104882750350406,0.12365165976405285
27.347464,12.12024982587355,0.12345507850770841
27.349852,12.138550167702892,0.12323740023143982
27.352232,12.155500035091876,0.12303850360714233
27.354632,12.172310132854,0.1228439140376416
27.35702,12.18991162654904,0.12264811058451383
27.3594,12.207745437669558,0.12246901673686848
27.361804,12.231725320656187,0.12223841421496699
27.364192,12.255565434015955,0.12201403396490786
27.366572,12.277123907375586,0.12181408365453435
27.368972,12.297611445548577,0.12162473002045628
27.37136,12.319821545214266,0.12142844658661787
27.373744,12.341752105626233,0.12124163269324549
27.37614,12.362844048277042,0.12108070950652708
27.378523999999995,12.386310178726601,0.12091641832191286
27.380908,12.413221432161556,0.1207384335349029
27.383304,12.440504772648847,0.12057166829881098
27.385691999999995,12.471373005748394,0.12038857596217706
27.388076,12.500611225153856,0.12023293282363427
27.390472,12.527055947879985,0.12009407109239924
27.392859999999995,12.553360900979255,0.11995959337672346
27.395244,12.586603321877556,0.11977731436685263
27.39764,12.619566203522133,0.11960441506952293
27.400027999999995,12.65373978998021,0.11941849962829247
27.402412,12.689775707557846,0.1192226706032538
27.404808,12.729815826628313,0.11900014342141865
27.407195999999995,12.768412923459808,0.11877744545108386
27.40958,12.808732581783994,0.11855082534623806
27.411976,12.845048038615351,0.11835305865924327
27.414364,12.881503265073563,0.11815121671876165
27.416748,12.919029426718415,0.11794138589603965
27.419144,12.957626523549907,0.11772363059539043
27.421532,12.994501058888702,0.11751274580867664
27.423912,13.029001406428746,0.11730532123534695
27.426312,13.062710358035869,0.11710025930074108
27.4287,13.094417208896573,0.11690921322846477
27.43108,13.125751972704942,0.1167078444870841
27.43348,13.15229113908756,0.11653594440032726
27.435868,13.178178679164118,0.11636189813923827
27.438248,13.204205988867535,0.11618408329063595
27.440643999999995,13.229581672264898,0.11600367737006206
27.443032,13.24881128379615,0.11586927980009554
27.445416,13.263245297901648,0.11576280611836767
27.447811999999995,13.27674814644737,0.11566141756619948
27.4502,13.288528433500392,0.11556615677926836
27.45258,13.29043798644819,0.11553452394857969
27.454976,13.290065899395856,0.11552403886956111
27.457364,13.284898214917764,0.11554140809414112
27.45976,13.284945436746009,0.11551953992541057
27.46216,13.284992658574252,0.11549767175667998
27.464544,13.285179650029354,0.11547208157953902
27.466928,13.286717115924818,0.11543059309477427
27.469328,13.291187848126475,0.11537148377065988
27.471716,13.29658974588791,0.11530769143447524
27.474096,13.299477686223732,0.1152504451972972
27.476496,13.302924705066994,0.11517817151105568
27.478884,13.305021249469899,0.11512178444469014
27.481264,13.306978024245943,0.11506905832329258
27.483664,13.308934799021985,0.11501644142440702
27.486052,13.31075180417117,0.11496759311303478
27.488436,13.314431140439908,0.11490958805569443
27.490832,13.315316980029314,0.11486535370986412
27.49322,13.32127795629819,0.11478651360309731
27.4956,13.328170098126844,0.1147031536915419
27.498,13.335202009582359,0.11461612196609147
27.500388,13.35024232402354,0.11447666696895843
27.502772,13.366493343278222,0.11432487159497672
27.505168,13.382744362532906,0.11417274995501348
27.507556,13.390055813242139,0.11407771674711463
27.50994,13.399509134324655,0.11396609727041641
27.512336,13.404818484287471,0.11388439791691601
27.514728,13.403702223130457,0.11385316284443361
27.517112,13.395508724547556,0.11386949830394633
27.519508,13.387454995591515,0.11388199540183651
