Time,Force,Position
25.8603,0.004564322428759001,0.0
25.862688,0.007570860036051624,0.0
25.865068,0.007570860036051622,0.0
25.867464,0.008854836150647813,0.0
25.869852,0.013072078571439175,0.0
25.872232,0.018220486552008853,0.0
25.874628,0.024719368972937486,0.0
25.877016,0.03336012176714319,0.0
25.879396,0.04400297530776572,0.0
25.881796,0.05278349772883163,0.0
25.88418,0.06356612089631439,0.0
25.88658,0.07728201036999231,0.0
25.888976,0.08885602947039319,0.0
25.891364,0.10043004857079404,0.0
25.893744,0.1107200915565987,0.0
25.89614,0.12180153047532151,0.0
25.898528,0.13167226458054557,0.0
25.900912,0.14568696980546353,0.0
25.903308,0.1598414446572417,0.0
25.905696,0.17506685469565839,0.0
25.90808,0.18735899842787992,0.0
25.910476,0.19071157361465574,0.0
25.912864,0.19786208234164226,0.0
25.915244,0.20666188126022778,0.0
25.91764,0.21052631312620124,0.0
25.920028,0.21280795312633852,0.0
25.922412,0.21145747868597956,0.0
25.924808,0.20475232831242796,0.0
25.927196,0.19497414200582097,0.0
25.92958,0.1899915531249658,0.0
25.931976,0.18007359719149862,0.0
25.934364,0.16736214457869647,0.0
25.936744,0.15679256233917138,0.0
25.939144,0.1452185432387705,0.0
25.941528,0.13378429376522988,0.0
25.943912,0.12363402040628538,0.0
25.946308,0.1125525814875626,0.0
25.948696,0.09832483533468697,0.0
25.95108,0.08395731955495113,0.0
25.953484,0.06851886858857678,0.0
25.955868,0.055082518368619285,0.0
25.958252,0.04872340557455086,0.0
25.960648,0.04262455553668325,0.0
25.96304,0.03254078050350153,0.0
25.96542,0.024459106216736685,0.0
25.967824,0.017029058236029727,0.0
25.970212,0.011880650255460043,0.0
25.972592,0.009945047834805952,0.0
25.974988,0.009852500036188892,0.0
25.977376,0.006966455558236873,0.0
25.979756,0.006734138132759604,0.0
25.982152,0.006222281453561914,0.0
25.98454,0.008783460707419605,0.0
25.98692,0.011417911262374746,0.0
25.98932,0.013260965884411778,0.0
25.991708,0.012116759396675796,0.0
25.994088,0.011903718468718138,0.0
25.996488,0.011903718468718138,0.0
25.998872,0.011903718468718138,0.0
26.001256,0.012908155329593907,0.0
26.003652,0.012908155329593907,0.0
26.00604,0.012908155329593907,0.0
26.008436,0.011856496640474987,0.0
26.010832,0.015514660553825508,0.0
26.01322,0.021454464467313295,0.0
26.0156,0.026463102821022773,0.0
26.018004,0.033334072294288884,0.0
26.020392,0.03727177546135983,0.0
26.022772,0.04043735919303227,0.0
26.025172,0.0434631732978445,0.0
26.027556,0.04597713072345904,0.0
26.02994,0.045837361096598826,0.0
26.032336,0.04227174498186536,0.0
26.034724,0.03999010498172809,0.0
26.037104,0.03822032166078851,0.0
26.0395,0.04150639852180155,0.0
26.041888,0.04386130982303627,0.0
26.044272,0.049289257057326376,0.0
26.046668,0.0509925420525032,0.0
26.049056,0.04998810519162743,0.0
26.051436,0.049988105191627434,0.0
26.053832,0.049988105191627434,0.0
26.05622,0.049988105191627434,0.0
26.0586,0.04632994127827692,0.0
26.060996,0.04039013736478913,0.0
26.063388,0.035381499011079655,0.0
26.065768,0.028510529537813536,0.0
26.068164,0.024572826370742602,0.0
26.070552,0.020635123203671654,0.0
26.072932,0.01669742003660071,0.0
26.075332,0.01355111280244788,0.0
26.07772,0.013198302247630009,0.0
26.080116,0.01319830224763001,0.0
26.082512,0.01284549169281214,0.0
26.0849,0.01277222039171469,0.0
26.08728,0.009486143530701647,0.0
26.089676,0.007131232229466926,0.0
26.092064,0.0017032849951768218,0.0
26.094444,0.0,0.0
26.09684,0.0,0.0
26.099228,0.0,0.0
26.101608,0.0,0.0
26.104008,0.00049258018167808,0.0
26.106396,0.0004925801816780799,0.0
26.10878,0.0004925801816780799,0.0
26.111184,0.00049258018167808,0.0
26.113572,0.00049258018167808,0.0
26.115952,0.00049258018167808,0.0
26.118348,0.00049258018167808,0.0
26.120736,0.00049258018167808,0.0
26.123116,0.00049258018167808,0.0
26.125512,0.00049258018167808,0.0
26.127896,0.00049258018167808,0.0
26.130276,0.00049258018167808,0.0
26.132672,0.00049258018167808,0.0
26.13506,0.00049258018167808,0.0
26.13744,0.00049258018167808,0.0
26.139836,0.00049258018167808,0.0
26.142224,0.00049258018167808,0.0
26.144608,0.00049258018167808,0.0
26.147004,0.00049258018167808,0.0
26.149392,0.00049258018167808,0.0
26.151772,0.0,0.0
26.154168,0.0015162935400734596,0.0
26.156556,0.006897018946120409,0.0
26.15894,0.01628194584500106,0.0
26.161336,0.025527103117021506,0.0
26.163724,0.034912030015902165,0.0
26.166104,0.04550766172828156,0.0
26.1685,0.05689468937357906,0.0
26.170892,0.06828171701887657,0.0
26.173272,0.0846041117167861,0.0
26.175668,0.10092650641469562,0.0
26.178056,0.11710913148574494,0.0
26.180436,0.1358057139824088,0.0
26.182852,0.15007878610565833,0.0
26.18524,0.16579488046788385,0.0
26.187636,0.18188306188244688,0.0
26.190032,0.19913472628226547,0.0
26.19242,0.21661870810756137,0.0
26.1948,0.23512640329125262,0.0
26.197196,0.25824270444559233,0.0
26.199584,0.2838257411973034,0.0
26.201964,0.3083571192598956,0.0
26.204368,0.32841776512083026,0.0
26.206752,0.34759257139236055,0.0
26.209136,0.36974596994045994,0.0
26.211532,0.3966005222578248,0.0
26.21392,0.42587458834431785,0.0
26.2163,0.45798747708051984,0.008997202003339479
26.218696,0.49824664257138024,0.01754712376960773
26.221088,0.5377125162714532,0.026263109854987407
26.223468,0.5830430267260472,0.034974837200056466
26.225864,0.6343779435620227,0.0436830456411374
26.228252,0.6879926045402661,0.052509972824216926
26.230636,0.7557598445124185,0.06099802964108321
26.233032,0.8286003253061738,0.06949956382665384
26.23542,0.906514046921532,0.07810413851461481
26.237804,0.9891289223061559,0.08671262666212468
26.2402,1.079750304818578,0.09524484445553025
26.242588,1.176004006660044,0.10375967395352834
26.244972,1.2773781711513559,0.11207557568078406
26.247368,1.386806064598709,0.12020283554900811
26.249756,1.504008147748383,0.1283002141859316
26.25214,1.6300553557870168,0.13637096181970046
26.254536,1.7625262790876124,0.14442287873184578
26.256924,1.9019799961576112,0.1524249228710594
26.259308,2.0467864933029327,0.16041624763473103
26.261704,2.199879036829773,0.16835874258831726
26.264092,2.363259727484549,0.16719776720272933
26.266476,2.527477140042617,0.16653234967384573
26.268876,2.6994687423030057,0.16566509026623055
26.271264,2.8761614983326598,0.16482629631574192
26.27364,3.0600693655571938,0.1639744674080157
26.276036,3.2524030487901068,0.16297840508257494
26.27842,3.449158346538565,0.16228005792769976
26.280816,3.650894337310009,0.1615729617358943
26.283212,3.8624066185301906,0.16070135004179437
26.2856,4.0824372635573685,0.1598223597002599
26.28798,4.311265811645263,0.1589805727295651
26.290376,4.5511266809657664,0.15812273477522173
26.292764,4.79559426039905,0.15750323202348365
26.295144,5.045227628452555,0.15707415935049762
26.297548,5.306592165872972,0.15660027911157293
26.299936,5.5746127359808275,0.1561623810049655
26.302312,5.849616099858087,0.1557089846623135
26.30472,6.132393653437666,0.15525693130625498
26.307104,6.41847656037578,0.15479797917451774
26.309484,6.705909941754253,0.15435243037418941
26.311888,6.99096913533397,0.15399320956527557
26.314272,7.278589508167545,0.15356668520028743
26.316656,7.564255002082946,0.15316534611087457
26.319052,7.849735400401115,0.15271387200923311
26.32144,8.13493815532343,0.1522162416537281
26.32382,8.416930000543699,0.1517093835329383
26.326216,8.69170673456909,0.15124473129131
26.328604,8.965646746691188,0.15074384403619923
26.330984,9.234233978737963,0.1502772400207439
26.33338,9.49714356548532,0.1497799600638789
26.335768,9.748276656895392,0.14930978599150624
26.338164,9.989403036289117,0.14882802706491619
26.340568,10.224434357360716,0.14824506566736442
26.342952,10.448947109736771,0.1476303796063379
26.345332,10.65479312080475,0.14709377190412276
26.347732,10.854404303923742,0.14647562475162446
26.35012,11.038282012040854,0.14588920986433726
26.3525,11.203632748476759,0.1453582659340803
26.354896,11.359069320694934,0.1448216142580692
26.357284,11.504684276493997,0.14430161656281582
26.359664,11.63777666699323,0.143831617016037
26.36206,11.761699067379409,0.14337297550739142
26.364448,11.881758931757483,0.14289030789718293
26.366828,11.997676720873734,0.14239542525740884
26.369228,12.101164492488776,0.14197339232263176
26.371616,12.198740405521047,0.14156992974975188
26.373996,12.293757035157336,0.14114120396363672
26.3764,12.3829090280391,0.14070784101886416
26.378784,12.464985679352846,0.14028267351653392
26.381164,12.54422350801688,0.13984610097641587
26.383568,12.619411809217706,0.1394072989973626
26.385956,12.684124971835494,0.13903206124961387
26.388336,12.738455543668863,0.13873914982693586
26.39074,12.788968905464499,0.13845782616934796
26.393124,12.836316683528462,0.1381855815468612
26.395504,12.87607536748734,0.1379752444992969
26.397904,12.919186626632996,0.1377307161544417
26.400288,12.967233252831265,0.13744688779678552
26.402668,13.013697087163695,0.13717035116802204
26.405072,13.059229755936345,0.13690249775677893
26.40746,13.113469675828965,0.13654951694755887
26.40984,13.167197739042386,0.13619256751522063
26.412236,13.213616247404444,0.13588380622738433
26.414624,13.257660567967745,0.13558613562064808
26.417004,13.302263967038487,0.13527257178563165
26.419408,13.341839451258002,0.13498093366809125
26.421796,13.379320286932481,0.13469050031985166
26.424176,13.412145294808068,0.13443237523569063
26.426572,13.441664949325123,0.13418744247247597
26.42896,13.461733178617536,0.1340071234660935
26.431344,13.482872343096584,0.13381797618821342
26.43374,13.509878040188026,0.13358559402533038
26.436128,13.54237818283952,0.13330061102275928
26.438508,13.577671822170347,0.13300048246057483
26.440912,13.615898727807371,0.13267863433478597
26.4433,13.653985863817534,0.13236159626160265
26.44568,13.685787158334726,0.1320998349698461
26.448076,13.712653085799305,0.13187594491134053
26.450464,13.739938322144466,0.13164204410796793
26.452848,13.762195643638396,0.13142715066857344
26.455244,13.774629452855347,0.1312649567392755
26.457632,13.785620239833325,0.1311030600563288
26.460012,13.799451745318878,0.13090327115211536
26.462408,13.805973695953064,0.13074486607694044
26.464796,13.81212355953491,0.1305770853811542
26.46718,13.821765767930398,0.13037382790840676
26.469576,13.828474710019686,0.1301914660204051
26.471964,13.836534126549337,0.1299925233044837
26.474344,13.84724727013146,0.12978119690198195
26.47674,13.864758111885754,0.1295237301878632
26.479128,13.882129184013186,0.12927137151688456
26.481524,13.89791746427478,0.12902372925398065
26.48392,13.910912247857041,0.12879342514145115
26.486304,13.918180268453773,0.12859960075804516
26.488688,13.92800946830436,0.12837753361303667
26.491084,13.938677285916109,0.12813392166275941
26.493472,13.954327692408716,0.1278363071838159
26.495856,13.973470443714959,0.12750516225592268
26.498252,13.99168202946142,0.12718073219690199
26.50064,14.016039687073995,0.12681127751026885
26.503024,14.043562928418241,0.12643580207601537
26.50542,14.071225939389345,0.12605741958206432
26.507808,14.100751281480008,0.12567134534552124
26.510192,14.134141055436647,0.12526033972781672
26.512588,14.166459894206643,0.12485857623610583
26.514976,14.196916401857084,0.12446888937035636
26.517356,14.226721283201469,0.12407656173387703
26.519752,14.254384294172572,0.12370226759328459
26.52214,14.283677318837759,0.12330757511697223
26.52452,14.313389652383526,0.12290525184696807
26.52692,14.339517093317038,0.12251946811461677
26.529308,14.363921972757854,0.12214075392608884
26.531692,14.386604290705977,0.1217683789007436
26.534088,14.409426378280958,0.1213915966643087
26.536476,14.431317300296161,0.12102234369374476
26.538856,14.451066351938083,0.12067065873856474
26.541256,14.466531662833457,0.1203529863659152
26.543644,14.482276512982546,0.12003008705939007
26.546024,14.495088096825443,0.11972495059159269
26.54842,14.506037349548782,0.11943070819815844
26.550808,14.517033824100366,0.11911720893313348
26.553192,14.528309837905667,0.11879727572721699
26.555588,14.533067692792521,0.11850938466273604
26.557976,14.539455561373455,0.11820019863888884
26.560372,14.553339976260858,0.11783740316952415
26.562768,14.564430894468929,0.11748773405136537
26.565156,14.57966578379669,0.11711076646113266
26.567536,14.594808125325837,0.11671728563214753
26.569932,14.603152768682813,0.11636181327730591
26.57232,14.604839483494484,0.11604046211191414
26.574704,14.607225046440451,0.11570138974707261
26.5771,14.610681544573064,0.11535476281042376
26.579488,14.613998273078813,0.11501103415333694
26.581868,14.619596641584696,0.11464828058954168
26.584268,14.621190808597747,0.11430994767539542
26.586656,14.62306451486452,0.1139646477835427
26.589036,14.624426364452095,0.11361245089648589
26.591432,14.622575408479754,0.11328385974682188
26.59382,14.622074926947771,0.11294036231371922
26.5962,14.617430474296093,0.11262381930801842
26.598604,14.611295777577196,0.11232523443668371
26.600992,14.604229915298522,0.1120307886373897
26.603376,14.599817780072325,0.11172660562355131
26.605772,14.590050968912934,0.11145993852986412
26.60816,14.567060848461542,0.11127400096797886
26.61054,14.546584685435768,0.11108217861057297
26.612936,14.525177356850213,0.11089418374494589
26.615324,14.505073280876774,0.11071128964014712
26.617708,14.489625032702225,0.11050782347237056
26.620112,14.478972381953431,0.11028046404910627
26.6225,14.469622983816752,0.11005852350326574
26.62488,14.457991945679932,0.10985453117979474
26.627276,14.447431842729753,0.10964279108109656
26.629664,14.439805006085766,0.10941616704803062
26.632044,14.43217816944178,0.10918907520337814
26.63444,14.42441156317094,0.10896517955202059
26.636828,14.42223195025877,0.10871811987941493
26.639212,14.419121171786816,0.10847461379692248
26.641616,14.417732954807558,0.10822700708722519
26.644004,14.418486608201583,0.10796448518925397
26.646388,14.42138213196888,0.10768783789081288
26.648784,14.426000217228873,0.10740737589556631
26.651172,14.43355156879506,0.10711280637865207
26.653552,14.446178057040722,0.10678915897599556
26.655952,14.46760434420497,0.10642076667961818
26.658336,14.491312271369358,0.10603614781582588
26.66072,14.512598788906743,0.10567332262187089
26.663116,14.536818572750324,0.10529775780112526
26.665504,14.558105090287713,0.10493701145900122
26.667884,14.576178802265185,0.1045976596849088
26.670288,14.597465319802573,0.10423913936768843
26.672676,14.623175347713376,0.10385064703105897
26.675056,14.652749807490153,0.10344638891333995
26.677456,14.676317965027675,0.10307421769545866
26.679844,14.702167762565338,0.10268555403230402
26.682228,14.72773802084928,0.10230364765592408
26.684624,14.750375012827025,0.10193726020496417
26.687012,14.772220608871853,0.10157035146981258
26.689396,14.792343643423985,0.10120788153879424
26.691792,14.815679483536035,0.10082677082789128
26.69418,14.83901532364808,0.10044729971331427
26.69656,14.860488832640572,0.10007531911307373
26.69896,14.881450484953865,0.09969877529658687
26.701348,14.905345403573351,0.09931181610737475
26.703728,14.925655429580585,0.09893536048103574
26.706124,14.940378462229154,0.09857830265405178
26.708512,14.956731508571796,0.09820249904470923
26.710896,14.967637331182631,0.0978429800845242
26.713292,14.982547355286298,0.09746524573313366
26.71568,14.999878789016966,0.09706869126262131
26.718064,15.01334579088166,0.09668902916195561
26.72046,15.02145811681316,0.09634082774278035
26.722848,15.026497406811606,0.09600911607059215
26.725228,15.033678567183326,0.09566465434928831
26.727628,15.041511353861107,0.09532436208085392
26.730016,15.049763449419466,0.09497456543249194
26.732396,15.056153213858272,0.09463064456170919
26.734796,15.066547179789907,0.0942688939747078
26.737184,15.075870210534905,0.09391306794659719
26.739568,15.081980435719988,0.09357617558037734
26.741964,15.084226229039098,0.09325382271359206
26.744352,15.088613892731486,0.0929199869818846
26.746736,15.088717815677317,0.09260991090073617
26.749132,15.080953105264342,0.09233166260017038
26.75152,15.078123761903978,0.09203381564175704
26.753904,15.083814678208482,0.09170901296866824
26.7563,15.087084184885986,0.09140208428078325
26.758688,15.095289058616103,0.0910759709084001
26.761072,15.096836003800913,0.09077132036326212
26.763468,15.095309913052665,0.09048054867181643
26.765856,15.091921491184861,0.09019457612346554
26.76824,15.09295657969047,0.08988259978148519
26.770636,15.092548645957105,0.08956643315358737
26.773024,15.092140712223738,0.08925021902573815
26.775408,15.088147885878119,0.08894099131274068
26.777804,15.085365764345998,0.08862317801111108
26.780196,15.086867383560431,0.08828344560341168
26.782576,15.088089463521145,0.08795068762725362
26.784976,15.090242709041634,0.0876152016623483
26.787364,15.092535724188988,0.08727661689558122
26.789744,15.097901775269396,0.08692447206205238
26.792148,15.10033456004361,0.08658287521079899
26.794532,15.105048984817959,0.08622688794651234
26.796912,15.113907380712002,0.08585181922352478
26.799312,15.115688539180157,0.08550574659303152
26.801696,15.109089207610307,0.08518111261543931
26.804076,15.101838249734396,0.08485187564487703
26.806472,15.090443320738794,0.08454105877991372
26.80886,15.08612562916908,0.08420188467874377
26.81124,15.08595190871906,0.08384456258342421
26.813636,15.088571684948377,0.08348034153699567
26.816024,15.087187259684859,0.08313103550952777
26.818404,15.089946805541034,0.08276453562933639
26.820804,15.093777286583848,0.08239316545985755
26.823192,15.102403365052414,0.08200856408597519
26.825588,15.112612235386818,0.08162707015288734
26.827984,15.119468530534448,0.08126471554166703
26.830372,15.125021573069958,0.08089507491790202
26.832752,15.13085415485919,0.08051952878699116
26.835148,15.13682650627528,0.08014111989036493
26.837536,15.142659088064512,0.07976629322046919
26.839916,15.150354000973302,0.07938769174327868
26.842312,15.156838209068592,0.07901682308745371
26.8447,15.161320316417466,0.07865283799955666
26.847084,15.166733589326117,0.07828569984971291
26.849488,15.173729654100606,0.07791991934247504
26.851872,15.184310611487348,0.07754973830006162
26.854256,15.193029237754534,0.07718236816363695
26.856652,15.195322252901885,0.0768440725254358
26.85904,15.19626479360888,0.07651719685895711
26.861424,15.194274068009676,0.07619840854791958
26.86382,15.194005903903172,0.07587855590396031
26.866208,15.185170258303557,0.0755961882836416
26.868592,15.174052972703805,0.0753260072071827
26.870988,15.157860550424582,0.07507322842488454
26.873376,15.135941365159828,0.07483325476140655
26.87576,15.113091014335295,0.07459438417323697
26.878156,15.089541815376466,0.07436982822420829
26.880544,15.067854947537187,0.07414164087435349
26.882924,15.044677835630694,0.07392636512479574
26.88532,15.019498622977782,0.07371676192730654
26.887712,14.993248475138232,0.07351126783704427
26.890092,14.970071363231737,0.07329468665383054
26.892488,14.948616812817939,0.07307746635874048
26.89488,14.93409973020317,0.07284062989738108
26.89726,14.925169640947072,0.07259499226513748
26.89966,14.914516990198274,0.07234944410767082
26.902048,14.909311563181289,0.0720977662104523
26.904428,14.909041503216915,0.07183260344660625
26.906828,14.906769342506125,0.07157314360264469
26.909216,14.910223944780862,0.07130244619808362
26.9116,14.916332274108077,0.07103090801665629
26.913992,14.929238301607459,0.07074306714257589
26.91638,14.942935725039762,0.07045654821018324
26.91876,14.96249968108445,0.07015646523506451
26.921164,14.987650630487812,0.06984846105937859
26.923548,15.016246702876566,0.0695415108507385
26.925932,15.047636271944654,0.06923144824539965
26.928336,15.076324892132025,0.06894215370518357
26.930724,15.107015613065812,0.0686475105831525
26.933104,15.139289125865439,0.06835636018574033
26.9355,15.173145430530898,0.06806916139363879
26.937888,15.20537172150228,0.06779871374513972
26.940268,15.236247538033298,0.06753859876090697
26.942664,15.262979383444627,0.06729364214577044
26.945052,15.282913530683786,0.0670635966748145
26.947436,15.30550140497542,0.06683367607381285
26.94984,15.328229048893913,0.06660210434674656
26.952224,15.35482112467838,0.06636482038754633
