Time,Force,Position
24.821212000000003,0.24625037782925702,0.0
24.823608,0.24508689484400142,0.0
24.825996000000004,0.244714807791664,0.0
24.828380000000003,0.24620505185888314,0.0
24.830776,0.2438308640601288,0.0
24.833164000000004,0.2377320140222612,0.0
24.835548000000003,0.2245559265585045,0.0
24.837948,0.20895842946775034,0.0
24.840336,0.1961544290563311,0.0
24.84272,0.18213972383141314,0.0
24.845116,0.16158818206996353,0.0
24.847504,0.14024524437559582,0.0
24.849884000000003,0.12758101359103682,0.0
24.852284,0.11384584761983926,0.0
24.854672,0.10211278239505857,0.0
24.857060000000004,0.08916901235677915,0.0
24.859456,0.08195200530402985,0.0
24.861848,0.07981013493075279,0.0
24.864236,0.08153269642344924,0.0
24.866632000000003,0.08246386198322755,0.0
24.869024000000003,0.08311548828928546,0.0
24.871408,0.08283594903556504,0.0
24.873808000000004,0.08269617940870481,0.0
24.876196,0.08204455310264692,0.0
24.878584000000004,0.08218432272950715,0.0
24.88098,0.084186423475924,0.0
24.883368,0.0920550568347312,0.0
24.885752000000004,0.10313649575345399,0.0
24.888148,0.1152888698588153,0.0
24.89054,0.1185016754187309,0.0
24.892924,0.12517828158212274,0.0
24.895324,0.13278605330529292,0.0
24.897712,0.13800095961162537,0.0
24.9001,0.14321586591795782,0.0
24.902496,0.14656844110473363,0.0
24.90488,0.15113172110500817,0.0
24.907268,0.1478263677464755,0.0
24.909668000000003,0.14128953120994386,0.0
24.912056,0.13275059392699537,0.0
24.914456,0.12407188701718665,0.0
24.91686,0.11783326735245882,0.0
24.919248000000003,0.11373651806100807,0.0
24.921644,0.10670650246336215,0.0
24.924036,0.10018834354491389,0.0
24.926424,0.0956722853728825,0.0
24.92882,0.08994552238735236,0.0
24.931216,0.08142526272248726,0.0
24.933604000000003,0.06981328950648338,0.0
24.936,0.05619921554406266,0.0
24.938396,0.05075199181225294,0.0
24.940780000000004,0.04809826475977819,0.0
24.943184,0.04158010584132994,0.0
24.945588,0.03757590434849624,0.0
24.947972,0.03142983248238547,0.0
24.950368,0.02714609173583135,0.0
24.952772000000003,0.022582811735556815,0.0
24.955168,0.022163502854976185,0.0
24.957564,0.02376497233889581,0.0
24.95996,0.028159938502150393,0.0
24.962352000000003,0.034417235784961614,0.0
24.964748,0.03744304988977385,0.0
24.967136000000004,0.03646466250175238,0.0
24.969532,0.039210937352844186,0.0
24.971932,0.03916371552460104,0.0
24.974316,0.0392562633232181,0.0
24.976712,0.03962835037555557,0.0
24.979116,0.03853873757083365,0.0
24.981504,0.04014020705475327,0.0
24.983884000000003,0.04281261172531142,0.0
24.98628,0.04798029620340071,0.0
24.988664,0.049423318442376726,0.0
24.991064,0.056732873293743075,0.0
24.993456,0.06446173702569007,0.0
24.995844,0.07540340631755263,0.0
24.998228,0.08820740672897184,0.0
25.000624,0.10208234232702959,0.0
25.003008,0.11646913460428503,0.0
25.005392,0.1279226605753453,0.0
25.007788,0.13378919318773563,0.0
25.010172,0.13178709244131878,0.0
25.012568,0.1327182580010971,0.0
25.014964,0.13951595617326573,0.0
25.017348,0.14352015766609943,0.0
25.019732,0.1515285606517668,0.0
25.022128,0.157255323637297,0.0
25.024516,0.1625627777422465,0.0
25.026896,0.17333613319708913,0.0
25.029292,0.1823682495411519,0.0
25.03168,0.19126059625835448,0.0
25.034064,0.19121337443011135,0.0
25.036464,0.19102638297500796,0.0
25.038848,0.18790612521370947,0.0
25.041228000000004,0.180641896332717,0.0
25.043624,0.17323789782486435,0.0
25.046012,0.16397156819745506,0.0
25.048408,0.15391384263712768,0.0
25.050804,0.14627752670379773,0.0
25.053192000000003,0.1417142467035232,0.0
25.055572,0.14380889524855708,0.0
25.057968,0.1580559178989523,0.0
25.060356,0.1713717749895692,0.0
25.062736,0.1797522650275741,0.0
25.065132,0.19185741730469227,0.0
25.06752,0.2019604688353936,0.0
25.069900000000004,0.21434516036623216,0.0
25.0723,0.22207402409817914,0.0
25.074688,0.2295233485764057,0.0
25.077068000000004,0.23711244268149245,0.0
25.079468,0.24269943604016236,0.0
25.081856,0.25764530682485864,0.0
25.084236,0.272591177609555,0.0
25.086640000000003,0.2855349476478344,0.0
25.089028,0.29954965287275237,0.0
25.091412,0.3135643580976703,0.0
25.093808000000003,0.3275790633225883,0.0
25.096196,0.3403830637340075,0.0
25.098576,0.3471807619061762,0.0
25.10098,0.3544903167575426,0.0
25.103368000000003,0.35923869235505124,0.0
25.105748,0.35420888164595293,0.0
25.108144000000003,0.35234465466852705,0.0
25.110532,0.3537857810496338,0.0
25.112916,0.3503840881767456,0.0
25.115312000000003,0.349588900528089,0.0
25.1177,0.35349486664869795,0.0
25.12008,0.37169318139007596,0.0
25.122476,0.38895843471380653,0.0
25.124864,0.4156732174043112,0.007606757618472386
25.127248,0.45276869502136835,0.015073153757080876
25.129644,0.4907462205120914,0.02293736028687863
25.132032,0.5361239527949286,0.031146551241304346
25.134412,0.5920674756015524,0.039566611092267875
25.136816000000003,0.6610907463575774,0.047920507894862484
25.139204,0.7359767580102542,0.05667398035319131
25.141584,0.8248264613438675,0.0653621701742148
25.143984000000003,0.9265689211717785,0.07414693360731772
25.146372,1.0458599652928788,0.08287551456131864
25.148752,1.1761814347887205,0.09165910727734213
25.151148,1.3182321777936044,0.10043349790955225
25.153536000000003,1.481743158785894,0.10901596727544659
25.155916,1.6557727084737275,0.11760480591880985
25.158320000000003,1.8439057194693569,0.12615728447450403
25.160708,2.0517764069596964,0.13458862340659158
25.163092,2.272075216093379,0.14297391098695383
25.165488000000003,2.4983312097801993,0.15137258527752082
25.167876,2.7263078691018476,0.159782800342012
25.170256,2.9667145459247077,0.16811125851050707
25.172652,3.206235383158164,0.16888434788594833
25.175040000000003,3.4470122511754924,0.16979833381593493
25.17742,3.6933288907232487,0.17031500742892808
25.179816,3.94844532918959,0.17036379254849507
25.182204,4.20789273023073,0.17010387033422456
25.184584,4.462219668622025,0.1699292297705775
25.186984,4.719481769177383,0.16929365057223994
25.189372,4.969064123686908,0.16870853579495598
25.191768000000003,5.215250472897153,0.1679679588844956
25.194168,5.456458024942281,0.16719836301320692
25.196552000000004,5.692314692769954,0.1663108349093652
25.198936000000003,5.917465800446981,0.1654524021454841
25.201332,6.128186685734247,0.16478497658191382
25.203720000000004,6.329040628632028,0.16408871491430255
25.206104000000003,6.5204469380209025,0.16336700701977636
25.2085,6.696259542034763,0.16276353506171584
25.210888,6.857409606233386,0.16222150436952648
25.213272000000003,7.0089250454680005,0.1616631360420631
25.215668,7.153459586791082,0.16105846039640573
25.218056,7.2840757624036,0.16055070351362066
25.220440000000004,7.409433601597281,0.1599627835866769
25.222836,7.523666571759736,0.15940167354994944
25.225228,7.632269118451014,0.15876559889122524
25.227612,7.727744695364649,0.15822179689679697
25.230016,7.8101858502992565,0.1577825317667968
25.2324,7.885598885494083,0.15732414803454198
25.234784,7.952214017628196,0.15691524095916282
25.23718,8.015758009687122,0.1564659528738919
25.239568,8.069153624244974,0.15609230324872764
25.241952,8.110119221301611,0.15583928755958726
25.244348,8.145824586081543,0.155618856379457
25.246736,8.183998582316717,0.15531378799937132
25.249116,8.219566073327657,0.15500471594606352
25.251512,8.251176584674008,0.15472466136808175
25.2539,8.27575708042271,0.1545244868918203
25.256284,8.299034323559301,0.15432225660457774
25.25868,8.324593206696028,0.1540768372574833
25.261068,8.34684673647422,0.15385884038399766
25.263448000000004,8.367797013640297,0.1536414393052529
25.265844,8.389446138940675,0.15339112101207678
25.268232,8.409931781255798,0.15313433137961244
25.270616000000004,8.43218720689186,0.1528263104373082
25.273012,8.450857739915671,0.15256263822729052
25.2754,8.469156185887144,0.15228700779327167
25.277784000000004,8.48629114887336,0.15200097043530564
25.28018,8.509991492606268,0.15160720136347705
25.282568,8.533459518913698,0.1511942959408771
25.284948,8.552131947795377,0.15084494026727577
25.287344,8.57415695186383,0.15043747978697744
25.289736,8.601676401492337,0.14993726879413655
25.292116,8.626681893695231,0.14945910177618799
25.294512,8.647171327726094,0.14903342191875735
25.2969,8.66621773951798,0.14861047060619148
25.299284,8.685683460190445,0.14816871068133922
25.30168,8.706639424930131,0.1476905190289922
25.304068,8.727363072244339,0.14719286360996986
25.306452,8.745992071013513,0.14669864555999293
25.308848,8.769603658663543,0.1461083874965092
25.311236,8.790049662581898,0.14553788506926774
25.31362,8.80891287463442,0.14497671096799739
25.316016,8.825122359634467,0.14444233608259596
25.318404,8.842542549448009,0.14388881086264174
25.320788,8.856889703328498,0.14337839610322511
25.323184,8.869606843514909,0.14291057097231186
25.325572,8.888562603366047,0.14238750084155635
25.327956,8.899090651350939,0.14199083074910482
25.330352,8.909711247134444,0.141621762542515
25.33274,8.923916735530204,0.1412198196642594
25.335120000000003,8.93835454135144,0.1408407923547475
25.337524,8.948880693478461,0.14054006253525497
25.339912,8.960058471911541,0.14024173352199298
25.342296,8.972167415904398,0.13993470393500457
25.344692,8.987209626203448,0.1395941068748597
25.34708,9.00318300206228,0.1392451197609642
25.349464,9.018597299413669,0.13892029774351053
25.35186,9.034523453444255,0.13860512730711844
25.354248,9.04975075934054,0.13832011130426203
25.356628,9.062137346729248,0.13809772106832324
25.359024,9.074756251543434,0.1378955276832312
25.361412,9.09175144490279,0.13766056770391824
25.363792000000004,9.11126059568776,0.13741086737683839
25.366188,9.128348336845734,0.1372042037292535
25.368576,9.147298409123263,0.1369788577643548
25.370956,9.168250582147211,0.1367305546800729
25.37336,9.179471790692794,0.13659037089572687
25.375748,9.19348649591771,0.13642274751735523
25.378128000000004,9.210853776329403,0.13620684356785
25.380528,9.225427560061762,0.13601839214515987
25.382916,9.238139012674566,0.13584838002141342
25.385296000000004,9.252340709354586,0.1356460742366618
25.387696,9.266262866780886,0.13545531503575903
25.390084,9.27925385864741,0.13527420576247406
25.392464000000004,9.290102980140656,0.13512320450523907
25.39486,9.299089770514344,0.13499009206596738
25.397248,9.314502172007865,0.13477268770904682
25.399632000000004,9.333779005367358,0.13451809754946056
25.402028,9.356408413913627,0.13421726289347494
25.404416,9.376244325780561,0.13394135054006234
25.406800000000004,9.396499546528078,0.13364874106550434
25.409196,9.412238709103562,0.1333944071856168
25.411584,9.422251108693516,0.13319551103907046
25.413968000000004,9.431472112350551,0.1329992318166996
25.416364,9.439482411194088,0.13282234086581823
25.418756,9.447120622985286,0.13263264149885032
25.421136,9.46490910813543,0.13232652318961102
25.423532,9.482325506233238,0.1320074837829973
25.42592,9.494015141345514,0.13174496894266224
25.4283,9.506915481271289,0.13146323177816874
25.4307,9.519303964517865,0.13117302304694162
25.433088,9.531040821458383,0.13088020721679997
25.435468,9.545338857652759,0.13054462686721
25.437868,9.559636893847138,0.1302095761589602
25.440256,9.574214469295233,0.12986403082182646
25.442636,9.59079414548975,0.12949756736677856
25.445032,9.595640756459481,0.1292499735293368
25.44742,9.593317582204712,0.1290557704867931
25.449804,9.587689054591406,0.12887704625266036
25.4522,9.586623806978375,0.12863452481855803
25.454588,9.587048803432562,0.1283630851570768
25.456972,9.585611468767196,0.12810626986381218
25.459368,9.590599745221658,0.12777000688459594
25.461756,9.598288970556839,0.12738640513256486
25.464152,9.610029619213094,0.12693231083405504
25.466548000000003,9.617766066376518,0.12651954864308998
25.468936,9.616842484248217,0.12618688874170236
25.47132,9.612985635813722,0.12588164543717342
25.47372,9.609548096259806,0.1255592703610634
25.476108000000004,9.604387995213193,0.12524621228805177
25.478488,9.602300930099634,0.12490030354782639
25.480888,9.602076196105633,0.124539825848471
25.483276000000004,9.59919773505916,0.12419690190446572
25.485656,9.594736482146848,0.12385755280179968
25.488052000000003,9.58841289811498,0.12353245547938808
25.490444000000004,9.579435587030638,0.1232237659528289
25.492824,9.576464578185545,0.12285325698771533
25.495220000000003,9.573214030086733,0.12249176993597047
25.497608,9.568193698666981,0.1221694976369863
25.499992,9.559820792060455,0.12189136811610618
25.502388000000003,9.549166245453788,0.12164396663542437
25.504776,9.543586835526593,0.12134370546246204
25.50716,9.533444145599127,0.12110473972406995
25.509556000000003,9.518318866790805,0.12094274388043191
25.511948000000004,9.500213099848043,0.12083754198407365
25.514328,9.484341751077176,0.12073222315073055
25.516724000000004,9.474709021971037,0.12058716966450335
25.519112,9.468241876596572,0.12043470121804545
25.521496,9.46265867495364,0.12030534717892251
25.523892000000004,9.460241057042383,0.12016879975223871
25.52628,9.45326015913085,0.12009315262233398
25.528664,9.446511578644792,0.12003718534645397
25.531060000000004,9.439855545957354,0.12000616204412294
25.533448,9.436225327374725,0.11997357312760953
25.535832,9.434689757337132,0.11994655436836076
25.538228000000004,9.438833728456826,0.11990250301197783
25.540616,9.444001412934915,0.11987663175876284
25.542996,9.452334681144677,0.11984396575117803
25.545396000000004,9.462110971593415,0.11981291548708405
25.547784,9.473190514654268,0.11978917234343013
25.550164,9.486224936633295,0.11977649933992371
25.55256,9.497349805664523,0.11980858872315585
25.554948000000003,9.513270272121503,0.11980070727256774
25.557332,9.535057271190874,0.11974020247218707
25.559732000000004,9.55670450063338,0.11968488744939672
25.56212,9.583287097128501,0.11958548600316964
25.5645,9.606517118436848,0.11952837301754214
25.566900000000004,9.631749240491612,0.11945307999290891
25.569288,9.661776959972126,0.11933940441521664
25.571672,9.69152514019892,0.11923705765265061
25.574072,9.725789378597746,0.1191058963601739
25.57646,9.75898268180993,0.11898715223754883
25.57884,9.792827611328175,0.11887161368675796
25.581236000000004,9.826812310473281,0.118752073266055
25.583628,9.860936779245243,0.11862747076293496
25.586008,9.891476355404958,0.11852579124787445
25.588404000000004,9.925228737124588,0.11839106253264506
25.590792,9.960052054030854,0.11824517781984932
25.593176,9.999159111683673,0.1180540577542901
25.595572,10.038266169336492,0.11786290407275189
25.59796,10.074719499936839,0.11768557349646964
25.600340000000003,10.113966327216518,0.11748995143639686
25.60274,10.151862680055839,0.11731773194537373
25.605128,10.188688097708521,0.1171586487571546
25.607508000000003,10.226165141667263,0.11700271780301784
25.609908,10.25856704894653,0.11689499006880433
25.612296,10.294181761785717,0.11675387010670546
25.614676000000003,10.3310071794384,0.11659950075636141
25.617076,10.36424770447883,0.1164668561323272
25.619464,10.396696833586342,0.11633591456262711
25.621844000000003,10.431427602693992,0.11618065987477315
25.62424,10.468160472548053,0.11600933908760186
25.626628000000004,10.509177083148677,0.1157967341373321
25.629012000000003,10.549914154495573,0.11559491022030875
25.631408,10.593584492148668,0.11537242950532826
25.633796000000004,10.638325764988402,0.11514041882785876
25.636180000000003,10.678271440402384,0.11494471182990383
25.638576,10.721429921376282,0.11472063556244462
25.640964000000004,10.761794905670845,0.11451617453237538
25.643344,10.804721069219264,0.11427904939207684
25.645744,10.852862139074016,0.11399663163891938
25.648132000000004,10.897837625197097,0.11372015876915167
25.650512,10.942301254640977,0.1134366846946983
25.652912,10.987323962592301,0.11313728069828569
25.655300000000004,11.035187389051202,0.11279727584162781
25.657684000000003,11.081468023644266,0.11245765081373332
25.66008,11.125234700811717,0.11212738663748101
25.662468000000004,11.16113274462036,0.11185461038774235
25.664848,11.196518931749804,0.11157465365236242
25.667248,11.233395362946471,0.11127286162050995
25.669636000000004,11.265895505597964,0.11099167456696295
25.672016,11.293367733398231,0.11072483752103172
25.674416,11.314601341533765,0.11048761825569045
25.6768,11.332669365937628,0.11025365227357672
25.67918,11.34757180660982,0.11002433251196009
25.681580000000004,11.361031225043034,0.10979289881054291
25.683964000000003,11.374909952356832,0.10954846128841522
25.686348,11.380268420005763,0.10935526657098446
25.688744,11.382973160602218,0.1091730316027382
25.691132000000003,11.381022073399782,0.1090166791075679
25.693528,11.375625863211955,0.10887230617323287
25.695924,11.371300588210763,0.1087186341168079
25.698312,11.3655322909706,0.1085618837036859
25.700692000000004,11.3569704970511,0.10842009923868376
25.703088,11.348268933504738,0.10828299756968748
25.705476,11.340917844398737,0.10812775345881265
25.707856,11.333846294546456,0.10796381868565429
25.710256,11.332129420627368,0.10775350677512747
25.71264,11.330552316335138,0.10753900941667063
25.715024,11.325669858684376,0.10733102239569949
25.71742,11.319996005100698,0.10712342122620544
25.719808,11.318326353009853,0.10688783831341894
25.722188000000003,11.316796470545867,0.10664735291046237
25.724588,11.316477292895382,0.10639301325156035
25.726976,11.315366719311976,0.10613916951762264
25.729356000000003,11.313744289049374,0.1058771502400664
25.731752,11.311330462853853,0.10561549559238186
25.734140000000004,11.316133643711083,0.1052995204162115
25.736524000000003,11.324149630128227,0.10495677803610026
25.738924,11.335238652478425,0.10459179399433885
25.741308000000004,11.341532077402873,0.10425323259771466
25.743704,11.344520148968785,0.10392021261122876
25.7461,11.345925428668863,0.10358715989045227
25.748484,11.345468377249386,0.10326249116963307
25.750864,11.338912475792041,0.10295702473569766
25.75326,11.332775883215275,0.1026382669487781
25.755648,11.326779060265372,0.1023153453121901
25.758028000000003,11.31826827988985,0.10199721327437938
25.760432,11.306032837275216,0.10169615395713151
25.76282,11.291515754660448,0.10141575619263352
25.7652,11.273274009806563,0.10115214102391398
25.767604,11.252378537900205,0.10089701587075223
25.769988,11.228689569314511,0.10065402819840606
25.772372,11.203278039236121,0.100414627365784
25.774776000000003,11.174933242851536,0.10019189129698491
25.77716,11.143515410533894,0.09999011772962153
25.779544,11.112377117469974,0.09977849744125133
25.78194,11.07164762955455,0.09961875353613607
25.784324,11.025470917907318,0.09947963907557147
25.786708,10.97636093995389,0.09935663155136275
25.789104,10.931394933120158,0.09920175698447685
25.791492,10.884147286286286,0.09906792718622709
25.793872,10.84048453206467,0.09891923630239423
25.796268,10.800034583402965,0.09874289090631669
25.798656,10.760376030674182,0.09856513064912176
25.801036000000003,10.717504672385482,0.09841259788339356
25.803432,10.667835615924615,0.09829872752650871
25.80582,10.617747250583166,0.09819700627698705
25.808216,10.569660985988133,0.0980809331470056
25.810612,10.522366117326017,0.09796471564773032
25.813,10.47693357978346,0.09783888302295071
25.81538,10.428008697427266,0.0977486484862442
25.817776,10.383879412496825,0.09763034399187583
25.820164,10.34147268905908,0.09750647183542477
25.822544,10.300788527114033,0.09737752461847651
25.82494,10.261826926661682,0.09724347421718102
25.827328,10.217370880649275,0.09715934533149866
25.829712,10.17836205836868,0.0970523124225341
25.832108,10.144520920566174,0.09693107123284829
25.834496,10.110540013136808,0.09681372028657216
25.836876000000004,10.07613979682686,0.0967093205010248
25.839272,10.049328674622,0.09656350570742452
25.84166,10.019164977230364,0.09644924540734391
25.844056,9.986719639838592,0.09635689726833625
25.846452,9.955857094312654,0.09626426608163112
25.848840000000003,9.92871921102583,0.09615335624913553
25.85122,9.90996181777701,0.09600197439054715
25.853624000000003,9.896139791580806,0.09581874222730072
25.856012,9.885902657996851,0.09562252205677606
25.858392,9.882882531465647,0.09537275093037349
25.860788,9.88638056385289,0.0950936719353919
