Time,Force,Position
30.655196,0.11538378473202643,0.0
30.657584,0.12757742029392785,0.0
30.659968,0.1368377895496341,0.0
30.662364,0.14642898440113775,0.0
30.664752,0.15653203593183906,0.0
30.667136,0.16491252596984393,0.0
30.669532,0.17063928895537406,0.0
30.67192,0.1772972175006825,0.0
30.674304,0.18525839865810675,0.0
30.676708,0.19601307649486596,0.0
30.679096,0.2046258839583481,0.0
30.681476,0.20830332436921822,0.0
30.683872,0.20867541142155568,0.0
30.686256,0.21104959922031008,0.0
30.68864,0.21049052071286922,0.0
30.691036,0.2071379455260934,0.0
30.693424,0.20485630552595616,0.0
30.69582,0.20513584477967658,0.0
30.698216,0.20089932586136564,0.0
30.700603999999995,0.1977337421296932,0.0
30.702988,0.19042418727832683,0.0
30.705384,0.184185567613599,0.0
30.707771999999995,0.17766740869515077,0.0
30.710152,0.16793644421678694,0.0
30.712548,0.15574280865488552,0.0
30.714936,0.1462913834302421,0.0
30.717316,0.13777112376537703,0.0
30.719716,0.12743981932303225,0.0
30.722104,0.1164568885746295,0.0
30.724484,0.10347185707980998,0.0
30.72688,0.09048682558499044,0.0
30.729268,0.0784329596499492,0.0
30.731652,0.06903282076738274,0.0
30.734048,0.05963268188481629,0.0
30.736436,0.05218335740658972,0.0
30.738816,0.044645549643579904,0.0
30.741212,0.03603680669393154,0.0
30.7436,0.028959569268042457,0.0
30.745984,0.025886533334987076,0.0
30.74838,0.022953267028791906,0.0
30.750764,0.024443511096011065,0.0
30.75316,0.023931654416813372,0.0
30.75556,0.033709840723420356,0.0
30.757947999999995,0.04721268926914062,0.0
30.760328,0.05838261147264667,0.0
30.762732,0.06960382001822966,0.0
30.76512,0.07975409337717414,0.0
30.7675,0.09399705151373555,0.0
30.7699,0.11038188002357406,0.0
30.772284,0.12476460778699569,0.0
30.774664,0.13821616999063902,0.0
30.777064,0.15166773219428234,0.0
30.779448,0.16204625846487028,0.0
30.781832,0.17028291436218115,0.0
30.784227999999995,0.1753580510416534,0.0
30.786616,0.18266354137918595,0.0
30.789,0.19183136283627514,0.0
30.791395999999995,0.20240094507580023,0.0
30.793784,0.21054911768832785,0.0
30.796168,0.21748658548735672,0.0
30.798563999999995,0.2172070462336363,0.0
30.800952,0.22079193884588935,0.0
30.803336,0.21436632772605815,0.0
30.805731999999995,0.20342465843419558,0.0
30.80812,0.1955560250753884,0.0
30.8105,0.18661645652994266,0.0
30.8129,0.1790273624248559,0.0
30.815288,0.16501265719993796,0.0
30.817668,0.1486278286900995,0.0
30.820068,0.13512498014437924,0.0
30.822456,0.126557498651271,0.0
30.824836,0.11920072197166148,0.0
30.827236,0.11291488047869051,0.0
30.829624,0.10984184454563513,0.0
30.832004,0.10690857823943994,0.0
30.834404,0.10155390230624729,0.0
30.836787999999995,0.094336895253498,0.0
30.839172,0.08404685226769333,0.0
30.841568,0.07696961484180423,0.0
30.843952,0.06761073741577787,0.0
30.846336,0.06151595189174407,0.0
30.848732,0.052487900061515075,0.0
30.85112,0.04639311453748127,0.0
30.853516,0.04309182569278241,0.0
30.855912,0.03979053684808355,0.0
30.8583,0.036629017630244905,0.0
30.860684,0.03318795915868583,0.0
30.86308,0.032959706247042364,0.0
30.865468,0.032959706247042364,0.0
30.867852,0.032079827029340986,0.0
30.870248,0.027195746318805912,0.0
30.872636,0.021100960794772094,0.0
30.87502,0.01700827601715513,0.0
30.877416,0.011844656052899635,0.0
30.879804,0.008683136835060988,0.0
30.882188,0.006732322430721085,0.0
30.884584,0.004781508026381181,0.0
30.886972,0.0037618591818195978,0.0
30.889356,0.0007401095908411632,0.0
30.891752,0.0,0.0
30.89414,0.0,0.0
30.896524,0.0,0.0
30.89892,0.0,0.0
30.901312,0.0,0.0
30.903692,0.0,0.0
30.906092,0.003533606270176125,0.0
30.90848,0.007067212540352249,0.0
30.910864,0.010600818810528373,0.0
30.91326,0.015345129894203238,0.0
30.915648,0.02116037616451663,0.0
30.918028,0.028046557621468557,0.0
30.920424,0.032790868705143424,0.0
30.922812,0.0375351797888183,0.0
30.925196,0.040277390126076305,0.0
30.927592,0.045161470836611387,0.0
30.92998,0.05176811303984289,0.0
30.93236,0.057443589683296076,0.0
30.934756,0.06405023188652757,0.0
30.937144,0.06972570852998075,0.0
30.939523999999995,0.07232814924037856,0.0
30.94192,0.07413919401785826,0.0
30.944308,0.07567069954161752,0.0
30.946691999999995,0.07567069954161752,0.0
30.949088,0.07567069954161755,0.0
30.951472,0.07641080913245869,0.0
30.953852,0.07287720286228257,0.0
30.956252,0.06934359659210644,0.0
30.95864,0.0674812654725498,0.0
30.961036,0.06273695438887494,0.0
30.963432,0.0575220480825425,0.0
30.96582,0.05063586662559058,0.0
30.968204,0.047562830692535196,0.0
30.9706,0.04448979475947981,0.0
30.972988,0.04570049957297855,0.0
30.975372,0.04081641886244348,0.0
30.977768,0.03420977665921197,0.0
30.980156,0.030485114420098686,0.0
30.98254,0.029973257740900996,0.0
30.984936,0.030113027367761204,0.0
30.987328,0.03318606330081659,0.0
30.989708,0.03784189109970819,0.0
30.992108,0.04305679740604063,0.0
30.994496,0.05073437479591067,0.0
30.996876,0.05734101699914218,0.0
30.999272,0.062276384051754195,0.0
31.00166,0.07102489662826277,0.0
31.00404,0.07576920771193763,0.0
31.006436,0.07791107808521469,0.0
31.008828,0.08093282767619311,0.0
31.011208,0.0833542373031906,0.0
31.013608,0.08637598689416903,0.0
31.015996,0.08470471174354956,0.0
31.018376,0.08303343659293008,0.0
31.020772,0.07908052144217333,0.0
31.02316,0.08047225733907239,0.0
31.025544,0.08047225733907239,0.0
31.02794,0.07852144293473248,0.0
31.030328,0.07242665741069867,0.0
31.032712,0.06661141114038528,0.0
31.035108,0.06102441778171536,0.0
31.037496,0.054785798116987534,0.0
31.039876,0.050129970318095934,0.0
31.042276,0.043611811399647676,0.0
31.044664,0.0400269187873946,0.0
31.047044,0.03788504841411754,0.0
31.04944,0.03467224285420195,0.0
31.051828,0.03546363878712007,0.0
31.054212,0.03318199878698279,0.0
31.056608,0.03141221546604321,0.0
31.058996,0.028390465875064774,0.0
31.06138,0.02536871628408634,0.0
31.063776,0.02536871628408634,0.0
31.066164,0.02536871628408634,0.0
31.068544,0.028110926621344356,0.0
31.070944,0.027319530688426248,0.0
31.073332,0.03099290658546258,0.0
31.075712,0.032664181736082064,0.0
31.078112,0.032664181736082064,0.0
31.0805,0.032664181736082064,0.0
31.08288,0.032575698451298804,0.0
31.085276,0.03234744553965533,0.0
31.087664,0.030256861508455215,0.0
31.09006,0.029097443037033422,0.0
31.092455999999995,0.026075693446054985,0.0
31.094844,0.02254208717587886,0.0
31.097228,0.017006380159285885,0.0
31.099623999999995,0.01147067314269291,0.0
31.102012,0.009939167618933637,0.0
31.104396,0.008687201348894785,0.0
31.106791999999995,0.008687201348894785,0.0
31.10918,0.008687201348894785,0.0
31.11156,0.008687201348894785,0.0
31.113959999999995,0.008687201348894785,0.0
31.116348,0.005944991011636772,0.0
31.118728,0.005344651047655818,0.0
31.121127999999995,0.0016712751506194835,0.0
31.123516,0.0,0.0
31.125896,0.0,0.0
31.128295999999995,0.0,0.0
31.130684,0.0,0.0
31.133064,0.0,0.0
31.135463999999995,0.0,0.0
31.137852,0.0,0.0
31.140236,0.0,0.0
31.142636,0.0029726319048660388,0.0
31.145024,0.008319451608486409,0.0
31.147407999999995,0.01618022873772132,0.0
31.149804,0.024413092919293708,0.0
31.152192,0.032738504899483156,0.0
31.154575999999995,0.04408973098448484,0.0
31.156976,0.0603291022938554,0.0
31.15936,0.08331894994715147,0.0
31.161743999999995,0.10891530282467914,0.0
31.16414,0.14005142723263359,0.0
31.166528,0.1727231216781811,0.0
31.168911999999995,0.21172598358707348,0.0
31.171312,0.2541267466531156,0.006871457791329158
31.1737,0.2957814397566135,0.014411844597655132
31.176084,0.3404147251366804,0.022158571422895984
31.17848,0.38909753797995505,0.02992220491595225
31.180868,0.44369220940599385,0.037516629716237426
31.183252,0.4991236027353247,0.045548828044864376
31.185648,0.5629808120730343,0.05325370452605057
31.18804,0.6306080096202311,0.06105563906113065
31.190424,0.6986132545914685,0.06906320658065715
31.19282,0.767594991092858,0.07725786750238861
31.195208,0.8380650758035975,0.08562602361607409
31.197592,0.914958875776299,0.09394975387899972
31.199988,0.9982763910109622,0.1022981920461434
31.202376,1.0837338807610337,0.11081470173313959
31.204756,1.1683980787203174,0.11956905156598203
31.207156,1.252268984888814,0.1284280933807669
31.209544,1.3413529015057735,0.1372743281845939
31.211928,1.4293639870782255,0.1463591332138367
31.214324,1.5280353068309502,0.15522763834721748
31.216712,1.6293584577782805,0.1641043274552187
31.219096,1.7402709077192453,0.16592069945877272
31.221492,1.8654284844527362,0.16692672778513953
31.223884,2.0011065257396394,0.16760617552519358
31.226264,2.146885722699375,0.16816639364535618
31.228664,2.302206996824502,0.16881008478724993
31.231056,2.4747992118469666,0.16888388278259536
31.233436,2.6527895329151288,0.1693052338300253
31.235835999999995,2.8469326378657476,0.16953711579063974
31.238224,3.056157591512185,0.16954275400679383
31.240604,3.280045084973859,0.16937166325014516
31.243,3.517152096011795,0.16904391826100712
31.245387999999995,3.7645453583197956,0.16878422103004478
31.247772,4.0215732455918065,0.1685363179821095
31.250168,4.2915883330146,0.16811673634700744
31.252555999999995,4.578874361334732,0.16739311313830452
31.254936,4.880218524992287,0.16653896329002596
31.257332,5.192455240255595,0.1656720952721298
31.259723999999995,5.520147787124925,0.16451906817708678
31.262104,5.85249426593528,0.163584015838595
31.2645,6.1947095829929895,0.16261512800350814
31.266888,6.538505796058666,0.16187509776558667
31.269272,6.886164545132446,0.1612838637878084
31.271668,7.240758866147387,0.1607801626251634
31.274056,7.597493161677734,0.16040091355387331
31.27644,7.95348138724554,0.16013660700711818
31.278836,8.310353556544879,0.15997712988807242
31.281224,8.669599913642973,0.15979751472398318
31.283608,9.022328111822619,0.15973562290713392
31.286003999999995,9.37580237996481,0.15964176076628267
31.288392,9.729790400644065,0.15948724175192985
31.290776,10.08336100830061,0.1592792769895796
31.293171999999995,10.437352820695605,0.1589924967860284
31.29556,10.792836773015688,0.15861280548826204
31.29794,11.146647281529185,0.1581773959332493
31.300336,11.49249850474313,0.15777888204799884
31.302728,11.827224858925847,0.15740684240695352
31.305108,12.152920992622368,0.15705816290474567
31.307504,12.469167596952115,0.15675221607355166
31.309892,12.778386081542088,0.15643898436681886
31.312276,13.077131323406887,0.15614772197847895
31.314672,13.371828933666347,0.15579358819429187
31.31706,13.65959286784252,0.15539510996104475
31.319444,13.933485658136373,0.15502032820765155
31.32184,14.198070584548178,0.15460439249927863
31.324228,14.455209978197498,0.15413384519515314
31.326608,14.698245910539018,0.15367278997220363
31.329008,14.928389086386241,0.15319878838332848
31.331396,15.149923246485722,0.15266792137027
31.333776,15.351347643038155,0.15219525856019311
31.336172,15.533453671976462,0.15177522735571908
31.338564,15.702759492219085,0.15136279885668802
31.340944,15.854422284512031,0.1510088398182044
31.34334,15.989373214415084,0.15070571321395979
31.345728,16.10542318972672,0.15048621045410315
31.348112,16.209789217499683,0.15028808810983896
31.350508,16.30884968702557,0.15007031199701165
31.352896,16.399671331998178,0.14985338720133418
31.355276,16.48295300055181,0.149621520697444
31.357676,16.559346318992528,0.14937560307301628
31.360064,16.631505014372806,0.14910202048665352
31.362444,16.69649582038645,0.14882242007872493
31.364844,16.750407083339237,0.14857874957372474
31.367232,16.796451608791084,0.1483420197204277
31.369612,16.83407031823456,0.14812543701893957
31.372012,16.863123442042784,0.14793218031510177
31.3744,16.886916333574312,0.14774926879014025
31.37678,16.906100619135188,0.1475771130246574
31.37918,16.91825488909842,0.14743978618422274
31.381568,16.929897302382454,0.14729795506029042
31.383948,16.941679485293342,0.14715273245480803
31.386344,16.950016545218844,0.1470236161672602
31.388736,16.95705035253223,0.14689232291776422
31.391116,16.962780907233498,0.1467590846134964
31.393516,16.97070055413629,0.14659079221975724
31.395904,16.97172995506829,0.1464531360080516
31.398284,16.96535725335031,0.14634219471533033
31.400684,16.956937124915537,0.14621408883808443
31.403072,16.942837455323478,0.14610471815466786
31.405452,16.922266848641215,0.14601613797861393
31.407852,16.894526456734447,0.14596443938102738
31.41024,16.85961627960317,0.14594943706904728
31.41262,16.821540518740225,0.14594334589881422
31.415019999999995,16.78067126119794,0.14595398795747186
31.417408,16.74050085178996,0.14594790684821177
31.419788,16.698607880889284,0.14594962052060312
31.422187999999995,16.654061182936132,0.14596454601513936
31.424576,16.607791923490282,0.1459873711866302
31.42696,16.56394407367143,0.1459854469942844
31.429355999999995,16.520795071986882,0.14596659775662535
31.431744,16.476622356943935,0.1459386226845669
31.434128,16.42821312298268,0.145928091569382
31.436523999999995,16.381573672342363,0.14589142887058928
31.438912,16.33269980353015,0.1458576512833339
31.441296,16.282382912478965,0.1458242788524066
31.443696,16.235418596614554,0.14576123274440717
31.446083999999995,16.19432081336253,0.14565743429041458
31.448464,16.150010224550595,0.14557978839142863
31.450859999999995,16.107422197231354,0.14549391122708455
31.453248,16.064135321777812,0.1454249918866282
31.455628,16.019917280764492,0.1453618605406778
31.458024,15.976490635684092,0.14529657025769446
31.460412,15.934926321723246,0.1452197829735431
31.462796,15.899647849255372,0.1450911261765163
31.465192,15.861016801600725,0.14499287526468296
31.46758,15.825598559505991,0.14486664355714682
31.469964,15.7895286911052,0.14473893038313213
31.47236,15.757463024197241,0.14458081240684104
31.474748,15.722184551729367,0.14444963568394018
31.477128,15.686486770380913,0.14432818807625483
31.479528,15.651440615338517,0.14420729024615367
31.481916,15.616766547348456,0.1440944056605817
31.484296,15.576598033798344,0.14403096731615492
31.486692,15.538663938420127,0.14396373336188262
31.48908,15.500030994907608,0.1439137707654803
31.491464,15.46470340475362,0.1438505406857197
31.49386,15.425743700159137,0.14382494886194072
31.496248,15.38873887448283,0.1438034856266595
31.498632,15.351174970299077,0.1437959584991363
31.501028,15.320129225033774,0.1437477197030576
31.503419999999995,15.295182329806341,0.14366924927353536
31.5058,15.276753593497354,0.14354985281516477
31.5082,15.262421606479815,0.14341545800304512
31.510587999999995,15.244689822447262,0.14333111604596638
31.512972,15.232265492519659,0.14321912308515516
31.515368,15.220585336696727,0.14312366258779077
31.51776,15.215236348337143,0.14301033377633576
31.52014,15.209979907776175,0.14291240846017805
31.52254,15.207469742066303,0.14281605082837887
31.524928,15.208125160088098,0.1427109292136355
31.527308,15.211666622587847,0.14260416797515288
31.529708,15.219584373632767,0.14247574098565446
31.532096,15.23546330583511,0.1423061562314757
31.53448,15.251574555462929,0.14214847870214775
31.53688,15.271782554382202,0.14197624009909973
31.539268,15.289569143674477,0.1418297833796439
31.541652,15.310009460019225,0.14166972244146478
31.544048,15.334314208229948,0.1414833512292894
31.54644,15.3643457194262,0.14126011542639158
31.54882,15.393166525808953,0.1410506458436256
31.55122,15.41877452663179,0.14086894373940703
31.553608,15.441681578573913,0.14072051250636047
31.555992,15.46524025682209,0.1405744583092585
31.558388,15.491360114324127,0.14039995811924688
31.560776,15.517340202199302,0.14022954709030652
31.56316,15.544670764514837,0.1400440427535526
31.56556,15.571349700524314,0.1398581644377086
31.567948,15.600822133213127,0.13965711648005855
31.570328,15.632436436275215,0.1394386077741095
31.572732,15.662048638590887,0.13923494014573426
31.57512,15.693523172026115,0.13902183507248456
31.577504,15.7256493317674,0.1388108668474263
31.5799,15.759637822628244,0.1385911246053389
31.582287999999995,15.795488644608644,0.1383610637493601
31.584668,15.830548070656127,0.13813359325251218
31.587068,15.869052619689,0.1378920208857041
31.589455999999995,15.909139960587709,0.13764771459473144
31.591836,15.952020798165758,0.13738988281875145
31.594236,15.990198586116671,0.13717720044987985
31.596623999999995,16.02995916593342,0.13696180982776923
31.599004,16.07172184649658,0.1367326495899958
31.6014,16.11241359187311,0.13651193443245252
31.603788,16.15017207094344,0.1363106792078356
31.606172,16.191096133745443,0.13610376482074613
31.608568,16.238398585839033,0.13586700657170234
31.610956,16.283791484984825,0.13565894523261732
31.613336,16.329836010436672,0.13545368224324877
31.615732,16.373459126261526,0.13527272255011644
31.618124,16.422948774698767,0.1350582755272564
31.620504,16.475883546121402,0.13483145531500756
31.622903999999995,16.525885051237843,0.13462380932871554
31.625292,16.57681772191406,0.13441238860491697
31.627676,16.623094564791387,0.13422648604047652
31.630071999999995,16.67165304766885,0.13402299045002258
31.63246,16.723144796852512,0.13380338074411094
31.634844,16.77412468935697,0.1335802916133756
31.637239999999995,16.823242250741874,0.1333675102651745
31.639628,16.870357711380365,0.13316937511975802
31.642012,16.92403855276554,0.13292280443823612
31.644407999999995,16.979069868591075,0.1326643977778907
31.646796,17.037965616282587,0.1323863844459523
31.649176,17.101936500653572,0.13207768167703168
31.651572,17.16991158651739,0.13174595992514987
31.65396,17.233370614209175,0.13143549737830162
31.656344,17.28630728148968,0.13118213776123203
31.65874,17.339942796904484,0.1309137481033508
31.661128,17.39399762119987,0.13063806953338805
31.663508,17.445818027323362,0.1303637245242887
31.665904,17.48576559859521,0.1301589351267931
31.668292,17.52734318356114,0.12993669014536058
31.670676,17.57013147334057,0.12970472140212874
31.673072,17.611476740881024,0.12947352999680892
31.67546,17.65603481398139,0.12922127039573642
31.677844,17.696588685588928,0.12899344733552875
31.680244,17.73262649902443,0.1287851150871263
31.682628,17.772016887646714,0.12855401636142585
31.685012,17.810104023656876,0.12831980015544941
31.687408,17.846887907054924,0.1280834694948666
31.6898,17.876734322653945,0.12788667538235368
31.692184,17.900714205640572,0.12772136465532702
31.69458,17.921248965641805,0.12756792102141265
31.696968,17.93633650191123,0.1274370240687239
31.699352,17.946907980008625,0.12732421740806893
31.701751999999995,17.958829932546376,0.12719878448453198
31.70414,17.97345283396485,0.12704739992254663
31.70652,17.991148771316375,0.1268786643510584
31.70892,18.004188880869012,0.1267306190848941
31.711308,18.019370860794922,0.12656879175794655
31.713692,18.03832472478819,0.1263738838975491
31.716088,18.04861855948974,0.12622180069204453
31.718476,18.056258667138803,0.12607922727602733
31.72086,18.06496970997451,0.12593011758182146
31.723256,18.06553258019769,0.1258276758977374
31.725644,18.06544382411481,0.12572348793534804
31.728028,18.06814856471127,0.1256072572920444
31.730428,18.063636298254977,0.1255337925592992
31.732816,18.063919629224433,0.12543755826333997
31.735196,18.06392342094017,0.12534718347682133
31.737596,18.06569699597685,0.1252357026591015
31.73998,18.07268547731986,0.12509312251324944
31.742364,18.07953418903601,0.12495367502450797
31.74476,18.08717429668508,0.12481310993399382
31.747148,18.101612102506316,0.12464007075243914
31.749532,18.115630599446973,0.12447586901887385
31.751928,18.136027485679215,0.12428822104806708
31.754316,18.152559940045485,0.12411953818753292
31.756696,18.171746121464235,0.12394213401781266
31.759096,18.190792533256115,0.12376800964967584
31.761484,18.21849897433973,0.123555578704381
31.763868,18.25286334396865,0.12331388621664253
31.766264,18.29109214546354,0.12305507170677171
31.768652,18.329181177331574,0.12280025164509535
31.771036,18.379422583304965,0.12248184748706033
31.773432,18.433248881890613,0.12215212989671378
31.77582,18.490008446782458,0.12181101171934275
31.778204,18.551703378726913,0.1214464544175242
31.7806,18.613910167350564,0.12108977271761154
31.782992,18.675977186347357,0.12073677252497396
31.785372,18.737857213889043,0.12040274073903326
31.787772,18.796524435870815,0.12008911418501407
