Time,Force,Position
31.468828,0.19806499612085604,0.0
31.47127599999999,0.19354893794882463,0.0
31.473719999999982,0.18469358117265955,0.0
31.476159999999997,0.1735565843963572,0.0
31.47860399999999,0.16241958762005487,0.0
31.481047999999987,0.15128259084375253,0.0
31.483491999999984,0.13893488925395142,0.0
31.48593599999998,0.12816997952998657,0.0
31.488375999999988,0.11768460905974212,0.0
31.490812000000005,0.10733900821635789,0.0
31.493268,0.09713317699983386,0.0
31.495708000000008,0.08664780652958942,0.0
31.498155999999994,0.07616243605934497,0.0
31.50059999999999,0.06367496484268369,0.0
31.503052,0.05211865918580071,0.0
31.505495999999997,0.04177305834241648,0.0
31.507948,0.030496291939253926,0.0
31.51038800000001,0.02122162628250822,0.0
31.512827999999985,0.012878126185540835,0.0
31.515267999999992,0.005605561275211981,0.0
31.51771199999999,0.0012662626710782995,0.0
31.52014800000001,0.0,0.0
31.522580000000005,0.0,0.0
31.525036,0.0,0.0
31.527483999999987,0.0,0.0
31.529923999999998,0.0,0.0
31.53237199999998,0.0,0.0
31.534816000000006,0.0,0.0
31.537263999999997,0.00247696748457704,0.0
31.53971199999998,0.0038829997825155496,0.0
31.542148,0.0038829997825155496,0.0
31.544591999999994,0.0038829997825155496,0.0
31.54704799999999,0.0038829997825155496,0.0
31.549488,0.0038829997825155496,0.0
31.551928000000004,0.0038829997825155496,0.0
31.554360000000003,0.005428801707314268,0.0
31.556804,0.007765999565031098,0.0
31.559244000000007,0.009963427795887717,0.0
31.561688000000004,0.010810381586385387,0.0
31.56414799999999,0.010810381586385387,0.0
31.566588,0.010810381586385387,0.0
31.56904399999999,0.010810381586385387,0.0
31.571484,0.011005709070825157,0.0
31.573931999999985,0.012132202115043247,0.0
31.576375999999986,0.014329630345899867,0.0
31.578835999999995,0.016527058576756487,0.0
31.581279999999992,0.016527058576756487,0.0
31.583732,0.01928356531505395,0.0
31.586164,0.01680659783047691,0.0
31.588607999999997,0.015735662643838376,0.0
31.591043999999982,0.017001925314916677,0.0
31.593488000000008,0.022132619851968467,0.0
31.595927999999983,0.02926541513543711,0.0
31.598359999999985,0.03453587929934911,0.0
31.60081599999998,0.04059773939617922,0.0
31.603255999999988,0.04390309275471187,0.0
31.605695999999995,0.04534611499368789,0.0
31.60814399999998,0.04799984204616264,0.0
31.610588000000007,0.05521684909891193,0.0
31.613035999999997,0.0632808099421589,0.0
31.61548399999998,0.07027383559876732,0.0
31.617932,0.0751249908820987,0.0
31.620372000000003,0.07857011386749156,0.0
31.62281999999999,0.08201523685288442,0.0
31.62526,0.08746246058469413,0.0
31.627700000000004,0.09076781394322679,0.0
31.630144,0.10027479702544977,0.0
31.632588,0.104743633369238,0.0
31.635035999999985,0.11411084682460076,0.0
31.637479999999982,0.12407412872844187,0.0
31.639928,0.13310624507250465,0.0
31.642368000000005,0.13720299436395542,0.0
31.644824,0.1391578732821291,0.0
31.647264000000007,0.14669974555897272,0.0
31.649708000000004,0.15237928671625972,0.0
31.652152,0.15712766231376837,0.0
31.654599999999988,0.16387813865769388,0.0
31.657039999999995,0.16620510462820506,0.0
31.659492,0.16131506354596695,0.0
31.661924,0.15325110270272,0.0
31.664368,0.14715035680698313,0.0
31.666815999999983,0.1458452083369981,0.0
31.66926000000001,0.14533145579993118,0.0
31.671707999999995,0.14481770326286425,0.0
31.674148,0.1389492747926047,0.0
31.676592,0.13508294706876195,0.0
31.679032000000007,0.12972637527770003,0.0
31.681476000000004,0.12371817718058022,0.0
31.68392399999999,0.11836160538951833,0.0
31.686367999999987,0.11286526397159621,0.0
31.688816000000003,0.10615821774017536,0.0
31.69126399999999,0.09838023632211597,0.0
31.693712000000005,0.09246458602361325,0.0
31.696156,0.07975123755294188,0.0
31.698612,0.06903998982868732,0.0
31.701055999999998,0.06326410915704478,0.0
31.703508,0.056929149977961405,0.0
31.705948000000006,0.057252119344186496,0.0
31.708392000000003,0.06311486024083834,0.0
31.710836,0.07848268836184394,0.0
31.713276000000008,0.09500566343876872,0.0
31.715715999999983,0.11013094224709138,0.0
31.718147999999985,0.13079599258584082,0.0
31.72060399999998,0.15108706001438352,0.0
31.723043999999987,0.17915231714524713,0.0
31.725487999999984,0.21378105916493287,0.0
31.72793199999998,0.24910675346105046,0.0
31.730383999999987,0.2983054874973565,0.008962893526055131
31.732823999999997,0.3505753616088487,0.017895393120206653
31.735276,0.40992057728836073,0.02656819581142859
31.73772,0.47792392640172887,0.03515924415233871
31.740163999999996,0.5572391360014277,0.04357858056359634
31.74260799999999,0.6422319909005445,0.052118441045735646
31.745048,0.739420650017527,0.060670618822636316
31.747491999999998,0.8463837037253782,0.06918050698617886
31.749932,0.9627018431435174,0.07763377758158922
31.752376,1.09172764345872,0.08599882876550138
31.754823999999985,1.2308073776185116,0.09425230595146994
31.757267999999986,1.3827817641304705,0.10236182579552291
31.759716,1.5417842703822058,0.11039713065266003
31.762151999999983,1.7148921337996068,0.11828706162689717
31.76460399999999,1.9047590814351485,0.12600639274106123
31.767044,2.100303674370108,0.13379921785510418
31.769491999999985,2.3088826892840943,0.1415931421181651
31.771931999999996,2.5260726158036935,0.14940168318034167
31.774387999999988,2.7513143754214657,0.15724680838047383
31.776831999999985,2.9874014648167444,0.16515526960592353
31.77927199999999,3.2311210784296147,0.16407949120175344
31.78171599999999,3.484335547379633,0.16309189357172152
31.784156,3.7509093035327723,0.16230463348829516
31.786608,4.032612130209973,0.16150879657473385
31.789052,4.328792401105177,0.16078466147058307
31.791492000000005,4.63912525099429,0.15985353491425064
31.793931999999984,4.961236492078559,0.15883072560956388
31.796388000000007,5.288096108760337,0.15783705343830384
31.798835999999994,5.618028761375172,0.15686767863663398
31.80127999999999,5.9494516580572245,0.1559546102023968
31.803732,6.2792917628734415,0.15515260130265504
31.806175999999997,6.6066179102640445,0.15448842848926403
31.80862399999998,6.93492244504267,0.15385209200228198
31.811063999999988,7.2564765034773675,0.1533730820933864
31.813503999999995,7.569557524075445,0.15307092908462275
31.81594799999999,7.8855264850093425,0.15265095844641166
31.81839199999999,8.202800594413226,0.1521694911423072
31.820835999999986,8.521427074115337,0.15159694002510593
31.823275999999996,8.837588714077945,0.15093674994373393
31.82571199999998,9.151053196875576,0.15016255038726276
31.828156000000007,9.451997010231246,0.14939587861800246
31.830603999999997,9.746194138958728,0.14852097431570624
31.83304799999999,10.022051287460103,0.14770341780714719
31.835508000000004,10.27821798129501,0.14697419996747377
31.837947999999983,10.51003839266456,0.1463671380265284
31.840404000000007,10.72240066679312,0.14584719060395168
31.842843999999985,10.91982086185272,0.14537454581892922
31.845287999999982,11.106535496761678,0.14489919384568672
31.847732000000008,11.280355479318466,0.1444716055938392
31.850195999999983,11.447938738068393,0.1440371605707961
31.852640000000008,11.613941100810354,0.1435521868940966
31.855087999999995,11.775149761984434,0.14305155907712888
31.857535999999985,11.927001441590354,0.14259706106019002
31.859980000000007,12.076852916307729,0.1421013837668048
31.862427999999998,12.223633250949916,0.1415771224924806
31.86487199999999,12.364409179210725,0.1410612297623157
31.867312,12.495456038851039,0.14058091159630395
31.869747999999987,12.61113961468394,0.14019445688103058
31.872191999999984,12.718117835254747,0.13984652192711503
31.87464,12.81746163575009,0.13952524201056554
31.877084,12.913267765461425,0.13920763228668268
31.87953999999999,13.004697606627587,0.13892244363262657
31.88198399999999,13.099619792607385,0.13860229353451323
31.884435999999997,13.197754784147103,0.13825531023238508
31.88687999999999,13.302547704232126,0.13786155326753063
31.889323999999988,13.408411559503788,0.13745958016859514
31.891767999999985,13.506546551043504,0.13711743874731222
31.894231999999988,13.605380390717519,0.136761355219477
31.896683999999997,13.709476358526112,0.13634233265063947
31.899124,13.805890684431,0.1359638988459391
31.901556,13.888896605446652,0.13566374351179708
31.904015999999984,13.96650252455874,0.135378063156814
31.90645999999998,14.042061016954039,0.13507271275692898
31.908904000000007,14.111148572259129,0.13479118668013101
31.911348000000004,14.174975895287513,0.1345194014145186
31.913780000000003,14.231261346039055,0.13427997448639384
31.916224,14.282239342685648,0.13406896725891299
31.918671999999987,14.335126892280039,0.13382626435781203
31.921115999999984,14.388713290008731,0.13356773072645087
31.923572000000007,14.43829548624459,0.133340338380264
31.92600400000001,14.490019552853724,0.13309684016786
31.92846,14.538578035731188,0.13286262579685654
31.93089599999999,14.580618359690202,0.13266891386878957
31.933347999999995,14.616979142491932,0.1324934433259255
31.935788,14.653806456002481,0.13229075987446287
31.938240000000008,14.691751926527918,0.1320615753325607
31.940684000000005,14.735750921120847,0.13177093644356014
31.94313199999999,14.773511296049044,0.13151160586260732
31.94557599999999,14.804101885752738,0.13128946159862226
31.948019999999985,14.834460158030954,0.13105520057519343
31.950463999999982,14.871244041429001,0.13076877063839978
31.952908000000008,14.906864441841792,0.13047600442369703
31.955347999999987,14.939039719269191,0.13019777774718652
31.957779999999985,14.973776175950448,0.12989353454921712
31.96023199999999,15.008652402258564,0.12958696302271044
31.962672,15.047020973380318,0.1292496204227329
31.965115999999995,15.08715932782301,0.1288872568281404
31.967568,15.127856760773145,0.1285132449886666
31.970012,15.166180005924526,0.12814638976210557
31.972459999999984,15.204270933650427,0.12776702583499627
31.97490399999998,15.236402780965323,0.1274097693467188
31.977352,15.268953937160797,0.12704341817387188
31.979795999999997,15.301552315184514,0.1266581886720115
31.98223999999999,15.333499066902174,0.1262715016328963
31.984683999999987,15.353852523021915,0.12595390203719495
31.987127999999984,15.367827589850064,0.12566736736459838
31.989559999999983,15.38021986481238,0.1253854078983245
31.99200399999998,15.393822844588195,0.12509196281490675
31.994443999999987,15.404772097311536,0.12480904485432671
31.996887999999984,15.416000889288595,0.12451976859646635
31.999348,15.424715723840041,0.12423879998827743
32.001791999999995,15.433570328018348,0.12395487227999238
32.004244,15.443775406637013,0.12365644862273412
32.00668400000001,15.451047218949483,0.12337621749188059
32.009131999999994,15.456456700142397,0.12310538278422041
32.011572,15.454788943909419,0.12287993188850922
32.014036000000004,15.450187921370247,0.12267146386738129
32.01648799999998,15.441722466965102,0.12248448685210558
32.01892799999999,15.429252811067125,0.12232202873114704
32.021376000000004,15.422277600729197,0.12211738353395152
32.02382,15.414510994458354,0.12191340202274126
32.026272000000006,15.403019725948397,0.12172708401162007
32.028716,15.391109148557858,0.12155050267214583
32.03115599999998,15.379850197473376,0.12137597331197546
32.03360000000001,15.374318009374427,0.12117089448078666
32.036044000000004,15.371299778701092,0.12095885644828637
32.03848399999998,15.362275245788508,0.12078332550763655
32.04092800000001,15.354740956943141,0.12059013641727545
32.043379999999985,15.351862495896668,0.12037488224592935
32.04581999999999,15.349775430783112,0.1201588140188001
32.04827599999999,15.34955069678911,0.1199344759494072
32.050715999999994,15.348115257981611,0.11972108294547701
32.05315999999999,15.348402380666808,0.11950283677019494
32.05560399999999,15.34682717223245,0.11929304105169018
32.05805599999999,15.345531503051811,0.11907654903297264
32.06049999999999,15.348240035364004,0.11883596378168516
32.062948000000006,15.354673229915312,0.11857857556542523
32.06539599999999,15.3608268852129,0.11832730778513934
32.06783999999999,15.3707052027496,0.11805888139921647
32.07028,15.37294720435297,0.11784701627298132
32.072723999999994,15.382778300061428,0.11759885753639474
32.075164,15.396334058009,0.11733394834613489
32.07759999999999,15.41096075114321,0.11706176062694865
32.08004399999999,15.425727213904278,0.11678669053931053
32.082492,15.442356007784907,0.11650421757029625
32.084936,15.46112667203881,0.11620794315091466
32.08738,15.485624099278244,0.11588383419729129
32.08983999999998,15.506629181704044,0.11558869619508032
32.092291999999986,15.524561228196784,0.11531289086853869
32.09474,15.541422339502889,0.11504501242443917
32.09718799999999,15.555070645249074,0.11479950448702496
32.099631999999986,15.570860821368543,0.11453994446669499
32.10208,15.584369357487871,0.11429877222084012
32.104524,15.60160255584631,0.11404216974345067
32.106976,15.621349711630364,0.1137808425324359
32.10942,15.639886162600922,0.11353003218220463
32.11186000000001,15.655489347265286,0.11329475401648774
32.114304000000004,15.676167668609118,0.11303102008088266
32.116748,15.695914824393174,0.1127717547544873
32.11918800000001,15.719666181670064,0.1124904835756824
32.121632000000005,15.737271467080843,0.1122463945669165
32.124076,15.753014421372066,0.11201038817472872
32.12652399999999,15.768198297155847,0.11178727253254138
32.128967999999986,15.781240302566351,0.11157806043292338
32.13141999999999,15.79106950241694,0.11139007122442472
32.13387599999999,15.796614961520973,0.11123002147416557
32.13632799999999,15.797225053572395,0.11109513022903403
32.138768,15.79797491525068,0.1109568127306261
32.141215999999986,15.804079452862156,0.11078443273510385
32.14365999999998,15.810183990473632,0.11061221774592314
32.14611199999999,15.820572268831661,0.1104131064598111
32.148551999999995,15.83161217349575,0.11021732525146179
32.15099999999998,15.841860682226919,0.11002212449321441
32.15343199999998,15.847034054278614,0.10985461639813716
32.155876000000006,15.849553699277834,0.10969515894069239
32.15832399999999,15.856217315396751,0.10951225636125207
32.16076799999999,15.862601392261945,0.1093354632969499
32.163219999999995,15.86498126763431,0.10917967464099762
32.165651999999994,15.869503013379948,0.1090109118756506
32.16810799999999,15.870160327259617,0.10885936419060076
32.170556000000005,15.87095741076614,0.10870460461563282
32.173,15.876270552444694,0.10853570504296392
32.17544799999999,15.884424412630832,0.1083385945060627
32.177903999999984,15.898584575056216,0.10811186938228594
32.18036000000001,15.911953341548683,0.10788519850186476
32.182796,15.929466079160846,0.10763561082148566
32.185236,15.95298511901226,0.10735640509101639
32.18768,15.980228821102786,0.1070638114715594
32.190132000000006,15.999975976886839,0.10681749690217913
32.192576,16.018791967111117,0.10657477494896075
32.19502399999999,16.033184446961982,0.10636170537208858
32.19746000000001,16.046785530879927,0.10614974086272767
32.199899999999985,16.060386614797874,0.10593773913668492
32.20235199999999,16.077340273902596,0.10570323536742476
32.204792,16.095085328940232,0.10546862320248022
32.207232000000005,16.112038988044954,0.10523574523946258
32.20966799999999,16.13355592714995,0.10497229018822335
32.21212399999999,16.155212635881806,0.10470585778781022
32.214564,16.173656539053745,0.10445893719119202
32.217004,16.20117978039799,0.10416884581269634
32.219448,16.229773956928874,0.10387282533606676
32.22189599999999,16.253712305660866,0.10359398885958652
32.224339999999984,16.27723134551228,0.10332568742740011
32.226788,16.29595478793794,0.1030772509360525
32.22922399999999,16.319893136669933,0.10280194904672088
32.231663999999995,16.340106823162813,0.10253960421875566
32.234104,16.357387243349496,0.10229053537408983
32.23655199999999,16.375226742043623,0.10203090888710263
32.239003999999994,16.395627419991605,0.10174999464502692
32.24144799999999,16.418169968312863,0.10145760969015016
32.24389199999999,16.441271595141565,0.10115341962224841
32.246340000000004,16.46157972529093,0.10085860230793964
32.248784,16.48482112174649,0.10055248249655892
32.25123199999999,16.50885391413497,0.10024713740479316
32.253675999999984,16.532886706523453,0.09994220446268587
32.25612799999999,16.551564822978737,0.09966695687544685
32.258568,16.56595919868747,0.0994160421296839
32.261008000000004,16.583147071075537,0.09915693313948308
32.263452,16.6027563530906,0.09888081490513008
32.26589999999999,16.61542816730664,0.09863497191821663
32.268339999999995,16.628519290403254,0.09838093611568798
32.27078,16.640446930514614,0.09811793921982871
32.27322799999999,16.64706711652103,0.09786616559172645
32.275671999999986,16.65396684178116,0.09760863991028887
32.27812,16.655279573682623,0.09736821196733841
32.280564,16.657663240770724,0.09712191836267797
32.283004000000005,16.660978073418605,0.09687320910454221
32.285436000000004,16.660800561252845,0.09664744738246783
32.287892,16.664207941699342,0.09641411055385607
32.29033200000001,16.66640461733234,0.09618952329312437
32.292767999999995,16.66767012740556,0.09596746236788313
32.29521599999998,16.669866803038556,0.09574250722181817
32.297664,16.668618355686156,0.09552272409300967
32.300107999999994,16.665647346841062,0.09530553129483936
32.30256,16.662444020570497,0.09507676390676084
32.305004,16.659799772807368,0.0948359228891131
32.307447999999994,16.65650389873818,0.0945917337219629
32.309888,16.64962313205674,0.09435528266363762
32.312332,16.64074026462888,0.09412695421223002
32.31476799999999,16.62985529645461,0.09390623207217542
32.317211999999984,16.620413350519314,0.09368911331187463
32.31965599999998,16.616790715368165,0.09346848559142125
32.32209599999999,16.61940669988174,0.09323581529167763
32.324539999999985,16.625467807380712,0.0929992681082019
32.32699199999999,16.634834268238215,0.0927611874910898
32.329447999999985,16.64885655689461,0.09251154106464254
32.33190399999998,16.662227219244947,0.09225933614349313
32.33434399999999,16.677879521595422,0.0919941443989061
32.336783999999994,16.689155535400722,0.09173610876370611
32.33922799999999,16.701921793273243,0.0914650727494376
32.34168399999999,16.71934387894466,0.09118274080328964
32.344123999999994,16.740630396482043,0.09088902042318377
32.346576,16.76522226737797,0.09059477043828089
32.34901199999999,16.793538800513,0.09029226118239268
32.351455999999985,16.82408975181993,0.08999493801689006
32.353904,16.862369566858803,0.08967518914759248
32.35634400000001,16.90423427450993,0.0893499232021866
32.358795999999984,16.95061504033309,0.08901724009467227
32.36123999999998,16.99750766283545,0.0886910088952227
32.363691999999986,17.051477522763697,0.08833954963260335
32.36613199999999,17.10423667787844,0.08799722540273891
32.36857599999999,17.152340005194297,0.08766726954018009
32.371024000000006,17.197370296577095,0.08735057985681258
32.37348399999999,17.241329652773256,0.08704054868435275
32.375939999999986,17.29129531120867,0.08671240559779073
32.37837999999999,17.338187933711026,0.08639788204632373
32.38082800000001,17.386383808825496,0.08609110261746007
32.383275999999995,17.437233410992445,0.08578282468130077
32.38572399999998,17.491248596891065,0.08547782627187658
32.388172,17.543913308349325,0.08518416687873163
32.390619999999984,17.59550708462094,0.08489713256404588
32.39306399999998,17.645098760146155,0.08461839140166304
32.39550800000001,17.695109744551935,0.08433348481857479
32.397952000000004,17.74325839783816,0.08405419956076375
32.40039199999998,17.792338216684172,0.08377474783077779
32.40283600000001,17.83820522997026,0.08351103170596451
32.405272,17.88421201288321,0.08324626932567532
32.407724,17.92770483837055,0.08298328548597347
32.41016399999998,17.974690008671523,0.08270341948279772
32.412608000000006,18.019673078226077,0.08243193217010175
32.41505599999999,18.062281959981878,0.08215855154746299
32.41751199999999,18.107172481737816,0.08187479943402738
32.41996799999998,18.14875765013522,0.08159028914289285
32.42240799999999,18.188899796293647,0.08130276539783596
32.424856000000005,18.221872157227573,0.08102604948658611
32.4273,18.25247033036274,0.0807473077116906
