Time,Force,Position
4.550648,3.5169246631425497,0.1843857525693487
4.552988,3.7510153393650194,0.1803877912612813
4.555332000000001,3.980359535847849,0.1767155407407928
4.557676,4.20509891807577,0.1728868603089268
4.560020000000001,4.410801367801151,0.1694287262437952
4.562359999999999,4.589178942784604,0.1669447549112955
4.564699999999999,4.745165114220875,0.165194157402179
4.623271999999999,5.133099916887847,0.1648053891832892
4.6256200000000005,5.133938534649008,0.1647402174795366
4.627956,5.137942736141842,0.1646406651807833
4.630292,5.14948880991152,0.1644279444902941
4.632636000000001,5.163129532226232,0.1642035585389526
4.634984,5.183008874205671,0.1638490563168297
4.637324,5.200466806558112,0.163575444471123
4.639664000000001,5.221881718575144,0.1632661301687952
4.642024,5.250326646189822,0.1628512366080698
4.64436,5.289014394962061,0.1622291521734099
4.6467,5.336409394854269,0.1613335894996385
4.649044000000001,5.376542061723354,0.1605624363959373
4.651383999999999,5.414440310420545,0.1598229488935065
4.653724,5.457413695797208,0.1589648942735669
4.656068,5.496150562255559,0.1581551816828363
4.658423999999999,5.526134851623569,0.1574842317645642
4.660764,5.553512635767347,0.156806422434204
4.663108,5.573393873604656,0.1563394368555494
4.665451999999999,5.598303026293193,0.1558089679617432
4.667803999999999,5.624747749019323,0.1553113253880417
4.670139999999999,5.649702227678234,0.154868505116323
4.672484,5.674005080031088,0.1544263719639617
4.674824,5.688856507159297,0.1541850956080311
4.677167999999999,5.704080021339845,0.1539713267992563
4.679512,5.7259614640657,0.1536241121570918
4.681852,5.748681524552717,0.1532180625143405
4.684204,5.775872317241392,0.1526391872031913
4.702967999999999,5.7809002320926215,0.1525497454713575
4.705316000000001,5.795192580713392,0.1523775145557815
4.707664,5.815491231573411,0.1520857252611902
4.709992000000001,5.842634802433843,0.151618531197327
4.712336,5.858976473629273,0.1513596418870439
4.71468,5.87759978482484,0.1510418821537687
4.717023999999999,5.901997080834178,0.1505736264460311
4.719368,5.923648101992427,0.1501036524461135
4.721711999999999,5.94399587053856,0.1496196665800533
4.724060000000001,5.962621077591995,0.1491639875412781
4.726400000000001,5.977753939831793,0.1488069606282424
4.728744,5.996611464310706,0.1483947039259193
4.731091999999999,6.007740125057672,0.148122519334372
4.733427999999999,6.018449476924057,0.1478734684972437
4.735767999999999,6.036608153268669,0.1474978818645404
4.738112,6.0619838366660295,0.1469792859475979
4.740464,6.092062569690526,0.1463397418776435
4.7428,6.114552208609935,0.1458226981950512
4.745144000000001,6.130244149357176,0.1454225418095537
4.747492,6.145144694171497,0.1450351224676668
4.7498320000000005,6.160604317493261,0.144621325648401
4.756868,6.148691844244855,0.1443578009872421
4.759204,6.148321653050386,0.1442028407468805
4.761548,6.150093332229195,0.1440024824543303
4.763896,6.148652205848088,0.1438729050652231
4.766240000000001,6.150097123944933,0.1437384212108252
4.768584,6.160574158385841,0.1434797696468318
4.7709280000000005,6.173984459132944,0.1431743010757241
4.773276,6.189304312827846,0.1427974643062725
4.775612,6.195172741298107,0.1425675243131497
4.7779560000000005,6.204206753500039,0.1423124266898459
4.7803,6.220969629433919,0.1419282986184351
4.782644,6.2364292527556815,0.1415437738338227
4.784987999999999,6.244439551599219,0.1412751394903725
4.787328,6.249097275255979,0.1410816558793981
4.789668,6.261576410443305,0.1407983040412588
4.792004,6.292306769773859,0.1402289919141367
4.794348,6.323037129104412,0.1396674071359916
4.7967,6.350973991755631,0.1391565289266575
4.799040000000001,6.3803538766458265,0.1386479724600635
4.801384,6.424911949746194,0.1379072119936797
4.803728,6.477850512884568,0.1370470253944386
4.806068000000001,6.525341852291131,0.1362844612815693
4.808404,6.5695278383391615,0.1355603840419669
4.810752,6.611991262894496,0.1348540987645345
4.813096000000001,6.651661190770494,0.1341831357500079
4.815435999999999,6.687746226034241,0.1335652442455055
4.81778,6.720805447193175,0.1329659633398851
4.820124000000001,6.752933502792332,0.1323865293204703
4.822468,6.791160408429355,0.1317431141380979
4.824803999999999,6.83404314186527,0.1310412190834851
4.827152000000001,6.873201213062073,0.1303958635135742
4.829491999999999,6.909333470154062,0.1297635617329653
4.831836,6.942113152059276,0.1291934023118924
4.834180000000001,6.974193985830188,0.1286599439179223
4.836519999999999,7.004692027735265,0.1281330416106254
4.838871999999999,7.024016082923002,0.1277538832735049
4.841207999999999,7.040454093632788,0.1273760595934842
4.843556,7.05237604617054,0.1270460191173904
4.8459080000000005,7.0602937972154605,0.1267742697987237
4.848248000000001,7.0623450156479874,0.1265848974653307
4.850592,7.060579024042788,0.1264055908052846
4.852939999999999,7.058021636504668,0.1262304967605763
4.855284,7.055836336018886,0.1260747392324071
4.857627999999999,7.05453497926464,0.1259495235515109
4.859972,7.057237824003226,0.1257680137638176
4.86232,7.057566480943059,0.1255958759588655
4.864655999999999,7.054542562696117,0.1254840107869958
4.867,7.055103537061426,0.1253397223646224
4.869344000000001,7.059948252173292,0.125128527631756
4.871683999999999,7.06348971467304,0.1249097871316761
4.874035999999999,7.065588154933812,0.1246892956383581
4.876376,7.070060782993339,0.1244620522475307
4.878716,7.07881715179942,0.1241672575982614
4.881052,7.089063764672719,0.1238337714516538
4.883396,7.101592017546156,0.1234601355987516
4.885744,7.11705353672579,0.1230523348742887
4.888091999999999,7.129674337397844,0.1227115099402291
4.890436,7.147742361801709,0.122321311520596
4.892779999999999,7.169674818071547,0.1218842166446654
4.895124,7.194680310274441,0.1214055448719929
4.89746,7.216053688036837,0.1209965801333399
4.8998,7.23328309467954,0.1206483219389762
4.902144000000001,7.247719004642907,0.1203286237096146
4.904488,7.263273071621156,0.1199521711744942
4.906828,7.274822937106571,0.1196286148799811
4.909172000000001,7.287024428898044,0.1193099581382603
4.911523999999999,7.302438726249433,0.1189413142138714
4.913860000000001,7.308122059122458,0.1186894627349779
4.916204,7.30365511863654,0.1185749255630538
4.942036000000001,7.198125607878319,0.118527009989548
4.944424000000001,7.187744912951767,0.1185197749917312
4.946815999999999,7.18029748433141,0.1184787524901617
4.94922,7.178576818696583,0.1183773213429793
4.951604000000001,7.176017535300595,0.1183174863123051
4.954007999999999,7.176671057464522,0.1182103200407159
4.9564,7.178395514815088,0.1180877011185685
4.958796,7.178909267352154,0.117987903651827
4.961192,7.185010013247891,0.117834837119421
4.963576000000001,7.199398701383015,0.1175691144577806
4.965972,7.216069029518277,0.1172659486097563
4.968368000000001,7.235300536907396,0.1169112419012006
4.970756000000001,7.254671813923377,0.1165484549001581
4.973152,7.27232052944666,0.1161970012043094
4.975548000000001,7.284894108290471,0.1159122074313551
4.977936000000001,7.30096003194792,0.1155682162522944
4.980332,7.318236660418865,0.115199822253962
4.982736,7.334721892956893,0.1148375948389104
4.985119999999999,7.348134089561865,0.1145132581341539
4.9875,7.363548386913254,0.1141672438802954
4.989904,7.384317360197836,0.1137483584802579
4.992292,7.406808894975114,0.1133225947663374
4.994672,7.426646702699917,0.1129148819757702
4.997076000000001,7.438755646692775,0.1125869726503103
4.999464000000001,7.451283899566212,0.112238947387791
5.001843999999999,7.464743317999428,0.1118856368497413
5.00424,7.47391899568609,0.1115905657255889
5.006628,7.483374212626471,0.1112825984046632
5.009008000000001,7.493108968820575,0.1109624911124194
5.011404,7.496697653148566,0.1107175637164973
5.013792,7.49758538859584,0.1105287881639373
5.016172,7.497122649602754,0.1103683334808467
5.018576,7.499732946542723,0.1101714407013915
5.020964,7.506067905721807,0.1099443573843201
5.023344000000001,7.5138931089681105,0.1096831393546607
5.02574,7.52250970814733,0.1094237255878258
5.028123999999999,7.5304746810204914,0.1091580318828821
5.030504,7.534295682773961,0.1089425871071812
5.032908,7.543331590833761,0.1086632183138377
5.035296,7.550225628520287,0.1084132238624006
5.037676,7.547900558407645,0.1082693850783602
5.040076,7.542502452361948,0.1081609327112165
5.042464,7.5437622748615585,0.1079950434633869
5.044844,7.5496779251600605,0.1077917395539198
5.04724,7.555314036204843,0.1076016107262155
5.049627999999999,7.559599672809266,0.1074392369125303
5.052012,7.569239985346883,0.1072080114888135
5.054408,7.579392154563696,0.1069896795650046
5.056795999999999,7.591406654900066,0.1067590583642255
5.059176,7.60714581747555,0.1064990296618634
5.061571999999999,7.627448260051309,0.106173391984648
5.063960000000001,7.649752803373483,0.10582910680338
5.066356,7.669496167441801,0.1055321591881856
5.068756,7.685095560390425,0.1052833739548938
5.071143999999999,7.698925170018109,0.105079522589024
5.073524,7.706468938152822,0.1049491646511716
5.075919999999999,7.717178290019207,0.1048166476261581
5.078308000000001,7.732823008938205,0.1046375190993742
5.080687999999999,7.746837714163122,0.1044981998010856
5.083084,7.759641714574542,0.1043780170427854
5.085472,7.782176679464326,0.1041708175477843
5.087852000000001,7.806713745100525,0.1039438880236476
5.090248,7.824173573310836,0.1037912429119963
5.092636,7.841912940774868,0.1036271084499605
5.095020000000001,7.862725344171955,0.1034320111919522
5.097416,7.882606582009263,0.103243944385593
5.099799999999999,7.899135244659796,0.1031011799290651
5.102184,7.91487251137741,0.102959256379838
5.104588000000001,7.922461605482496,0.1029003361747241
5.106972,7.934194670707276,0.1027980943437892
5.109352,7.94350632630506,0.1027343036683062
5.111752,7.949325637089206,0.1027201593879991
5.11414,7.960639393433405,0.1026387202912405
5.11652,7.972232689031326,0.1025447845416298
5.11892,7.984105523882967,0.1024380651474096
5.121308,8.000122329854301,0.1022868735450647
5.1236880000000005,8.014416574332941,0.102142816592326
5.126084,8.025777552505383,0.1020249949671007
5.128468000000001,8.034345033998493,0.1019257504247833
5.130868,8.049198356984572,0.1017597710997002
5.133264,8.060047478477816,0.1016324898227408
5.135651999999999,8.073829866277258,0.1014825252410219
5.138032,8.089754124449975,0.1013079220122311
5.140427999999999,8.107540713742251,0.1011231526887593
5.142816000000001,8.123464971914968,0.1009522233992502
5.145195999999999,8.140739704528045,0.1007585644966518
5.147592,8.160156307514399,0.1005414052687521
5.14998,8.17957291050075,0.1003245966283253
5.152360000000001,8.207277455726494,0.100024490738706
5.154756,8.227113367593427,0.0997906537362705
5.157144,8.245226717967665,0.0995628402781388
5.159528000000001,8.26725172203612,0.0992715816738267
5.161924,8.283270423865323,0.0990350365042339
5.164307999999999,8.30450403200086,0.0987492364519751
5.166708000000001,8.33109231606959,0.0984092150885315
5.169104,8.359962240138456,0.0980444920557009
5.171492,8.392324509020959,0.0976381572267429
5.173876000000001,8.426688878649877,0.0972175363916043
5.176272,8.46733908977177,0.096738814836084
5.178664,8.497978797161574,0.0963426574835842
5.18104,8.527035712685544,0.0959464179339092
5.183436,8.55143680041062,0.0955792546487527
5.1858200000000005,8.578119528135836,0.0951872213568267
5.188199999999999,8.600006658435301,0.0948277879287388
5.190592,8.620031457615207,0.0944793893172409
5.192976000000001,8.638845551981616,0.0941483651452571
5.195372,8.660081055975024,0.093788302813244
5.197764,8.679454228848872,0.0934376054619393
5.200148,8.696033905043386,0.093104228679892
5.2025440000000005,8.714895221238038,0.0927431399986224
5.20494,8.736969342992603,0.0923522858103444
5.207324000000001,8.754759724000616,0.0920039817961509
5.209708,8.769896377956155,0.091662987333392
5.212112,8.776884859299166,0.0913889957669318
5.214496,8.779729369522483,0.0911523212440093
5.216876,8.77656757750655,0.0909605632787645
5.219271999999999,8.769122044744059,0.0908095282125647
5.221656,8.758091619369319,0.0906714975569492
5.224052,8.741054891755327,0.0905770077544622
5.226451999999999,8.728301904887891,0.090442123364069
5.228839999999999,8.714757522087535,0.0903059105352777
5.23122,8.698279872980983,0.0901885343518356
5.233624,8.6777980223816,0.0900999723879936
5.236007999999999,8.66052897734213,0.0899807652986829
5.238388,8.641257831556246,0.08987581374215
5.2407840000000006,8.618122253904385,0.0897947657131058
5.243172,8.587769669199776,0.089772860168414
5.245551999999999,8.561561055614861,0.089715207337243
5.247955999999999,8.533350341283532,0.0896715448974934
5.252724,8.474879590046207,0.0896305577983006
5.255120000000001,8.445178631647657,0.0896115684264561
5.2575080000000005,8.420133501048,0.0895696054760667
5.259892,8.40002373750095,0.0894938749433002
5.262288000000001,8.377772103580625,0.0894380876127969
5.264672,8.358313966339637,0.089368516649176
5.2670520000000005,8.340997699471924,0.0892783564662017
5.269443999999999,8.325403994096908,0.0891841849822044
5.271832000000001,8.309950058348752,0.0890841153189848
5.274228,8.297289619279933,0.0889701029933325
5.27662,8.289285008010003,0.0888335884918565
5.279008,8.28928879972574,0.0886397053145972
5.281388000000001,8.292086088120815,0.0884325958722528
5.283791999999999,8.290739405396195,0.0882592554290299
5.286180000000001,8.295259255283964,0.0880489574744067
5.28856,8.307927277784263,0.0877770264363806
5.290956,8.32781230733731,0.0874478335816168
5.29334,8.346486632076857,0.0871362870849503
5.29572,8.369165158309238,0.0867980975371122
5.2981240000000005,8.394265094168619,0.0864331111885115
5.300512,8.422577835587912,0.0860385151678831
5.302891999999999,8.451681972940124,0.0856470436404892
5.305295999999999,8.481065649546059,0.085247396505246
5.307683999999999,8.507376290218938,0.0848705696988816
5.310064,8.535037405332174,0.0844725388443888
5.312460000000001,8.56498016044555,0.0840526776282431
5.314844,8.588916613319675,0.083671443554558
5.317224,8.611782131007157,0.0832997223180335
5.319628000000001,8.639443246120397,0.0829044182968849
5.3220160000000005,8.664822721233493,0.0825349130587588
5.324395999999999,8.685127059667122,0.0822020667999203
5.326792,8.696352059928444,0.0819310647950773
5.32918,8.705435189816487,0.0816786505665574
5.3315600000000005,8.717591355637587,0.0814034757316896
5.333956,8.724672384779215,0.0811640595884426
5.336340000000001,8.72746967317429,0.0809624576295634
5.338736,8.72412088970325,0.0808044574933817
5.341131999999999,8.717978609552882,0.080657297135416
5.343516,8.709554689402369,0.0805334152509114
5.345896000000001,8.695915862945526,0.0804483527993252
5.348299999999999,8.681997497234965,0.0803735409555796
5.350684,8.667147965964624,0.0803019716488874
5.353068,8.648945859507508,0.080261551486653
5.355467999999999,8.635027493796944,0.0801858708828958
5.357855999999999,8.623902624765718,0.0800995198812989
5.360236,8.610496115734353,0.0800353756521296
5.3626320000000005,8.606820571181354,0.0799218324813004
5.36502,8.605147127374769,0.0797964004774608
5.367399999999999,8.600540417261987,0.0796864381369685
5.369803999999999,8.599565821589707,0.0795361711824199
5.372188,8.6019438011042,0.0793556076405796
5.374572,8.614192514723914,0.0791227082638545
5.376976,8.627651933157132,0.0788762607900632
5.379359999999999,8.643904848269681,0.0786220195955816
5.38174,8.665512439315425,0.0783277288262931
5.38414,8.685537238495332,0.0780293430532604
5.3865240000000005,8.712359735847407,0.0777002782304335
5.388903999999999,8.741835960251958,0.0773672828237285
5.391308,8.773454055029786,0.0770198451352205
5.393695999999999,8.805863545740532,0.076673263198064
5.396076,8.841346072384331,0.0763098842178427
5.398471999999999,8.876688829401273,0.0759523580229532
5.400860000000001,8.917106723097685,0.0755660284014245
5.403239999999999,8.958316012727018,0.0751865152969349
5.405644,8.996312496796433,0.0748320948017632
5.408028000000001,9.03337781530607,0.0744805953121687
5.410407999999999,9.064716370830178,0.0741542235913863
5.412804,9.096194695981143,0.0738248783025693
5.415192,9.129814891505388,0.0734823965018341
5.417587999999999,9.15780087184272,0.0731895234203636
5.419984,9.18550731292633,0.0729084067899423
5.422372,9.207207451770689,0.0726599157787192
5.424752000000001,9.227976425055273,0.0724143022394428
5.427155999999999,9.2456723624068,0.0721875170068099
5.42954,9.260155494198411,0.0719843758964723
5.431916,9.278363288229135,0.0717720719158918
5.434323999999999,9.294568981513445,0.0715715341635978
5.436708,9.312916545171024,0.0713582056024277
5.439087999999999,9.33247481364211,0.0711354423363693
5.441491999999999,9.35431472211333,0.0708943840878719
5.443876,9.371219263531938,0.0706748723219058
5.446252,9.390265675323825,0.0704425277727157
5.448648,9.406518590436374,0.0702183232227932
5.4510320000000005,9.421188713683089,0.0699910401377859
5.453428,9.43720931137016,0.0697478140065322
5.455832,9.456442714617149,0.06948531077082
5.458215999999999,9.479820088983834,0.06920232558139
5.460596,9.500124427417465,0.0689349359087206
5.463,9.517355729918032,0.068683842514894
5.465383999999999,9.535006341299184,0.0684179300373933
5.467764,9.55186555674742,0.0681503261445549
5.470156,9.570075246636014,0.0678672960544974
5.472544,9.590287037271024,0.0675764477526732
5.474924000000001,9.611709532719534,0.0672754153644554
5.477324,9.630198761861848,0.0669841418559409
5.479712,9.647756825444382,0.0666964906467672
5.482092000000001,9.662800931601303,0.0664063337545036
5.484488,9.677333181079028,0.0661069797249648
5.486871999999999,9.68557958906378,0.0658412414967486
5.489268,9.693965766675392,0.0655720958131924
5.491672,9.70570451947378,0.0652801342065371
5.494056,9.713858379659916,0.0649910129077311
5.496436,9.720149908726494,0.064705058385317
5.49884,9.725090963352716,0.0644348672479349
5.501224,9.73217388835221,0.0641536990320728
5.503604,9.73725471260529,0.0638810676461013
5.5060080000000005,9.73632923461912,0.0636310498447237
5.508396,9.742620763685698,0.0633498461188033
5.510772,9.749983227938918,0.0630628825322267
5.5131760000000005,9.76041872812519,0.0627630682296401
5.51556,9.766850026818627,0.062476827406457
5.51794,9.774072721444986,0.0621943758445286
5.520332000000001,9.781574955325064,0.0619043222400199
5.5227200000000005,9.788146023645364,0.0616163025009592
5.5250960000000005,9.798861063085358,0.0613098468467601
5.527500000000001,9.805571901032517,0.0610169670677116
5.529884,9.813074134912592,0.0607274169044964
5.5322640000000005,9.815873319165537,0.0604735944390778
5.53466,9.821885308978391,0.060202452638996
5.537044000000001,9.82803706841811,0.0599280854435974
5.53944,9.83097602229791,0.0596703594373079
5.541844,9.834287063230052,0.0594283364751959
5.544228,9.841322766401309,0.0591821782606633
5.546608,9.847427304012784,0.0589371365444733
5.549003999999999,9.850319036064342,0.0587089214058148
5.551388,9.848415170690153,0.0584894056037299
5.553768000000001,9.849304801995292,0.0582662527278809
5.556164,9.837902289568213,0.0580898662549851
5.558547999999999,9.824497676394715,0.0579193919177838
5.560944,9.81388655990056,0.0577465094843202
5.563339999999999,9.80807104083215,0.0575640108321869
5.565727999999999,9.799182485830686,0.0573928132123624
5.568108,9.787872521202225,0.0572406371589969
5.570512,9.773629290267568,0.0570949236670988
5.572895999999999,9.759386059332916,0.0569491253581514
5.57528,9.751288900264369,0.0567808758330261
5.577675999999999,9.741049870822543,0.0566225220973446
5.580063999999999,9.73136991988816,0.0564462654672119
5.582439999999999,9.722621134513556,0.0562692755769324
5.584848,9.710380004325316,0.056115901916024
5.587231999999999,9.69986143562977,0.0559649532270601
5.589612,9.692695442121003,0.0557946049161117
5.592016,9.68231664305232,0.0556394591530754
5.594399999999999,9.672729239916556,0.0554876834352944
5.59678,9.665143937527208,0.0553301261670979
5.599175999999999,9.664216563683167,0.0551630304507642
5.60156,9.661426858719572,0.0549970266845782
5.603955999999999,9.666925095995364,0.0547988358299294
5.60636,9.674285664390712,0.054599162103507
