Time,Force,Position
4.9887,4.888946170963292,0.1625603312057776
5.028511999999999,5.193578625258556,0.1624968723344671
5.030856,5.208660473954375,0.1624196610031684
5.033196,5.221507904478298,0.1623550934686813
5.035532,5.232493003882665,0.162337184630487
5.037875999999999,5.245572751832066,0.1623233806089956
5.040224,5.269174860192749,0.1620855903273304
5.042567999999999,5.2951058303818135,0.1617110542146367
5.044912,5.317778669040587,0.1613178291249297
5.047252,5.330627995422381,0.1611144237880528
5.049595999999999,5.34301079109535,0.1610032246516065
5.051936,5.371036409829447,0.1606418267374563
5.054276,5.40171575561602,0.1602241578881517
5.056611999999999,5.4369583814028655,0.1596617243363319
5.058959999999999,5.482071741294936,0.1588871021142443
5.061304,5.527137879358764,0.1582011256100093
5.063648000000001,5.577651241154401,0.1574347092499717
5.065987999999999,5.637803019629786,0.1564243409222069
5.068332,5.700191112134932,0.1552384263491927
5.070679999999999,5.754525475684038,0.1541481488534408
5.07302,5.795963291023109,0.153311920029413
5.075372,5.840893451175815,0.1524031237332348
5.077716000000001,5.890247121701936,0.1514023179494493
5.080055999999999,5.939648014056298,0.1503330890841233
5.0824,5.976664214879824,0.149495231370101
5.08474,6.00059687603821,0.1489501448742989
5.087088,6.02527371130127,0.1484612103491129
5.089428,6.05977405884131,0.1478325243624474
5.091772000000001,6.097207672687548,0.1471375720003539
5.094116,6.134269199481445,0.1464162833384031
5.09646,6.16243837955814,0.1458288144916663
5.098796,6.18422917034325,0.145355103635419
5.101139999999999,6.211746724113887,0.1447821350749618
5.103484,6.235307298219934,0.1442412178269804
5.105832,6.2429455100111335,0.1439266319764525
5.1152,6.2226525467247225,0.1437915106210273
5.11754,6.217811623328597,0.1437877105456463
5.126911999999999,6.215252339932609,0.1437249205328071
5.12926,6.224890756612355,0.1435226740255884
5.131600000000001,6.239651531799818,0.1431767236591102
5.133948,6.25031555769583,0.1428698906973408
5.136288,6.257766778031924,0.1426351296032415
5.138636,6.2673598687412975,0.1423575171731707
5.140976,6.276441102771473,0.1420668357398813
5.143319999999999,6.287384667921204,0.1417446692295561
5.145664,6.303635687175885,0.1413633710292986
5.147992,6.319979254229184,0.1410255333411617
5.150335999999999,6.34256144094721,0.1406155721235024
5.152676,6.373524117703241,0.1400831586572102
5.155023999999999,6.40704797371313,0.1394788352833034
5.157360000000001,6.438429959349741,0.1389205803517153
5.159704,6.470463571292411,0.1383621545637086
5.162048,6.502916492115661,0.1377802443298459
5.164384,6.533646851446214,0.1372202208399583
5.166724,6.561863253351154,0.1366890237060557
5.169067999999999,6.5826303307778655,0.1362595699512866
5.171408,6.600883450778964,0.1358549111213674
5.173748,6.620347275593561,0.135426498706954
5.176088,6.634596194101826,0.135095675275716
5.17844,6.645073228542735,0.1348594797353549
5.180788,6.658436307461595,0.1346235903608884
5.183128,6.66900588970112,0.134426759823784
5.185471999999999,6.678923845634586,0.1342279918481645
5.187811999999999,6.69084390231447,0.1339968874014863
5.190156,6.707699326046968,0.1336891297465554
5.192499999999999,6.7165463467937965,0.1335123420646493
5.194839999999999,6.723158949368731,0.1333418481502098
5.197188000000001,6.722601766719158,0.1332513030928618
5.201872,6.708451083583119,0.1332362110295249
5.204212,6.701795050895679,0.1332050088986789
5.206543999999999,6.699842067835375,0.1330717071639367
5.208883999999999,6.699099789588569,0.1329114202439351
5.211231999999999,6.697938202461183,0.1327742511757474
5.213588,6.696589623878694,0.1326880194889611
5.215928,6.704972009774568,0.132463030594174
5.218268,6.712423230110664,0.1322491847319447
5.220611999999999,6.710515573020733,0.1321939692396898
5.222956,6.711121873356416,0.1321190268112733
5.225304,6.71773447593135,0.1319500935001538
5.227651999999999,6.7216008036551935,0.1317742908468254
5.229996,6.725095044326699,0.1315788539373161
5.232336,6.727238810557846,0.1314186396280199
5.234679999999999,6.724679527161856,0.1313591433129068
5.237024,6.721049308579229,0.1313191083851647
5.23936,6.723193074810375,0.1311595248464494
5.241707999999999,6.7194703084291305,0.1310840836210227
5.244044000000001,6.719844291339339,0.130981740454242
5.246388,6.728831081713028,0.1308029056380806
5.248728,6.738237180967297,0.1306003961082301
5.251068,6.747783049848427,0.1303914177244527
5.253408,6.754535422050222,0.1302195811046415
5.255751999999999,6.758726614998159,0.1301091230153988
5.258100000000001,6.763709203879015,0.1299950460186215
5.260439999999999,6.772231359401751,0.1297681853714913
5.262784,6.774934204140336,0.1295821248724395
5.265127999999999,6.780337997759642,0.1293296524621944
5.267467999999999,6.798825331044087,0.1288843509719904
5.269807999999999,6.819454534701808,0.128404949019516
5.272152,6.835847219441219,0.1279597647080932
5.2745,6.856244105673463,0.1274637768599722
5.276847999999999,6.878084014144684,0.1269709660196719
5.279188,6.9033690456012975,0.1264545650030507
5.281532,6.938152724110797,0.1257890360202682
5.28388,6.970562214821542,0.1251348488134688
5.286216,6.996825633666178,0.1245725276380277
5.288556,7.030166289936702,0.1239079287804641
5.290896,7.065136959901304,0.1232031721889922
5.293244,7.095219484641538,0.1225285765794304
5.295584,7.126512714195272,0.1218327642006511
5.297928000000001,7.158085483002724,0.1211279483504052
5.300272,7.185374511063624,0.1204898206309759
5.302616,7.212011912818465,0.1198441337217044
5.304968000000001,7.242001889760082,0.1191460589604455
5.377592,6.872673160949366,0.1188255313767626
5.379935999999999,6.876397823188479,0.1187886693398888
5.38228,6.881984816547149,0.1187333743366854
5.3846240000000005,6.888642745092457,0.118661385811985
5.386963999999999,6.894229738451127,0.1186052214651985
5.389308,6.898606026996298,0.1185728512205384
5.391655999999999,6.90898861778072,0.11846160180061
5.394,6.9140165326319485,0.1184340886561973
5.396348,6.917973512296539,0.1184232383811728
5.398695999999999,6.927657254946659,0.1183474684259932
5.401031999999999,6.934919587969783,0.118320689705488
5.403376,6.946186122485741,0.1182407725663851
5.405716,6.962248254427449,0.118105560931003
5.408059999999999,6.980452256742435,0.1179383933814115
5.410408,6.996514388684143,0.1178059720662962
5.412748000000001,7.009783023946516,0.1177020273706773
5.415096,7.021980724022251,0.1176151378449019
5.417436,7.037670768911623,0.117466588093824
5.419779999999999,7.049775921188741,0.1173473671965552
5.422127999999999,7.061089677532941,0.117230013063996
5.424467999999999,7.068539002011167,0.1171570594603554
5.426804000000001,7.075336700183335,0.1170803821435025
5.429148,7.085347203915419,0.1169574524000224
5.431495999999999,7.097359808393922,0.1168107444869258
5.433832000000001,7.115658254365394,0.1165778756002895
5.436171999999999,7.136889966643062,0.1163122892395974
5.4385200000000005,7.161986110786701,0.1160113579964754
5.440856,7.194019722729371,0.1156307672951949
5.443208,7.228986600978237,0.1152183055713778
5.4455480000000005,7.26502441441374,0.1147956539895479
5.447892,7.300270831916324,0.1143732192155561
5.450232,7.33551724941891,0.1139534652659986
5.452572,7.369692731734856,0.1135519370599058
5.454927999999999,7.40014355181169,0.113185768852489
5.457267999999999,7.430594371888523,0.1128196006450722
5.459607999999999,7.464118227898412,0.1124169584093196
5.461952,7.496710918348523,0.1120216306846392
5.464295999999999,7.525019868052079,0.1116901554453161
5.466632000000001,7.554120213688555,0.1113547946469803
5.468976,7.586573134511805,0.1109713806151857
5.471316,7.620096990521693,0.1105727351961372
5.473663999999999,7.647894083546052,0.1102300835181345
5.476004,7.66968487433116,0.1099574397805011
5.478348,7.687890772504017,0.1097104967049633
5.480692,7.699159202877842,0.109539459707817
5.483027999999999,7.7111264813859695,0.1093375204288123
5.485372,7.712571399482815,0.1092337521005049
5.487712,7.711502360154045,0.1091404332006506
5.490055999999999,7.710992399332717,0.1090217507149932
5.4924,7.705966380339357,0.1089337321780836
5.494743999999999,7.702290835786355,0.1088188914561027
5.497088,7.700757161606631,0.1086771135830582
5.4994320000000005,7.699642796307487,0.1085165860937028
5.50178,7.697457495821706,0.1083691659472352
5.50412,7.695691504216505,0.1082026172246234
5.506475999999999,7.689129915185552,0.108078360586552
5.508816,7.684058570221818,0.1079211512990744
5.51116,7.677404433392247,0.1077652403157652
5.513503999999999,7.674242641376314,0.1075559708426091
5.515844,7.667495956748127,0.1073691356657629
5.518191999999999,7.659818106560162,0.1071891557883626
5.520543999999999,7.654142357118613,0.1069879032589616
5.522884,7.651539643610119,0.1067523513475356
5.525228,7.650659491594324,0.1065085129033474
5.527571999999999,7.657927512191054,0.1061772827757547
5.529920000000001,7.659840856854593,0.1059130807822723
5.532264,7.667760503757382,0.1055862096353474
5.534608,7.673398510660033,0.1052929418928236
5.536951999999999,7.675823712002769,0.1050405751641156
5.539296,7.679971474838202,0.1047801933878429
5.541639999999999,7.686912734352967,0.1045007584924257
5.543996,7.6889186268151235,0.1042688597249893
5.546332,7.68985358409064,0.1040505991777361
5.548684,7.696143217299349,0.1037679834675237
5.5510280000000005,7.7010823760677,0.1035108118294418
5.553364,7.711888067448442,0.1032015307286653
5.5557,7.722274449948601,0.1029117576497044
5.558044000000001,7.731589897262122,0.1026331637856109
5.5604,7.736761373455949,0.1024005301231808
5.56274,7.741373771142337,0.1021927685909218
5.565084000000001,7.749059204761779,0.1019533610580694
5.567428,7.763682106180251,0.1016527880404982
5.569768,7.778305007598722,0.1013538532232547
5.572104,7.791065577897637,0.1010670625528813
5.574448,7.7978198459573,0.1008391069220703
5.5767880000000005,7.806436445136521,0.1005972222822528
5.579136,7.811840238755826,0.1003927919139345
5.581476,7.819665442002129,0.1001514141145925
5.583819999999999,7.829772285248569,0.0998795905022728
5.586164,7.838016797375452,0.0996196911807213
5.5885,7.842396877636363,0.0993919128869822
5.590844000000001,7.846776957897272,0.0991630560789671
5.593183999999999,7.848223771851987,0.0989583690478206
5.59554,7.846318010619925,0.0987977747131735
5.59788,7.846554119761142,0.0986126715151289
5.600223999999999,7.843996732223022,0.09844648282156
5.602563999999999,7.838506078378708,0.0983040539336828
5.604903999999999,7.8359486908405875,0.0981368296238436
5.607251999999999,7.838466439981941,0.0979213495114569
5.609596,7.839121858003737,0.0977168942488004
5.611948,7.837775175279117,0.0975312909712624
5.614288,7.825347053635773,0.0974482041811177
5.616631999999999,7.811987766432652,0.0973706913415191
5.618971999999999,7.803563846282142,0.0972513506538319
5.621304,7.793137825385216,0.0971494505778035
5.623652,7.7859246100482045,0.0970115394965818
5.625995999999999,7.784066070644386,0.096814180675704
5.628335999999999,7.775921689747598,0.0966815002307287
5.63068,7.767218230343369,0.0965732299091321
5.633023999999999,7.763589907618611,0.0964180470919305
5.635372,7.759682045640132,0.0962747191179527
5.637715999999999,7.762851421087544,0.0960682140529404
5.640064000000001,7.769745458774067,0.0958387370669105
5.642412,7.775568561273953,0.0956207456214826
5.644752,7.781531433400699,0.0953977317860064
5.647091999999999,7.787354535900584,0.0951811748163825
5.649443999999999,7.801977437319056,0.0948984465441377
5.651788,7.821395936163278,0.0945858016690031
5.654128,7.839743499820862,0.0942881785586318
5.656471999999999,7.864237135344559,0.0939362769180168
5.658823999999999,7.89059310198781,0.0935760823211741
5.661160000000001,7.922815601243452,0.0931702018994601
5.663504,7.954106934939316,0.092770111614055
5.665851999999999,7.983396167888763,0.0923903367686958
5.668184,8.016410063077323,0.0919892356109612
5.670527999999999,8.047421857519467,0.0916070798132675
5.672867999999999,8.076012242334613,0.0912624187457778
5.675212,8.112611030135426,0.0908537602462762
5.677552,8.147627026070403,0.0904441412521733
5.679895999999999,8.180361382005245,0.0900660243432943
5.682256000000001,8.21616877387314,0.0896629245531416
5.684604,8.243688223501646,0.0893355723528674
5.686947999999999,8.273349543503429,0.0889904290237824
5.689292,8.305152733878494,0.0886249296392292
5.691632,8.334674284253417,0.088286802091069
5.693975999999999,8.365918396121037,0.0879468797814789
5.696324000000001,8.39036480981649,0.0876542118154608
5.698663999999999,8.406942590153134,0.0874162217834294
5.70102,8.421378500116502,0.0871996726296511
5.70336,8.435395101199289,0.0870022650168891
5.705703999999999,8.449551471908935,0.0868011465040251
5.708043999999999,8.465058317058944,0.0865808868732888
5.710379999999999,8.47921468776859,0.0863805195655981
5.712728,8.491508727358681,0.0861891432383835
5.7150680000000005,8.505665098068327,0.0859906807934596
5.717412,8.521823569524393,0.0857796922171502
5.719756,8.535048774674264,0.0855864007256076
5.722099999999999,8.546132109450856,0.085413616196707
5.724448000000001,8.560148710533642,0.0852240586741326
5.726787999999999,8.576307181989707,0.0850173977179719
5.7291360000000005,8.591534487885992,0.0848160911187194
5.731484,8.61276809602153,0.0845753825220735
5.733827999999999,8.627995401917817,0.0843745801241135
5.736172,8.643222707814102,0.0841748466044617
5.738516000000001,8.662454215203223,0.08395002002382
5.740855999999999,8.680894326659422,0.0837251632335127
5.7432,8.700405373302262,0.0834913865328211
5.745543999999999,8.72778505330391,0.0832129697077847
5.747888,8.754233567745779,0.0829383122343163
5.7502200000000006,8.778168124762033,0.0826663534264781
5.752559999999999,8.797027545098814,0.0824286706719522
5.754904,8.813605325435459,0.0822152636139226
5.757248000000001,8.835677551332157,0.0819535216387555
5.759587999999999,8.857470237975132,0.0817017745321237
5.761932,8.87567803200586,0.0814603907902853
5.764279999999999,8.889462315663168,0.0812593001008781
5.766615999999999,8.906319635253533,0.0810371187512838
5.768955999999999,8.922245789284123,0.0808190551469566
5.771307999999999,8.934959137754793,0.0806276911585031
5.773636,8.941666183986214,0.0804730777712677
5.775980000000001,8.946231359844358,0.080335849028385
5.778319999999999,8.945069772716971,0.0802246939635555
5.780668,8.952056358202112,0.0800608491033008
5.783004,8.957972008500613,0.0799059076745066
5.785347999999999,8.962165097306421,0.0797535938811766
5.787692,8.965147481298729,0.0796150068080903
5.790036000000001,8.968129865291036,0.0794765738049179
5.792375999999999,8.965385486297814,0.0793634229814287
5.79472,8.962501337677729,0.0792551001791524
5.797067999999999,8.962270916110121,0.0791425035889533
5.799408,8.961900724915653,0.0790342449255574
5.8017520000000005,8.962461699280965,0.0789228996374458
5.8041,8.961532429579057,0.0788354408025659
5.806443999999999,8.96674923174326,0.0787097825829098
5.808783999999999,8.975690696146572,0.0785722926813928
5.811128,8.99133731092344,0.0783775910410818
5.813468,9.006983925700306,0.078183847230422
5.815811999999999,9.025703576410228,0.0779725604942753
5.818156,9.048567198239844,0.0777357393879527
5.820496,9.075435021562294,0.0774769798311992
5.822836000000001,9.1036533193251,0.0772007624546236
5.825175999999999,9.13880908488694,0.0768907516577234
5.82752,9.167679008955805,0.076625137484358
5.82986,9.19775963783817,0.0763481047601077
5.832191999999999,9.227840266720536,0.0760730035712711
5.834536,9.257409038923702,0.0757864212301203
5.836884,9.287117580753732,0.075495999118358
5.839228,9.316686352956898,0.0752102433895331
5.841571999999999,9.348676534787064,0.0749004958988847
5.843916,9.37400878807192,0.0746148909490255
5.846256,9.406558048409526,0.0742871483484956
5.848588,9.439526617627712,0.0739469351825833
5.850932,9.467979128673866,0.0736154589301943
5.8532720000000005,9.487631840801436,0.0733233428985385
5.855611999999999,9.502908264383834,0.0730358059344303
5.857956,9.509896745726843,0.0727979126044146
5.8603000000000005,9.516233600763796,0.0725537179811555
5.862648,9.51591252725544,0.0723317366744144
5.864988,9.51172702188111,0.0721248613970929
5.867331999999999,9.507821055760502,0.0719090203875763
5.869679999999999,9.504054859266754,0.0716885708008144
5.872024,9.494422130160617,0.071491959728361
5.8743680000000005,9.48441731400214,0.0712783357107231
5.876712,9.47082760523141,0.0710687101364683
5.879064,9.453233694967848,0.0708771127131348
5.881399999999999,9.436570950264064,0.0706827530970512
5.883747999999999,9.421910306306694,0.0704792201852996
5.886096,9.408600136789683,0.070259110994405
5.888439999999999,9.394219032086037,0.0700457658620059
5.890791999999999,9.381700258501944,0.069826925596119
5.893136,9.367738462678878,0.0695991683021814
5.895484,9.350983170176477,0.0693771126666756
5.897831999999999,9.339163244726684,0.0691351659368973
5.900176,9.333489391143006,0.0688620738823453
5.902528,9.329538099052025,0.0685892040501277
5.904864,9.330661943640512,0.0682917601675212
5.907204,9.330714853042362,0.0680009594715942
5.909556,9.335703129496828,0.0676905627908932
5.911899999999999,9.338968844458591,0.0673784637134761
5.914251999999999,9.340232458673944,0.0670752440733473
5.916596,9.344429339195488,0.0667632423324075
5.918944,9.351559486023229,0.066441165984216
5.921275999999999,9.360272424716804,0.0661245408078377
5.92362,9.372430486395777,0.0658098863387231
5.925967999999999,9.384728317701605,0.0654888903436499
5.928308,9.397026149007434,0.0651685479087952
5.930652,9.406250944380206,0.064863631918791
5.932995999999999,9.415335970126122,0.0645639626830779
5.93534,9.423350060685395,0.0642707093457187
5.937676,9.434716726431446,0.0639542771803879
5.9400200000000005,9.44231150811014,0.0636758737276957
5.942371999999999,9.45027837684117,0.0634137152913733
5.944716,9.454241044079373,0.0631674922925592
5.9470600000000005,9.455922071317431,0.0629389354849096
5.949399999999999,9.455461228182216,0.0627222718197424
5.951744,9.455000385047,0.0625062140048383
5.954084,9.45640187303134,0.062287429112974
5.956432,9.456592656202185,0.0620795929682595
5.958776,9.45915762717178,0.0618806278481533
5.961128,9.462513994074293,0.0616848206650065
5.963467999999999,9.459444749856976,0.0615246932179409
5.965812,9.452371304146824,0.0613788278551792
5.968147999999999,9.44729995918309,0.0612259750550359
5.970483999999999,9.44115767903272,0.0610790958197889
5.972832,9.439671226681238,0.0609255461713581
5.9751840000000005,9.439115939889536,0.0607709676024415
5.977523999999999,9.439212279403892,0.0606240287653002
5.979868,9.438097914104748,0.0604872965906265
5.9822120000000005,9.43977704548494,0.0603470725842516
5.98456,9.439965932797914,0.0602262965541391
5.986896,9.440434359364607,0.0600963379616759
5.989243999999999,9.443044656304576,0.0599550752868055
5.991588,9.448308680297025,0.0598147369419743
5.993928,9.453293165035747,0.0596834633472395
5.996268000000001,9.46428395201372,0.059532425092573
5.998612,9.475274738991695,0.0593821494293311
6.000959999999999,9.48477528190245,0.0592510669487935
6.003304,9.493065119999708,0.0591299605604158
6.005647999999999,9.50470753328374,0.058988540408553
6.007996,9.51835204731419,0.0588412950537675
6.010336000000001,9.536140532464332,0.058676380925542
6.01268,9.559795550226866,0.058496895321952
6.015036,9.58237963280276,0.0583240783405136
6.017367999999999,9.607896981684853,0.0581448884387671
6.019708,9.631412229820528,0.057972818380605
6.022052,9.653577003515844,0.0578153670277745
6.0244,9.676952482024657,0.0576486828365598
6.026743999999999,9.701259126093246,0.0574811432033964
6.029083999999999,9.724774374228923,0.0573113817933784
6.03144,9.750291723111012,0.0571362699192364
6.03378,9.775529532739384,0.0569697210854617
6.036123999999999,9.80048780311403,0.0568124518924357
6.038468,9.82665677830218,0.0566467674333673
6.040808,9.852313896811133,0.0564692413540214
6.043144,9.872895878640612,0.0563098915597518
6.045487999999999,9.891196220469952,0.0561653187808003
6.047832,9.908193309687178,0.0560050785042776
6.050172,9.930545074837596,0.0558206315024569
