Time,Force,Position
4.925548,3.503507540710212,0.1825269034743851
4.927931999999999,3.7131574908108367,0.1800672119079375
4.930312,3.91666516076109,0.1777211102291309
4.932716,4.105884273806312,0.1752365863412634
4.935104,4.273505275095137,0.1731569690226278
4.937484,4.429723763956884,0.1713174483066754
4.93988,4.57002178636165,0.169946971051597
4.942264000000001,4.704921702720721,0.1684734014189098
4.944648,4.831165381503805,0.1669409156728259
4.947043999999999,4.944563525620834,0.1653775874718244
4.949432000000001,5.037619588765338,0.1641290072574631
4.951828,5.116757286199281,0.1631104678474568
4.954228,5.184862662400612,0.1622282518955117
4.956616,5.248827859197988,0.1611395995290593
4.958996,5.292730514276559,0.1602185311252399
4.9614,5.318757823979977,0.159514431136424
4.963788,5.341015145473909,0.1588414936665039
4.966168000000001,5.359780122154204,0.1583173892715288
4.968571999999999,5.373282970699924,0.1579865542547866
4.970956,5.386086971111344,0.1577083744405903
4.973336000000001,5.4061079785755135,0.1572438857693696
4.975732,5.420494770852769,0.1569318049802314
4.97812,5.433483866861423,0.1567275876208317
4.9805,5.459089971826391,0.1563056098611318
4.9829,5.496801229068479,0.155652083210216
4.985283999999999,5.527295479257816,0.1551802221218395
4.987664,5.5652390539253815,0.1545762370430934
4.990068,5.608629852324755,0.1538980088635625
4.992456,5.6516013418435485,0.1532563612286057
4.994832,5.691779334683009,0.1526625132173854
4.997236,5.734238967522605,0.1520044261359555
4.999624,5.775395347750085,0.1513473103946336
5.002004,5.817762432791064,0.1506539311154205
5.004408000000001,5.857149029697604,0.1500742748016447
5.006792,5.901284002201653,0.1494437012111142
5.009172,5.943044786906948,0.1488382814034863
5.011568,5.972048793029066,0.1484607504073465
5.013955999999999,5.991182065045961,0.1482904326957271
5.016336,6.008685323368776,0.1481812906303078
5.01874,6.023255315385397,0.1481292505847983
5.021128,6.0403864866558745,0.1479999436290165
5.0235080000000005,6.072790289793013,0.1474988299190316
5.025904,6.102168278825339,0.1470155680836759
5.028292,6.122187390431639,0.1467485679367006
5.040244,6.140342275060512,0.1466474741265302
5.042632,6.144718563605684,0.1465916041447378
5.045012000000001,6.148582995471656,0.146524498027355
5.047408,6.151004405098655,0.1464603195770068
5.049796,6.154124662859953,0.1463531060607954
5.052176,6.163670531741082,0.146110040241061
5.054571999999999,6.177779680622487,0.145763821375961
5.056959999999999,6.189235102451416,0.1454483801131824
5.05934,6.19938727166823,0.1451217931698317
5.061736000000001,6.210238289019344,0.1447493212686234
5.0641240000000005,6.225884903796211,0.1442966190143318
5.140579999999999,6.083356254935288,0.144183202229916
5.142964,6.087080917174401,0.144126120954778
5.145359999999999,6.095089320160068,0.143975933988736
5.147752,6.099140743481145,0.1438545209262863
5.15014,6.100398670122887,0.1437758480554475
5.152515999999999,6.100585661577991,0.1437200723896912
5.154912,6.107570351205263,0.1435488780322005
5.1573,6.128756737512556,0.1430666414249631
5.159692000000001,6.150269884901814,0.1425237254884704
5.162088,6.173785133037487,0.1419484226227485
5.164471999999999,6.203678770464748,0.1412818892155421
5.166868,6.235015430130986,0.1406197018572395
5.169263999999999,6.264909067558248,0.1399705420702737
5.171648,6.289635020507419,0.139388897587556
5.174028000000001,6.312358872710176,0.1388420988216466
5.176431999999999,6.342392279764297,0.1382010222131875
5.178816,6.382064103498165,0.1373724939337229
5.181195999999999,6.424064789060415,0.1364569765308439
5.183592,6.457312897532322,0.1356401030929344
5.185975999999999,6.488139596377232,0.1348849205601729
5.188372,6.518686755968421,0.1341428551763714
5.190764000000001,6.549001598134132,0.133382275262131
5.193152,6.581365762874504,0.1325563650171134
5.195531999999999,6.612519222801376,0.1317558663213484
5.197936,6.647117805713642,0.1309250665624967
5.200323999999999,6.683438950118605,0.1300798631177938
5.202699999999999,6.714452640418617,0.1292991664106855
5.205108,6.73466443105363,0.1286907630994697
5.207491999999999,6.754037603927477,0.1281325695020641
5.209872,6.7708495975474685,0.1276382577759532
5.212276,6.783936928928346,0.1271901020806586
5.214664,6.7913447191519385,0.1267741334087629
5.2170440000000005,6.792466667882558,0.1264647732271897
5.262444,6.598261174240742,0.126427662868364
5.2648280000000005,6.598587935322706,0.1263685421711576
5.267207999999999,6.5990544660315305,0.1263014613944504
5.269604,6.601151010434433,0.1261852046669296
5.271988,6.602828245956756,0.1260919237371066
5.274384,6.60902153965111,0.1259520461852915
5.27678,6.6147029766662655,0.1257992636796719
5.279164000000001,6.621455348868062,0.1256280171090511
5.281543999999999,6.627788412189275,0.1254808690979702
5.28394,6.63277100107013,0.1253687667821728
5.286324,6.6409663955109,0.1252009970159761
5.2887200000000005,6.6534455306982245,0.1249579215999434
5.291116,6.668718162564885,0.1246847361984687
5.293504,6.686364982230299,0.124402168228238
5.295884,6.702940866709075,0.1241406869112328
5.298279999999999,6.7183060463743525,0.1239061851095959
5.300667999999999,6.728316550106436,0.1237611528353594
5.303048,6.736976579398163,0.123650890827203
5.305452,6.751503141302279,0.1234629301886636
5.30784,6.764027602459978,0.1233054355327892
5.31022,6.776831602871397,0.1231332720851326
5.3126240000000005,6.793080726268209,0.1229363453494411
5.315012,6.809841706344218,0.1227510436189432
5.317388,6.821899636793093,0.1226599779471788
5.319795999999999,6.838101538361663,0.122506230100079
5.32218,6.85551414474373,0.1223301559160959
5.324559999999999,6.878653514111328,0.1220897398825057
5.326968,6.905797084971758,0.1218000979649509
5.329351999999999,6.931357863966355,0.121515318244603
5.331732,6.957849808520728,0.1212230535754453
5.334128000000001,6.9842019834482425,0.1209398952578487
5.3365160000000005,7.012276719868452,0.1206481834982623
5.338895999999999,7.035416089236049,0.1204190543475277
5.341292,7.055622192297451,0.1202242769830169
5.343675999999999,7.074617590545356,0.1200539504715167
5.346056,7.090400183233345,0.119932055541143
5.34846,7.118614689280414,0.1196329313572544
5.350844,7.147900130514123,0.1193191252060778
5.353224,7.173321139881857,0.1190533707657428
5.355619999999999,7.201675415555786,0.118756567755042
5.358007999999999,7.229098525669937,0.1184697023051669
5.360404,7.256661405410949,0.1181804348852757
5.362796,7.289439191458293,0.1178222542122213
5.365184,7.32743188381197,0.1173916181892325
5.367564000000001,7.362072000978872,0.1170183419622773
5.36996,7.391497211839439,0.1167177952494176
5.372343999999999,7.41412472452784,0.1164949903430782
5.374724,7.429814769417214,0.1163550592165615
5.3771320000000005,7.4462962102395025,0.1162131145430674
5.379516,7.465059291061929,0.1160366332335997
5.381899999999999,7.487035177444272,0.1158176949001594
5.384296,7.507568041587638,0.1155980500728876
5.386679999999999,7.5322448768507,0.1153256551051188
5.389076,7.563347323233591,0.1149659484806461
5.391471999999999,7.595800244056842,0.1145792840919892
5.393856,7.635609941559702,0.1140964010405155
5.39624,7.666480070517116,0.1137211970853185
5.398644,7.693905076489137,0.1133653887831895
5.401027999999999,7.720538686528239,0.1130105800519646
5.403408,7.743727173581949,0.1126781005219826
5.405812,7.768266135076019,0.1123198243843445
5.408195999999999,7.790151369517614,0.1119810532049704
5.410576,7.804447509854121,0.1117116771100748
5.412971999999999,7.819162959071209,0.111426850537392
5.415356,7.836439587542154,0.1110966902396089
5.4177360000000006,7.857068791199876,0.1107182939947596
5.420127999999999,7.883844066723708,0.1102725225538765
5.422515999999999,7.914111687061176,0.1097730869907255
5.424912,7.943727681092587,0.1092682026648818
5.427316,7.963612710645633,0.1088555121535189
5.429704,7.97656027239965,0.1085144549896988
5.432084000000001,7.989647603780529,0.1081693176373284
5.434487999999999,8.00208330885535,0.1078214059531302
5.436872,8.012516913183752,0.1074977899130008
5.439252000000001,8.02215912157924,0.1071760891379495
5.441643999999999,8.02928737254911,0.1068658001931593
5.444031999999999,8.038417724265397,0.1065362807590652
5.446407999999999,8.052483443034298,0.1061624628889205
5.448804,8.067620096989835,0.1057758723344975
5.451187999999999,8.07982348463918,0.1054145792094021
5.453584,8.091235476355603,0.1050554311638088
5.455979999999999,8.10278723769889,0.1046909783317661
5.458367999999999,8.118482970161867,0.1042818801644514
5.460748,8.129243335572234,0.1039190149635191
5.463144000000001,8.136279038743487,0.1035827478856367
5.465528,8.142663115608682,0.1032419665156206
5.467923999999999,8.141178559115072,0.1029702650366212
5.470316,8.137552132248183,0.1027232635915541
5.472703999999999,8.137929906874128,0.1024401883201428
5.475084,8.147247250045519,0.1020765645582185
5.477479999999999,8.158706463590187,0.1016867426845016
5.479864,8.166673332321219,0.1013455414360739
5.482259999999999,8.173569265865614,0.101017760040879
5.484664,8.175529832357395,0.1007327054472518
5.487051999999999,8.173486197356343,0.1004832283436075
5.489432,8.167950217541653,0.1002819965650262
5.491836,8.158549805860993,0.1001109847181693
5.494219999999999,8.140070056008025,0.1000251151714584
5.4966,8.124663342088112,0.0999081766333964
5.499007999999999,8.109908254474258,0.0997968414399131
5.501392,8.094594088352963,0.0997091577745839
5.5037720000000006,8.079140152604806,0.0996269729192154
5.506175999999999,8.06340667760293,0.0995560758930283
5.508564000000001,8.048464598533974,0.0994849424116949
5.510943999999999,8.033242980211297,0.0994255432785223
5.51334,8.018812757821534,0.099365394289438
5.515728,8.008107197670888,0.0992811805509239
5.518108000000001,7.99740163752024,0.0991966679170142
5.520504,7.985485372556093,0.0991296746395207
5.522892,7.968493970912475,0.0991092970909803
5.525272,7.953504670015276,0.099070784971983
5.527667999999999,7.940005613185295,0.099002607393649
5.530052,7.926878643407652,0.0989522300869854
5.532431999999999,7.918687040682619,0.0988608027720975
5.534828,7.917153366502896,0.0987229405750058
5.537216,7.916690627509811,0.0985728853005028
5.539596,7.917950450009422,0.0984164867320823
5.541992,7.928010071427619,0.0981886158031948
5.544379999999999,7.9309924554199265,0.0980259445208114
5.54676,7.9369081057184285,0.0978395048990498
5.549155999999999,7.943103295270651,0.0976411780878088
5.551544000000001,7.946225448889819,0.0974718700030365
5.55394,7.947345501762569,0.0973204442790911
5.556335999999999,7.9493967201950975,0.0971630619977926
5.55872,7.957454240866879,0.0969536072095891
5.561103999999999,7.96323012153852,0.09677396817872
5.563503999999999,7.968074836650384,0.0965999758736574
5.565891999999999,7.975713048441583,0.0964093793290438
5.568272,7.980557763553447,0.0962363980502488
5.570668,7.989406680158146,0.0960292376539042
5.573056,7.994391164896871,0.0958504102070467
5.575435999999999,8.00202937668807,0.09566144320392
5.577839999999999,8.007293400680513,0.0954711057461913
5.580224,8.008553223180126,0.0953150902710324
5.582608,8.007159318627263,0.0951702658444874
5.5850040000000005,8.010980320380732,0.0949756325086171
5.587392,8.017222731761198,0.0947470658377435
5.589771999999999,8.020671646462329,0.0945355685731774
5.592168,8.032128964149129,0.0942590122942083
5.594556,8.045076525903147,0.0939560221519516
5.596936,8.058024087657163,0.0936536091669838
5.599340000000001,8.075115620530875,0.093312779488369
5.601724,8.093278088591227,0.0929610476562907
5.604104,8.107715894412463,0.0926282877788924
5.606508000000001,8.115076462807812,0.0923557390473324
5.6088960000000005,8.120574700083601,0.0920920645767449
5.611275999999999,8.12821480773267,0.0918067978270488
5.61368,8.131990483515764,0.0915481017505474
5.616067999999999,8.133624288925583,0.0913102404635145
5.618448,8.131765749521763,0.0911172934849293
5.620843999999999,8.134423268289977,0.0909045257982156
5.623232000000001,8.134287290378856,0.09070743037272
5.625611999999999,8.13708457877393,0.0904893381308049
5.628016,8.143746299034976,0.0902455355289775
5.630399999999999,8.153061746348499,0.0899941023902706
5.632784,8.157022517728826,0.0897974123045574
5.635179999999999,8.158561879482157,0.0896336538999849
5.637564,8.16024101086235,0.0894643493194284
5.639948,8.158847106309485,0.0893217943101183
5.6423440000000005,8.157033892876042,0.0891969041653534
5.644728,8.158014176121933,0.0890587867931314
5.647108,8.16057725123366,0.0889236327199993
5.649515999999999,8.16165008227817,0.0888151768413805
5.6519,8.169380841867985,0.0886696924122534
5.654279999999999,8.180976033323775,0.0885002687301864
5.656680000000001,8.199508692578593,0.0882833179934888
5.659064,8.217622042952833,0.0880842670417712
5.661444,8.236806328513708,0.087874684531974
5.663848000000001,8.259855045940558,0.0876411432173254
5.6662360000000005,8.287467043367682,0.0873574851726208
5.668615999999999,8.315079040794808,0.0870761405527884
5.67102,8.346275930834183,0.0867845632193127
5.673404000000001,8.377193281619842,0.0865060160134906
5.675788,8.406899927591999,0.0862446115683249
5.678183999999999,8.43460447281774,0.0859995115675557
5.680572000000001,8.465382053976537,0.0857318262016488
5.682951999999999,8.500303606255029,0.0854328735631829
5.685356,8.535737015212717,0.0851473993687455
5.687744,8.56916832342399,0.0848763516425785
5.690124,8.599526595702205,0.0846292940423965
5.692524,8.626020436114448,0.0844052461097109
5.694912,8.649860549474216,0.0841894684656869
5.697292,8.675470446154923,0.0839375516498168
5.699687999999999,8.701220112462492,0.0836836394502889
5.702075999999999,8.727109548396921,0.0834257986680784
5.704456,8.748063617278737,0.0831994833630178
5.706864,8.770507930227772,0.082950071087117
5.709248,8.795605970229284,0.082695598398827
5.711632000000001,8.820843779857654,0.0824372287396884
5.714028,8.843148323179829,0.0821973967921269
5.716416,8.866011945009445,0.081939322445332
5.718799999999999,8.884639047920748,0.0816846610706331
5.721203999999999,8.904476855645552,0.0814179005366626
5.723591999999999,8.92301141075824,0.0811382264586524
5.725967999999999,8.942896440311287,0.08084173115481
5.728371999999999,8.960919138744776,0.0805533654199693
5.730759999999999,8.978010671618488,0.0802709874877317
5.73314,8.997523614119196,0.0799640818024808
5.735536000000001,9.02010959255296,0.0796385437743397
5.7379240000000005,9.042835340613587,0.0793073516684636
5.740303999999999,9.063698757554652,0.0789813089766565
5.7427,9.082420304122444,0.0786713137268531
5.745088,9.103935347369571,0.0783541523714088
5.7474680000000005,9.122656893937362,0.0780485658633702
5.749871999999999,9.142589145318654,0.0777320368392097
5.752260000000001,9.16573420225986,0.077392758787561
5.754639999999999,9.186737388827789,0.077071196100738
5.757039999999999,9.20601801390302,0.0767519401613675
5.759424,9.22636957416489,0.0764267947937487
5.761804000000001,9.2453706599864,0.0761192573135663
5.7642,9.261950336180917,0.0758384769772424
5.766588,9.27797093386799,0.0755763472531976
5.768968,9.289056164502451,0.075338363206661
5.771363999999999,9.301724187002748,0.0751050361563027
5.773751999999999,9.30624403689052,0.0749178176037591
5.776148,9.308761786031871,0.0747408463393377
5.778543999999999,9.306344168120612,0.074587565401089
5.780931999999999,9.297920247970104,0.0744655304008979
5.783312,9.285492126326757,0.0743640868815553
5.785716,9.277347745429967,0.0742322987940816
5.788099999999999,9.277351537145709,0.0740552361067618
5.79048,9.28191860886172,0.0738389495792753
5.792884,9.281410543898264,0.0736505392195829
5.795272,9.280902478934806,0.0734622835553728
5.797648,9.27732137803829,0.0732914954346495
5.800044000000001,9.269736075648945,0.0731402529169236
5.8024320000000005,9.261219607699816,0.0729912875094757
5.804811999999999,9.253913844564186,0.0728303684322781
5.80722,9.242603879935723,0.0726885676085739
5.809603999999999,9.231713224187844,0.0725321575199237
5.811984,9.219239776574128,0.0723706341177747
5.814388,9.209839364893464,0.0721921904986875
5.816771999999999,9.20258082358608,0.071998694492102
5.819152,9.190526684852944,0.0718213915198878
5.821547999999999,9.185829322799416,0.071597571964234
5.823936000000001,9.181411499999609,0.0713632762689798
5.826315999999999,9.184070914625694,0.0710935135440212
5.828712,9.191945235558109,0.0707928773896798
5.8311,9.199959326117382,0.0704863709052848
5.833480000000001,9.200896179250767,0.070215547274706
5.835876,9.193684859771627,0.0699877051637557
5.838264,9.182189799545933,0.0697878681093867
5.840660000000001,9.174838710439928,0.0695647694071117
5.843056,9.167487621333926,0.0693416450040087
5.845444,9.159345136295006,0.069115238792081
5.847828000000001,9.156277787935558,0.0688641444408953
5.850228,9.155352309949388,0.0685995090077824
5.852612,9.15228496158994,0.0683486819569661
5.854992,9.15070785729771,0.0680761942215659
5.8573960000000005,9.154205889684954,0.0677807645036595
5.859784,9.158495318005118,0.0674875025529905
5.862163999999999,9.165206155952276,0.0671733524947377
5.86456,9.17578142576541,0.0668482713579824
5.866943999999999,9.19543603375085,0.0664843740238191
5.869324,9.214671332855708,0.0661363097013556
5.871719999999999,9.239773164572956,0.0657704019690819
5.8741080000000006,9.259939629237593,0.0654248836228015
5.876487999999999,9.275822353155675,0.0651053435074559
5.878892,9.294778113006812,0.0647720851534252
5.881276000000001,9.31880900953742,0.0644164634743092
5.88366,9.346052711627948,0.0640417989173235
5.886055999999999,9.37515874483803,0.0636638259283401
5.88844,9.399189641368642,0.0633082333003577
5.890835999999999,9.419356106033277,0.0629628470190867
5.89324,9.444178398496804,0.0626110295954361
5.895624000000001,9.46285461909422,0.0622877618057619
5.898008,9.4792491996915,0.0619819537886868
5.9004,9.499508212154756,0.0616670296493491
5.902788,9.523212347603405,0.061357413570009
5.905168000000001,9.53862854081266,0.0610871445341318
5.907564,9.554836129954838,0.0608201111436151
5.909947999999999,9.565689043163822,0.0605835310508987
5.912332,9.571606589320194,0.0603632581330303
5.914736,9.572309229170234,0.0601687713846691
5.917124,9.57021837234094,0.0599779067117354
5.919503999999999,9.56184167401867,0.0598170546173901
5.921907999999999,9.553464975696404,0.0596558141777448
5.924295999999999,9.55030318368047,0.0594710506151539
5.926676,9.546722082783957,0.0593000348747351
5.92908,9.54407214744722,0.0591284925074758
5.931463999999999,9.542865234349458,0.0589684507814928
5.933848,9.54072715569192,0.0588093639306014
5.936243999999999,9.545386775206552,0.0586345580080214
5.9386280000000005,9.557635488826268,0.0584475973046783
5.941012,9.564017669833593,0.0582756326659942
5.943408000000001,9.57226218196048,0.0581011231333844
5.945792,9.579715298154444,0.0579228339072601
5.948175999999999,9.583443752109297,0.0577490334671699
5.95058,9.583307774198172,0.0575838247065788
5.952964000000001,9.588246932966523,0.0574005092700849
5.955343999999999,9.597469832481428,0.0571972582888872
5.957748,9.60869483274275,0.0569877076848931
5.960135999999999,9.6256465959896,0.0567695589567637
5.962516,9.640456488863176,0.0565615764641879
5.964911999999999,9.6600619791625,0.0563458499736442
5.967299999999999,9.683159814275465,0.0561063526656983
5.969679999999999,9.7089113764409,0.0558697936841073
5.972084,9.730379197859785,0.0556549115609908
5.974467999999999,9.750264227412831,0.0554333651399193
5.976848,9.765865516219325,0.0552323939452442
5.979244,9.777742142786703,0.0550344291258763
5.981632,9.791620870100498,0.0548312054881436
5.984011999999999,9.798981438495844,0.0546333033782509
5.986415999999999,9.802477575025222,0.0544432438072944
5.988803999999999,9.811840244166984,0.0542411728758206
5.991184,9.825346884428445,0.054024744045624
5.993588,9.845790992488933,0.0537929683366387
5.995976,9.8659555612957,0.0535696775736191
5.998356,9.886259899729328,0.0533423005228475
6.000751999999999,9.905493302976318,0.0531204766111599
6.003139999999999,9.917649468797416,0.0529197590514069
6.005524,9.93394960573821,0.0527060238337519
6.00792,9.944522979693474,0.052499924141573
