Time,Force,Position
4.31374,5.080199237252308,0.1620152099010607
4.316076,5.0887194969171725,0.1618250989220287
4.318419999999999,5.108460965127621,0.1613402826499476
4.320768,5.129832447032149,0.1607870314326317
4.323104,5.153113481884476,0.1601463892471715
4.325447999999999,5.172157997818492,0.159575508901144
4.327792,5.192133679312287,0.1589882418452646
4.330139999999999,5.212808208940382,0.1583519685249574
4.332484,5.2315278596503045,0.1577106770824083
4.334832,5.250946358494527,0.1570159850481126
4.337176,5.277814181816977,0.1561663339099262
4.339519999999999,5.309989459244377,0.1552376743215886
4.34186,5.347519412604968,0.1541722698924251
4.344204,5.383234256674246,0.1530933259137756
4.346543999999999,5.412291172198216,0.1521527127605066
4.34888,5.43771597328169,0.1513388733009906
4.351223999999999,5.468076141417776,0.1504393356804583
4.353571999999999,5.498855618434442,0.1495166178806046
4.355911999999999,5.528331842838993,0.1485743824637513
4.358256,5.548868498698098,0.1478265055722088
4.360599999999999,5.573921212729234,0.1470042399356928
4.362951999999999,5.596971826013953,0.146244733030891
4.365291999999999,5.616297777059558,0.1455708068700105
4.367632,5.632318374746632,0.1449377472459741
4.369976,5.642053130940734,0.1444516428759442
4.372315999999999,5.656536262732344,0.1439295370163379
4.37466,5.673021495270373,0.1433720061206697
4.377004,5.692020685234014,0.1427948003316969
4.379352,5.709389861503577,0.1422772471168446
4.381695999999999,5.726711815944897,0.1418111338014595
4.384047999999999,5.746035871132634,0.1413159595030366
4.386396,5.76084386814834,0.1408944233841864
4.388739999999999,5.768993936618736,0.140588751857449
4.391084,5.774954912887613,0.1403795718113812
4.393427999999999,5.788597531060193,0.1400815874637663
4.395775999999999,5.8083862210988855,0.1396628491162584
4.398115999999999,5.821377212965408,0.1393726492645989
4.400464,5.8318070255780725,0.1391568593710073
4.402807999999999,5.843353099347749,0.139003382556372
4.405148,5.863791519834629,0.1387262568698306
4.407488,5.885300875508148,0.138432844687484
4.409831999999999,5.908440244875747,0.1380891367077784
4.412183999999999,5.927947499802848,0.1378430567936291
4.414528,5.947779619954043,0.1376664810644729
4.416871999999999,5.975200834210327,0.1373675023013537
4.41922,6.004671371041268,0.136995201609313
4.421556,6.032559116006374,0.1366403299126094
4.423899999999999,6.055231954665148,0.1363900715457235
4.426256,6.083863873734931,0.1360813506919584
4.428591999999999,6.114125806498791,0.1357168436944807
4.430939999999999,6.140942616277259,0.1353967325995543
4.433284,6.166688490869089,0.135098423181172
4.435631999999999,6.1949011010582895,0.1348215263221528
4.437964,6.227769539046383,0.134475590268171
4.440307999999999,6.258822867743161,0.1341157873043049
4.442659999999999,6.28005268416296,0.1338760324119717
4.444992,6.2992803998363405,0.1336693214014915
4.447335999999999,6.321022072935336,0.1334401357500134
4.44968,6.349189357154163,0.1330815149787725
4.452023999999999,6.375821071335396,0.1326903968660863
4.45436,6.3963539354787615,0.1323665760294221
4.456703999999999,6.410461188502297,0.1321709819516277
4.459056,6.426151233391668,0.1319653317434196
4.482508,6.433832875295373,0.131886671857635
4.487184,6.431226370071142,0.1318696085552929
4.489527999999999,6.433368240444418,0.1318295143113798
4.491872,6.43830360749703,0.1317533735036459
4.494212,6.444589448990002,0.1316418349662492
4.496555999999999,6.450642973057496,0.1315044820183691
4.4989,6.4521332171247145,0.1314609859598605
4.501243999999999,6.4572083538041865,0.131379296510717
4.503588,6.466427461603352,0.1312276002574911
4.505935999999999,6.475274482350181,0.1310552055329195
4.508283999999999,6.480396840857896,0.1309293236514056
4.51062,6.4885922352986665,0.1307519215766369
4.512963999999999,6.504516493471384,0.130465914818106
4.515304,6.523001930897961,0.1301169362375528
4.517648,6.542465755712557,0.1297122599989887
4.519987999999999,6.557832831235705,0.1293333349565555
4.522332,6.572128971572211,0.1289755316067117
4.524679999999999,6.596435615640804,0.128463584555665
4.527015999999999,6.620649711910778,0.1279173063048002
4.529355999999999,6.639696123702665,0.1274196552302929
4.531707999999999,6.654598564374854,0.1269951627839172
4.534043999999999,6.669361235420187,0.1265792975943128
4.536383999999999,6.686405546465655,0.126122340233791
4.538728,6.702938000831925,0.1256547992877525
4.541076,6.715606023332224,0.1252391317639085
4.543416,6.723990305085967,0.1248998312703324
4.5457600000000005,6.736658327586265,0.1244855602669466
4.548108,6.746952162287808,0.1240820774392493
4.550444,6.751379464376961,0.1237569118259418
4.552784,6.758740032772308,0.1233934992863518
4.555127999999999,6.768102701914073,0.1230004596370895
4.557476,6.780538406988893,0.1225640565611894
4.559812,6.785385017958626,0.1222190668468429
4.562155999999999,6.789020924114861,0.1219006186937164
4.564512,6.795450326950432,0.1215541440024337
4.566864,6.806395787958032,0.1211649002916173
4.569207999999999,6.815478917846076,0.1207949090555417
4.571547999999999,6.81855574549487,0.1205104545610239
4.573887999999999,6.825217465755917,0.1201967815778443
4.576223999999999,6.835184539375496,0.1198672139675521
4.578568,6.841566720382823,0.1195671598854152
4.58092,6.84780913176329,0.1192746776170572
4.583263999999999,6.851118276837561,0.1190205573177739
4.585608,6.8530769474714734,0.1187980989871177
4.5879520000000005,6.859831215531138,0.1185210136135742
4.590303999999999,6.864443613217524,0.1182762060774365
4.59264,6.871197881277188,0.1179998905568687
4.594988,6.878975862695247,0.1177489897031782
4.597331999999999,6.895553643031892,0.1173922195560966
4.599671999999999,6.907847682621983,0.1171028266781501
4.602016,6.921584744451049,0.116817968649932
4.604359999999999,6.932900396653118,0.1165834802947664
4.606708,6.952084682213995,0.1162551013781746
4.609047999999999,6.97098942852115,0.1159411817851748
4.611396,6.985330894828032,0.1157085324590576
4.613744,6.997810030015359,0.1154955544877414
4.616088,7.017226633001712,0.1152015223924034
4.618431999999999,7.038645336734483,0.1148835103613422
4.620776,7.05498890378778,0.1146331183166991
4.623124,7.068538974161744,0.1144096393336572
4.625471999999999,7.087815807521237,0.1141266950929298
4.627816,7.109374280880869,0.1138073845330725
4.630164,7.130001588680721,0.1134970823422836
4.632499999999999,7.154912637227128,0.1131271119413856
4.634844,7.176238793161281,0.1127869122947149
4.637192,7.20077775465535,0.1123985192939553
4.639535999999999,7.223035076149282,0.1120523297237479
4.641884,7.244920310590876,0.1116874088084895
4.644224,7.262149717233579,0.1113683445398494
4.646567999999999,7.282731699063057,0.1109972997801766
4.648908,7.299077161974226,0.1106458411274584
4.651252,7.313839833019557,0.1102973009624091
4.653603999999999,7.323247828131697,0.110025356303532
4.655943999999999,7.335496541751413,0.1096916476837631
4.658288,7.349515038692069,0.1093090301686138
4.660631999999999,7.365395866752283,0.1089128249232875
4.662983999999999,7.374199457386607,0.1086005556568544
4.665316,7.378207450595178,0.1083327419408459
4.667659999999999,7.384357314177029,0.1080361628420678
4.670004,7.390507177758878,0.1077389248165905
4.672344,7.393723775034532,0.1074723038340614
4.674687999999999,7.392936170817352,0.1072500774949694
4.677032,7.390937861786674,0.107048291029892
4.679384,7.387589078315637,0.1068753890858409
4.681727999999999,7.386754252270213,0.1066935619743938
4.684076,7.389923627717624,0.1064701273872011
4.686428,7.391090902418618,0.1062680668711427
4.688771999999999,7.393329112306251,0.106052643570356
4.691116,7.39715011405972,0.1058367554529874
4.693459999999999,7.3985497061861905,0.105661613389688
4.695808,7.406607226857971,0.1054305384555518
4.698147999999999,7.416527078649307,0.1051857401072551
4.700496,7.425655534507725,0.1049402013119485
4.702844,7.433153976672064,0.1047363065103642
4.705184,7.437951469955685,0.104585209985663
4.707527999999999,7.439536157679391,0.1044749990697775
4.709867999999999,7.444193881336152,0.1043306302893309
4.712212,7.457092325404057,0.1041301378541648
4.714552,7.466917733538907,0.1039635757719701
4.716895999999999,7.478605472793314,0.1037833017747193
4.719243999999999,7.494157643913694,0.1035699584867143
4.721583999999999,7.513574246900048,0.1033230936655763
4.723928,7.536855281752375,0.1030424077389398
4.726276,7.556132115111868,0.1028022319874952
4.728611999999999,7.571264977351669,0.1026088376379182
4.730951999999999,7.581974329218053,0.1024767440812624
4.733296,7.593475077017358,0.1023439049581206
4.735644,7.60455651593608,0.1022312125759308
4.737979999999999,7.6125649189217475,0.1021517644113172
4.740324,7.623786127467331,0.1020332644045166
4.742672,7.633796631199415,0.1019361151882315
4.745008,7.645250157170475,0.1018457592456843
4.74736,7.66070788463437,0.1017171808149052
4.749704,7.676817238404322,0.1015955406847286
4.752043999999999,7.697070563293969,0.1014292213376694
4.754383999999999,7.720396924116669,0.101231482909129
4.756723999999999,7.743303976058789,0.101053530400123
4.759071999999999,7.763836840202155,0.1008792628383375
4.761416,7.788234136211495,0.1006740268715108
4.76376,7.812212123340254,0.1004878920547509
4.766104,7.833117074535958,0.1003341612153272
4.768451999999999,7.852811320918162,0.1002001192076128
4.770787999999999,7.87036369692709,0.1000909813566911
4.773132,7.892060044055713,0.0999395291021914
4.775484,7.9200422326773054,0.0997224635811648
4.777828,7.949095356485536,0.0994935247911405
4.780171999999999,7.981501055480544,0.0992245117907799
4.782516,8.011904653729134,0.0989732213808128
4.784856,8.043379187164364,0.0987090820391067
4.7872,8.07550534690565,0.0984542698793474
4.789547999999999,8.102696139594324,0.0982415147465251
4.791887999999999,8.127233205230525,0.0980415100890031
4.794232,8.151630501239863,0.0978496966035207
4.796572,8.17137196945031,0.0976861514424195
4.798915999999999,8.194186473593813,0.0974967528741684
4.80126,8.215138646617762,0.0973197999326571
4.803596,8.238512229268705,0.097110140613661
4.805943999999999,8.26053533747929,0.0969251544059939
4.808284,8.281906819383819,0.0967359143526234
4.810624,8.303045983862868,0.0965239097192645
4.812967999999999,8.324324917968777,0.0963063414451724
4.815316,8.344952225768631,0.0960834612254197
4.817656,8.371073979128536,0.0958024340027393
4.819992,8.399058063607999,0.0955146839456927
4.82234,8.422106781034849,0.0952663830106812
4.824684,8.445714576969138,0.0949973149716495
4.827023999999999,8.466389106597235,0.0947512292718628
4.829368,8.491626916225606,0.094453409065738
4.8317120000000005,8.518494739548053,0.0941245356817785
4.834063999999999,8.54298837507175,0.0937960790532986
4.836403999999999,8.568832485035806,0.0934448572119223
4.838748,8.596446378320797,0.0930576117659134
4.8411,8.621546314180177,0.0926754533638664
4.843436,8.65106976041297,0.0922459798694415
4.845783999999999,8.67100201179426,0.0918766760548651
4.848131999999999,8.691353572056132,0.0914918775864333
4.850468,8.705978369332469,0.0911419332126845
4.852804,8.716226878063638,0.0908036881801286
4.855147999999999,8.72661515642167,0.0904616734322283
4.857499999999999,8.738074369966338,0.0901108719435622
4.859835999999999,8.749813122764726,0.0897497277342315
4.86218,8.762762580376613,0.0893744518666821
4.864563999999999,8.767843404629694,0.0890531091768553
4.86696,8.762681407725212,0.0887802126286068
4.869364,8.756076388581754,0.0884990153766362
4.871752,8.745327398318603,0.0882514034904687
4.874132,8.734997716936032,0.087987380981935
4.876528,8.720012207754571,0.0877450712647977
4.878915999999999,8.701953662640054,0.0875257826306964
4.881312,8.6823123256597,0.0873033588817802
4.883708,8.664161232746565,0.0870544128669787
4.886095999999999,8.645730600579709,0.0868157822331136
4.888476,8.628231133972632,0.086572426041806
4.890871999999999,8.60686723549958,0.0863498864469505
4.893259999999999,8.588576372959583,0.0861028929017622
4.895639999999999,8.57121667597937,0.085851434370792
4.898036,8.55478814455893,0.0855946786735868
4.900424,8.543155210564244,0.0853112826844797
4.902803999999999,8.526307370263224,0.0850689630575088
4.905207999999999,8.505595098096231,0.0848473678374184
4.907595999999999,8.482880725182824,0.0846384651105137
4.909976,8.456813777082639,0.08446265319267
4.91238,8.432748929728868,0.08427242892957
4.914768,8.417204342039966,0.0840394710293543
4.917148,8.404033942149816,0.0838099783776211
4.919552,8.392865643006084,0.083566034121211
4.92194,8.379136164608495,0.0833569410623928
4.924316,8.366430399569301,0.083172215381737
4.926711999999999,8.357169757515498,0.0829823167095147
4.929099999999999,8.348001663260314,0.0828207857831164
4.93148,8.33599285049755,0.0827052447151404
4.933875999999999,8.317418656988096,0.0826520184818624
4.936264,8.299635859411561,0.0825997475316766
4.938643999999999,8.287300285566834,0.0825289116744046
4.941047999999999,8.279480769894139,0.0824438481224414
4.943435999999999,8.26709797422117,0.0824070817399452
4.945816,8.257229135973818,0.082369543471777
4.948211999999999,8.245218427353185,0.0823504500899118
4.950596,8.238934481718083,0.082302684229198
4.952979999999999,8.236095659068374,0.0822503473724964
4.955376,8.234979397911362,0.0821957092301252
4.95776,8.235865237500766,0.0821277168339753
4.9601560000000005,8.234329667463173,0.0820893969515414
4.962552,8.231583392612082,0.0820660406240284
4.96494,8.230839218507406,0.0820295896839013
4.967323999999999,8.233819706641842,0.0819782428249299
4.96972,8.2388022955227,0.0819137787091913
4.972108,8.244064423657274,0.0818383257610648
4.974491999999999,8.245322350299016,0.0817888791022675
4.976883999999999,8.249932852127534,0.0817063946535446
4.979271999999999,8.257756159515967,0.0815961682132034
4.981652,8.271073912464454,0.0814330944307322
4.984047999999999,8.279176759106607,0.0813104935214618
4.986436,8.282344238696147,0.0812181900830315
4.988832,8.278714020113522,0.0811633296499589
4.991228,8.27829660709081,0.0810802539242007
4.993616,8.276296402202263,0.0809936759442321
4.996,8.276298298060132,0.0808940096840356
4.998395999999999,8.275508797985083,0.0807929349908992
5.000787999999999,8.274859067536894,0.080686613294404
5.003168,8.27821353858154,0.0805553594241361
5.005563999999999,8.282638944812824,0.0804153411978063
5.007952,8.296003919589552,0.0802221143043754
5.010331999999999,8.308577498433364,0.0800276359173131
5.012731999999999,8.318217810970982,0.0798497178333405
5.015119999999999,8.324273230896344,0.0796811945354202
5.017499999999999,8.331539355635204,0.0794989739649022
5.019899999999999,8.339876415560706,0.079308449792799
5.022284,8.351705820299841,0.0790809408900834
5.024667999999999,8.361253585038842,0.078877119593368
5.027072,8.374805551270676,0.0786517189956245
5.029455999999999,8.389940309368344,0.0784314756228446
5.031835999999999,8.414294175265178,0.0781511401477015
5.034235999999999,8.444933882654984,0.077827166923249
5.036623999999999,8.485584093776875,0.077447552125206
5.039003999999999,8.529586880085539,0.0770412598726271
5.0414,8.57666270232726,0.0766179154318734
5.043788,8.622015963076285,0.0761972285947024
5.046167999999999,8.665367123078894,0.0757887990594605
5.048564,8.707647347894863,0.0753901043207332
5.050952,8.743269644165524,0.075019398293643
5.053332,8.779171479689905,0.0746410761864057
5.055727999999999,8.805342350735923,0.074308592662165
5.058115999999999,8.832584156968581,0.0739696564329428
5.060496,8.860617359134153,0.0736327609041507
5.062891999999999,8.88730008685937,0.0733133322160151
5.06528,8.914913980144362,0.0729936451342185
5.067676,8.94159670786958,0.0726779672229667
5.070071999999999,8.965997795594658,0.07238392147289
5.072463999999999,8.989887026640538,0.0720775533361673
5.074844,9.00590762432761,0.0718092482417064
5.077239999999999,9.024349631641682,0.0715185575951209
5.079627999999999,9.036133710410445,0.0712526200742097
5.082007999999999,9.041631947686236,0.0710274700210105
5.084404,9.041403421976495,0.0708236765373669
5.086792,9.036891155520204,0.0706494192433661
5.089175999999999,9.03195958018333,0.0704904013347652
5.091572,9.03075266708557,0.0703226132041035
5.09396,9.031827393987948,0.0701359660729042
5.096343999999999,9.03532353051732,0.0699262847772944
5.09874,9.042404559658948,0.0697123433457261
5.101128,9.048274883987078,0.0695108139134936
5.103504,9.059220344994682,0.069283588243625
5.105899999999999,9.066953000442366,0.069077258829795
5.108284,9.07631566958413,0.0688454099146207
5.110675999999999,9.09382651133842,0.0685745343460504
5.113072,9.10826431715966,0.0683201869792259
5.115455999999999,9.123633288540674,0.0680645537781756
5.117848,9.141935526227886,0.0677987934357722
5.120243999999999,9.161029159848017,0.067536146580059
5.122628,9.182776520520616,0.067271472898985
5.125023999999999,9.196235938953832,0.0670516995700668
5.12742,9.21314048037244,0.0668340081689418
5.129803999999999,9.232978288097245,0.0666055741780337
5.132184,9.248113046194916,0.0664173810730823
5.134588,9.26417896985236,0.0662272238075533
5.136971999999999,9.278662101643974,0.066032324817224
5.139356,9.287930327129253,0.0658663804599821
5.141747999999999,9.299852279667006,0.065701013783464
5.144135999999999,9.308142117764262,0.0655698390244855
5.146515999999999,9.31657172548838,0.0654344653797816
5.14892,9.323930398025857,0.0653056051931554
5.151303999999999,9.330218135376697,0.0651836065432039
5.153688,9.338787512727674,0.0650439465415118
5.156088,9.344795710824798,0.0649314132482971
5.158475999999999,9.340933174816692,0.0648549719140267
5.160856,9.33613947324881,0.0647800022336781
5.16326,9.328552275001591,0.0647099541712498
5.165644,9.31910274563482,0.0646432158940304
5.168024,9.313657417760876,0.064560779879354
5.170428,9.308771168394378,0.0644598427308788
5.172816,9.306166559028014,0.0643412125256973
5.175195999999999,9.303050092982453,0.064210670123959
5.177587999999999,9.299282000630836,0.064072605836879
5.179975999999999,9.303010454585689,0.0638912982781992
5.182356,9.30715821742112,0.0636964077350296
5.18476,9.308232944323496,0.0635148836520646
5.187148,9.311868850479732,0.0633069871012936
5.189524,9.309638224023574,0.063117805831732
5.191928,9.312110647194553,0.0628911738355048
5.194311999999999,9.313000278499697,0.0626585079976105
5.196692,9.317102715364758,0.0624083784916576
5.199091999999999,9.322276087416457,0.0621528611584035
5.201476,9.330382725774346,0.061890032814799
5.203872,9.340910773759234,0.0616067764688882
5.206276,9.357305354356516,0.0613064076057288
5.208664,9.37798367570035,0.0609835519046901
5.211044,9.40080386741746,0.0606493077206948
5.213447999999999,9.424043368015154,0.0603026194042258
5.215832,9.440624940067538,0.0599702921454446
5.218212,9.45799790805284,0.0596425388585589
5.220615999999999,9.479375077530976,0.0593020829972424
5.223004,9.496887815143136,0.0589708606684377
5.225383999999999,9.51360915682238,0.0586368092844176
5.227787999999999,9.526605836262512,0.0583085879048715
5.230175999999999,9.540533681262415,0.0579805817364576
5.232556,9.559676432568658,0.0576303269073434
5.234951999999999,9.581892219807951,0.0572709585141021
5.237336,9.60545848148761,0.056897082371716
5.239715999999999,9.622599132047434,0.0565559282451413
5.242119999999999,9.640531178540176,0.0562188902290701
5.244507999999999,9.653527857980308,0.0558952007800229
5.246887999999999,9.663870810367964,0.05556989898778
5.249292,9.66727629495659,0.0552632726700435
5.25168,9.667748513239022,0.0549633491822525
5.25406,9.666637939655615,0.0546570198744131
5.256455999999999,9.66124362532566,0.0543710308193762
5.258843999999999,9.657571872488395,0.0540887919812441
5.261224,9.650547544464358,0.0538251079742056
5.26362,9.647247878679432,0.0535586223132774
5.266004,9.642085881774952,0.0532933980142727
5.268384,9.633850848937415,0.0530387751401758
5.270787999999999,9.63027164389877,0.0527813749085415
5.273172,9.627483834793042,0.0525277205200246
5.275552,9.623345551246954,0.0522869045171883
5.277955999999999,9.615063296581177,0.0520604632367601
5.280344,9.60235753154198,0.0518572984658493
5.282723999999999,9.581224054636536,0.0516870772588169
