Time,Force,Position
6.815352,2.945869597468222,0.1721361772224881
6.817747999999999,2.94708030228172,0.1720642281303167
6.820136000000001,2.9560198708271663,0.171667758327528
6.822515999999999,2.979113914224389,0.1705507403624522
6.824912,3.002440275047091,0.1695094664956374
6.8273,3.0229259173622136,0.1687211212330116
6.829680000000001,3.0488115615809037,0.167838366772599
6.832076,3.0758606887848496,0.1669673551812013
6.834464,3.1002560889363195,0.16621384414497
6.836844,3.1229289275950936,0.1655071899615225
6.839248,3.142528730320812,0.1649488054903804
6.841636,3.157193165993918,0.1646199438945756
6.844015999999999,3.172928536853663,0.1642460744683593
6.846419999999999,3.193506726967404,0.1635788422118055
6.848807999999999,3.220091219320393,0.1626244169863054
6.851188,3.2468154813002443,0.1616610563535794
6.853592,3.2761934703325704,0.1606518278987288
6.85598,3.306362855297814,0.1596226513421776
6.85836,3.330665707650668,0.1588477159106853
6.860755999999999,3.3478913225776328,0.1583793965476283
6.863143999999999,3.3727060316096837,0.1576416652017515
6.865524,3.3935165391489006,0.1570812165207477
6.867920000000001,3.4143270466881184,0.1565420957697553
6.8703080000000005,3.4327161446003385,0.1561376463568289
6.872687999999999,3.4473805802734447,0.155846998266833
6.875084,3.461253620013633,0.1555756646412484
6.877472,3.473963176768566,0.1552919368156205
6.8798520000000005,3.4893736824042167,0.1548614725415716
6.882255999999999,3.49840579874828,0.1546068188675558
6.884644000000001,3.509020706958179,0.1543244747839479
6.887023999999999,3.522289342220553,0.1539722072831808
6.88942,3.540213805281818,0.1534943196469009
6.891808,3.5552050020368875,0.153116189067176
6.894188000000001,3.570288746590576,0.1528057761234509
6.896584,3.5858843478234603,0.1525182905735002
6.898972,3.6004090138697067,0.1522740898238255
6.901352,3.609626225811004,0.1521670905565334
6.903747999999999,3.6178197243939056,0.1520222280589784
6.906135999999999,3.623079956670612,0.1519695379864206
6.908516,3.6332755559999295,0.1517460788633123
6.91092,3.643099068276911,0.1515018773673516
6.913308,3.655623529434609,0.1511202576481919
6.915688,3.666425429099612,0.1507826833968877
6.918084,3.675504767271918,0.1504776513622858
6.920471999999999,3.690590407683475,0.1499759393097366
6.922852,3.70688675290853,0.1494295161890922
6.925260000000001,3.722251932573807,0.1489182094386549
6.9276480000000005,3.7338924499999706,0.1485096200901296
6.930027999999999,3.753494148583559,0.1479197708843805
6.932424,3.7741667823537854,0.1472942933880486
6.934807999999999,3.7955382642583126,0.1466113135430312
6.9371920000000005,3.808948565005416,0.1461079526416716
6.939588,3.821707239446461,0.1455922121735603
6.941972000000001,3.833534748327728,0.1450969354909994
6.944368,3.8464331923956334,0.1445705455934215
7.061452,3.741885860741172,0.144570399858912
7.06384,3.749847041898596,0.1444109012052217
7.06622,3.759950093429297,0.144181940619503
7.068616,3.771403619400357,0.1438912564688071
7.071003999999999,3.790586009103365,0.1433968354098342
7.073384,3.8082781547391527,0.1429761278085398
7.075779999999999,3.828112170748218,0.1424785199612245
7.078168000000001,3.8474343300780856,0.1419740118904941
7.080564,3.8670360286616736,0.1414355030868004
7.082959999999999,3.8872893535513193,0.1409066823427968
7.085348000000001,3.911546879933799,0.1402619630030673
7.087732,3.9424623348615855,0.1394502962058648
7.090127999999999,3.97631105609557,0.1385870700634646
7.092516000000001,4.006807202142777,0.1378458262015096
7.094895999999999,4.0408882408022375,0.1370414071109522
7.097295999999999,4.078741163529054,0.1360700106098054
7.099683999999999,4.1122177977107,0.135218157235603
7.102064,4.138896733720177,0.1345395462362704
7.104468,4.16185100749054,0.1339428355256599
7.106851999999999,4.185084820514625,0.1333289575202373
7.109232,4.209669107979067,0.1326658130669548
7.1116280000000005,4.238397366563205,0.1319142324274276
7.114016,4.265914920333843,0.1312164699058601
7.116395999999999,4.293944330783678,0.1305464795829455
7.118792,4.321182345300596,0.1299027700708527
7.12118,4.3551255101910655,0.1290731670904599
7.12356,4.392933106947509,0.1281801874792014
7.125956,4.425665567024478,0.1274046892379583
7.128343999999999,4.4604001278478655,0.1265850028168225
7.13074,4.495414227924974,0.1257502689396235
7.133136,4.529636932069164,0.1249327606375536
7.135523999999999,4.5593435780413225,0.1241936746521576
7.137904,4.578388093975339,0.1236613774746859
7.140299999999999,4.599714249909493,0.1230620936001077
7.142688000000001,4.617455513231394,0.1225192946150831
7.145072,4.635848402859352,0.1219899191452254
7.147467999999999,4.649538242860176,0.1216011767157029
7.149852,4.669886011406308,0.1210947115258887
7.152232000000001,4.694889607751331,0.120514305941304
7.154628,4.718263190402275,0.1200080838355323
7.183312,4.701366232415144,0.1198845901852062
7.1857,4.707325312826152,0.1198301325748112
7.188083999999999,4.7120736884236605,0.1198110414793188
7.19048,4.719475791073645,0.1197616184190679
7.192868,4.725155332230932,0.1197296567175859
7.195251999999999,4.734466987828715,0.1195925292353075
7.202424,4.741449781598115,0.1195756939432355
7.204820000000001,4.74927119312868,0.1194972214834109
7.207208,4.762260289137333,0.1193695269543004
7.209592,4.780044982571739,0.1191666459191205
7.211987999999999,4.804208065297733,0.1188828434187261
7.214376000000001,4.832747436568896,0.1185506370257619
7.21676,4.866082405265812,0.1181368654614484
7.219155999999999,4.899137834709008,0.1177423401994312
7.221544000000001,4.9293997674728685,0.1173945156511528
7.223928,4.957939138744033,0.1170692636803798
7.226323999999999,4.9879687540824165,0.116691357388617
7.228715999999999,5.013342541621909,0.1163762979114744
7.231096,5.038344242109063,0.1160384600742891
7.2335,5.057479409983827,0.1158031823861112
7.235883999999999,5.078896217858729,0.1155150044517804
7.238264,5.097659298681155,0.1152559040757687
7.240668,5.115351444316943,0.1150188151427526
7.243056,5.132903820325873,0.1147946458992318
7.245436000000001,5.153529232267855,0.1145124944882788
7.247832,5.175784657903918,0.1141754780226045
7.25022,5.201532428353617,0.1137547320707925
7.2526,5.221832975071505,0.1134016425674124
7.255004,5.238176542124804,0.113060654596567
7.257392,5.248421259140235,0.1127746098261723
7.259768,5.254010148356774,0.1125484357936655
7.262172,5.257644158655139,0.1123001248281808
7.26456,5.260114685968248,0.1120283653880607
7.266939999999999,5.26342383104252,0.1116999257067531
7.269336,5.2648706449972345,0.1113930636587951
7.271724,5.264734667086112,0.1110900732943249
7.274104,5.26566962436163,0.1107686646294477
7.276499999999999,5.269957156823923,0.1103746097969024
7.278887999999999,5.270100718166521,0.1100523653816926
7.281268,5.271594753949479,0.1096902714585334
7.283672,5.27122645861288,0.1093518524160521
7.28606,5.2730000336495575,0.1089732730144624
7.28844,5.274913378313096,0.1085839635568484
7.290836,5.273241830364381,0.1082277897707545
7.293220000000001,5.271849821669387,0.1078542578991642
7.295599999999999,5.2643117411082825,0.107582593114296
7.297996,5.2538403942409815,0.1073518880383023
7.300384,5.245510917746959,0.1070811292429765
7.302764000000001,5.239695398678549,0.1067971501612929
7.305167999999999,5.237325002595533,0.1064892986817646
7.307555999999999,5.237236246512655,0.1061328618624069
7.309935999999999,5.236728181549196,0.1058036498982291
7.31234,5.235800807705156,0.1055027750515109
7.314728,5.233522959420758,0.1052398144006039
7.317104,5.233247211882776,0.1049463653165532
7.319512,5.23455425621063,0.1046515852357472
7.321896,5.231717329418791,0.1044252677197648
7.324276,5.230742733746506,0.1041799443574933
7.326671999999999,5.236565836246392,0.1038480198128639
7.329059999999999,5.241038464305919,0.103553395896357
7.33144,5.247373423485002,0.103241276751057
7.333844,5.253289073783505,0.1029583507055161
7.336232,5.260275659268646,0.1026567310466165
7.338612,5.271918072552679,0.1023078414114175
7.341016000000001,5.280207910649936,0.1020236228052357
7.3434,5.291570784680248,0.1016909408876978
7.34578,5.305587385763037,0.1013406394731155
7.348184000000001,5.315180476472409,0.1010727834748195
7.350572,5.325053106435502,0.10078893928323
7.352951999999999,5.3319924700924,0.100541891059576
7.355348,5.335858797816243,0.1003412125089739
7.357736,5.342658391846281,0.1001045339987612
7.360116,5.34931821624946,0.0998771116340257
7.362512,5.3547673358391386,0.099675714132597
7.3649,5.361659477667794,0.0994841771843385
7.36728,5.366409749123171,0.0993292736417931
7.369675999999999,5.372882582071245,0.0991640485541145
7.372063999999999,5.376002839832544,0.0990636632441897
7.374448,5.371394233861895,0.0990551906354833
7.379228,5.364179122667015,0.0990103205807526
7.381612,5.361991926323364,0.0989473623399136
7.384008000000001,5.363669161845687,0.0988411355983775
7.386392,5.363204526994732,0.0987701698387829
7.388775999999999,5.36809456807697,0.0986130620009725
7.391172,5.373915774718986,0.0984483855513656
7.39356,5.3789455854280845,0.098284784697341
7.395955999999999,5.391332172816792,0.0980124519320151
7.398347999999999,5.401297350578503,0.0977915877735506
7.400735999999999,5.414987190579327,0.0975380388372199
7.40312,5.431190988005763,0.0972765753016738
7.405511999999999,5.445252915058926,0.0970506062510839
7.407900000000001,5.460525546925586,0.0968005138266043
7.410279999999999,5.4820840202852175,0.0964619778703854
7.412676,5.50313063696565,0.096108814076954
7.415064,5.523525627340025,0.0957438167153333
7.417444000000001,5.5464817969682585,0.0953234913227275
7.419844,5.574932412156544,0.094818484638763
7.422228,5.611251660703637,0.0942277417565668
7.424624000000001,5.643846247011616,0.0936693232604373
7.42702,5.678303164439153,0.0930939184948889
7.429403999999999,5.704332370000441,0.0926401179111492
7.431788,5.725146669255396,0.0922619933521145
7.43418,5.747171673323851,0.0918613440902721
7.436568,5.76598387183239,0.0915125359537215
7.438963999999999,5.785447696646986,0.0911761348862481
7.44136,5.803700816648085,0.0908648587052293
7.443744,5.815016468850156,0.0906299137853727
7.446124,5.826611660305946,0.0903775086984148
7.448528,5.837694995082538,0.0901099552044473
7.450916,5.846404142060376,0.0898385212686323
7.4533,5.856184224224852,0.0895527337361302
7.455692,5.865033140829549,0.0892752149893273
7.45808,5.8714606478072495,0.0890470947038615
7.46046,5.875886054038533,0.0888406430170134
7.462864000000001,5.887388697695705,0.0885588906713061
7.465252,5.895538766166101,0.0883294273429313
7.467631999999999,5.896192288330029,0.0882003680651527
7.470028,5.893772774560901,0.0881066147821858
7.472416,5.897080023777303,0.0879687357999687
7.474796,5.901318438553483,0.087825199741848
7.477192,5.9098405940762175,0.0876245908370477
7.479579999999999,5.9195734544124505,0.0874017744457831
7.48196,5.930377249935322,0.0871673784936645
7.48436,5.941041275831333,0.0869409251686108
7.486743999999999,5.950122509861508,0.0867123118025793
7.48914,5.958552117585627,0.0864741306701098
7.491535999999999,5.972708488295274,0.086193088493079
7.493924000000001,5.990729290870895,0.0858827538135961
7.496303999999999,6.008610323819655,0.0855828566290456
7.4987,6.031007414940445,0.0852634526206366
7.501084,6.053404506061239,0.084946153437915
7.503468000000001,6.077524158674726,0.0846276334070213
7.505864,6.098198688302822,0.0843170662561136
7.508252,6.122086023490833,0.0839697737841658
7.510644,6.1375456468125975,0.0837206765976812
7.513039999999999,6.15328480938808,0.0834560707114752
7.515427999999999,6.1711658423368405,0.0831626721807329
7.517808,6.188255479352684,0.082868677348908
7.520212,6.198826957450079,0.082614034805097
7.5226,6.212471471480528,0.0823319484975241
7.52498,6.227326690324478,0.0820313449756701
7.527384,6.241390513235508,0.0817286720146399
7.529772,6.255174796892818,0.0814438706082767
7.532151999999999,6.270309554990488,0.0811333533941357
7.534548,6.28223150752824,0.0808584441692194
7.536936,6.29494485599891,0.0805859687343662
7.539316,6.301791671857193,0.0803584600555847
7.541716,6.3038428902897214,0.0801636501623848
7.544099999999999,6.302029676856278,0.0799953837156341
7.546484,6.298633671556996,0.0798232069859426
7.54888,6.29244416957838,0.0796651651877166
7.551267999999999,6.285323502039987,0.079512335940281
7.553652,6.280856561554068,0.0793523125253468
7.556048,6.275830542560708,0.079221710115366
7.558435999999999,6.27615919950054,0.0790320247325231
7.560816,6.281003914612406,0.0788277883405381
7.563211999999999,6.290132370470823,0.0785783564164865
7.565599999999999,6.299260826329242,0.078329550455326
7.567979999999999,6.312905340359691,0.0780658438863158
7.570376,6.319752156217971,0.0778480091083257
7.572764,6.324317332076116,0.0776603193420807
7.575143999999999,6.331815774240455,0.0774536497896406
7.577544,6.337591654912098,0.0772494229714005
7.579928,6.34429870114352,0.0770427521918683
7.582308,6.35729158886791,0.0767774350405905
7.584703999999999,6.3727058862193,0.0764786671221276
7.587091999999999,6.393986716183079,0.0761428031355621
7.589488,6.420202913199471,0.0757753855441156
7.591888,6.448141671708559,0.0754045745976895
7.594276,6.475149264657869,0.0750406171874663
7.596656,6.5061610591000125,0.0746489535921031
7.599051999999999,6.533587960929904,0.0742654971949223
7.601439999999999,6.561294402013515,0.0738712207134618
7.60382,6.585555720111732,0.073478971353938
7.606215999999999,6.608606333396451,0.0731074503194138
7.608604000000001,6.625278557389582,0.0727560622770788
7.610983999999999,6.635804709516602,0.0724541140730859
7.613388,6.644188991270345,0.0721722109431669
7.615775999999999,6.648848610784975,0.0719047074409233
7.618156,6.654439395859384,0.0716318194111227
7.620551999999999,6.661380655374151,0.0713348518267004
7.622939999999999,6.663246778209447,0.0710758620542486
7.625324,6.661108699551908,0.0708433075390355
7.627719999999999,6.653755714588037,0.0706554915211128
7.630107999999999,6.640256657758056,0.0705157273930735
7.632492,6.622334090554658,0.0704232554793906
7.634887999999999,6.59989546517923,0.0703399070123637
7.637275999999999,6.572521472751193,0.0702857969891072
7.639656,6.547568889950152,0.0701969106791821
7.642052,6.523407703082029,0.0701103939947094
7.64444,6.498315350654126,0.0700256235501252
7.646835999999999,6.476016494905559,0.0699306109404559
7.649232,6.449713437664157,0.0698604603710303
7.65162,6.425132941915452,0.0697902252082372
7.653999999999999,6.398829884674051,0.0697185738106996
7.6564,6.378253590418179,0.0696210674743418
7.658788,6.365825468774837,0.0694660141755667
7.661167999999999,6.356330613437688,0.0692952992763894
7.663564,6.350700189966514,0.0691062248235718
7.665952,6.348142802428394,0.0688949373692804
7.668332,6.344374710076777,0.0686996167774326
7.670727999999999,6.342468948844717,0.0684975551540662
7.673115999999999,6.345638324292127,0.0682602727925143
7.6755,6.354162375672731,0.0679750125670569
7.677896,6.367621794105945,0.0676619926480098
7.680283999999999,6.383223082912439,0.0673291727894785
7.682664,6.400407163584767,0.0670041747652565
7.685059999999999,6.422526611309708,0.0666534107149236
7.687447999999999,6.444226750154068,0.0663255800458403
7.689844,6.465926888998428,0.0660000492121764
7.692239999999999,6.487487258215928,0.0656837512937024
7.694628000000001,6.511049728179844,0.0653583106283458
7.697007999999999,6.541549665942791,0.0649979032549629
7.699407999999999,6.574191474079012,0.0646222611100192
7.701795999999999,6.606833282215235,0.0642469451448493
7.704175999999999,6.635470888858626,0.0638970203795051
7.706572,6.656239862143207,0.0635882613570689
7.70896,6.680501180241425,0.0632451895211715
7.711343999999999,6.702108771287168,0.0629040357687476
7.713743999999999,6.723576592706053,0.0625717399557213
7.716128,6.750259320431267,0.0622074167194463
7.718512,6.781225788903037,0.0618125263545109
7.720911999999999,6.812843883680866,0.0614316966925202
7.723299999999999,6.841388942525637,0.0610716689715008
7.72568,6.871424245437628,0.0606905594404656
7.728079999999999,6.9036014187228965,0.0602970250018209
7.730467999999999,6.936989296821664,0.0598916167809084
7.732848,6.967583678241095,0.0594950080280197
7.735244000000001,6.997666202981329,0.059083967589948
7.737632,7.021742425482314,0.0586982705929871
7.740016,7.0428853816771015,0.0583234495516935
7.742411999999999,7.060955301938835,0.0579667388666672
7.744796,7.079816618133486,0.0576208258996471
7.747176,7.098677934328138,0.0572782310734618
7.749567999999999,7.118330646455708,0.0569405244199405
7.751955999999999,7.138914524143056,0.0566015500363846
7.754352,7.162943524815796,0.0562690585011416
7.756752,7.178544813622289,0.0559892425474225
7.759139999999999,7.196799829481257,0.0557132359180699
7.761515999999999,7.212912974966946,0.0554517841043115
7.763912,7.222600509332806,0.0552338024048255
7.7663,7.229075238138749,0.0550380524243531
7.768680000000001,7.232896239892218,0.0548400129177172
7.771083999999999,7.240441903884801,0.0546388799876479
7.773468,7.244355453436886,0.0544766743156403
7.775847999999999,7.245568054108255,0.0543514561763855
7.778251999999999,7.248363446645458,0.0542367705147297
7.780639999999999,7.251530926235,0.0541443713202939
7.78302,7.257072593623295,0.0540672203385976
7.785424,7.272624764743676,0.0539540359136351
7.787807999999999,7.290179036610474,0.0538337362344158
7.790188,7.310666574783466,0.0537061783793569
7.792584000000001,7.320212443664596,0.0536151131529999
7.794968,7.324683175866254,0.0535447928612515
7.797363999999999,7.331016239187467,0.0534733752088427
7.79976,7.336418136948903,0.0534026631373607
7.802148,7.341959804337199,0.0533265437401717
7.804528,7.352436838778106,0.0532354103967666
7.806932000000001,7.361703168405516,0.0531567950396978
7.80932,7.368827627659647,0.0530902823520357
7.811696,7.377023022100418,0.0530170357532513
7.814099999999999,7.388151682847384,0.0529366677479248
7.816488,7.399931969900408,0.0528671040215583
7.818867999999999,7.40663712027396,0.052817938938787
7.821272,7.413342270647511,0.0527687738560156
7.823656000000001,7.421397895461423,0.0527019801481958
7.826035999999999,7.426660023595998,0.052637477999214
7.82844,7.427406093558543,0.0525701732518689
7.830827999999999,7.426289832401531,0.0525044726346031
7.833208,7.418096333818629,0.0524654767588018
7.835603999999999,7.412416792661342,0.0524359656092881
7.837988,7.404455611503919,0.0524242548765732
7.840368000000001,7.404363063705302,0.0523912974939992
7.842771999999999,7.4061328470262415,0.0523570352190285
7.845159999999999,7.407390773667982,0.0523067840028252
7.847535999999999,7.408648700309724,0.0522564426575083
7.849932,7.410046396578325,0.0522007128643114
7.85232,7.409581761727372,0.0521459852180744
7.8547,7.40767410463744,0.0520755078072477
7.857104,7.415265094600397,0.0519571619096094
7.859492,7.42513772456349,0.0518216452667628
7.861871999999999,7.430494296354552,0.0516831535650905
7.864268,7.435059472212696,0.0515394044118204
7.866656,7.44018372657828,0.0513728940905556
7.869036,7.441723088331611,0.0512014550999108
7.871431999999999,7.439677557472689,0.0510254693051898
7.873816000000001,7.434978299561293,0.0508442190644599
7.876212,7.431489746463396,0.0506497982333678
