Time,Force,Position
6.793772000000001,2.4210708265326604,0.1804287182222843
6.79616,2.5383334025156628,0.1764543450243552
6.798540000000001,2.656109731035732,0.1724679360220004
6.800943999999999,2.771326776159812,0.1686003986980918
6.803332000000001,2.8792361622903955,0.1646817815169678
6.805712,2.978115327934785,0.161254810963231
6.855884,3.137006327809211,0.1602569640376645
6.858288,3.1451072785934957,0.1600381029036731
6.860676,3.157724287549811,0.1596842240745912
6.863056,3.175788520237937,0.159175841652417
6.865460000000001,3.1954355447918985,0.1586363048049056
6.867844,3.213220238226304,0.1581651106829533
6.870224,3.2308651620338487,0.1576959364022132
6.872628000000001,3.2510240432670083,0.1571568942611977
6.8750160000000005,3.27597852192592,0.1564313545055852
6.877396000000001,3.3032146405849687,0.1555798094136952
6.879792,3.323280974019511,0.1549458256262622
6.882175999999999,3.347491278573747,0.1541382715448278
6.884556,3.371189726448786,0.1533192592500226
6.88696,3.3967505054433813,0.1524573798192673
6.889348,3.425524089997892,0.1514853439404491
6.8917280000000005,3.4544374441792627,0.1504879568804144
6.894124,3.481488467241077,0.1495501626387923
6.896512,3.5121243829151454,0.1485150633696288
6.898892,3.5359153785888005,0.1478395343496236
6.901288000000001,3.560218230941654,0.1471994368324777
6.903676000000001,3.57814269400292,0.1467478688797444
6.906056,3.584845948518602,0.1466985896648165
6.908448,3.595832943780838,0.1464890585875715
6.910836,3.6032350464308216,0.1463685237784811
6.913212,3.612267162774885,0.1461502804354995
6.915628,3.6162241424394743,0.1460991403491682
6.918012000000001,3.624185323596899,0.1459151831957987
6.920396,3.635731397366576,0.1456461731393281
6.922796,3.652352607815726,0.1452212290990539
6.925184,3.670184523078374,0.1447481175812749
6.92756,3.689878769460579,0.1442125429713909
6.929964,3.70542904472309,0.1438231472098165
6.932352,3.723353507784356,0.1434127124320094
6.934732,3.739275870099205,0.1430722986500701
6.961016000000001,3.794203262978909,0.1429740746957934
6.982524,3.850945765149928,0.1429210103672984
6.984904,3.8571371629864126,0.1428670793855916
6.9873080000000005,3.865190891942454,0.1427692149367346
6.989692,3.882743267951382,0.1423648218082152
6.992072,3.8936377154150015,0.1421291813934751
6.994476000000001,3.9081170554908735,0.1418199818528586
6.996864,3.925622209671558,0.1414871080125024
6.999244000000001,3.9487143572109127,0.1410263450919729
7.001647999999999,3.974227914377265,0.1404774686728205
7.0040320000000005,3.9975070533717223,0.1399439476222081
7.006412000000001,4.017573386806266,0.1395180545884211
7.008816,4.042575087293421,0.1389664900522825
7.011203999999999,4.0589167584888495,0.138630851357699
7.013580000000001,4.072232615579467,0.1383109415504425
7.015984,4.0856882422969445,0.1379823210463539
7.018371999999999,4.09900409938756,0.1376663301703457
7.020752,4.1149736835306525,0.1372976688393113
7.023156,4.130571180621407,0.1369054718101263
7.025544,4.145237512152383,0.1365384560254436
7.02792,4.160555469989417,0.1361798925516766
7.03032,4.179039011558122,0.1357891217099532
7.032708,4.198313949059748,0.1353958226152667
7.035088,4.216145864322395,0.1350080677073401
7.037492,4.223967275852959,0.1348833803932878
7.03988,4.234861723316579,0.1346718025296032
7.042260000000001,4.243893839660641,0.1345014107161594
7.044664000000001,4.252693638579227,0.1342875075027485
7.056596000000001,4.247340858503904,0.1342507955553175
7.058992,4.248691332944263,0.13419405083309
7.06138,4.252835304063956,0.1340798395326511
7.06376,4.255628800743292,0.1340228035027025
7.066155999999999,4.257910440743428,0.1339470454208856
7.075711999999999,4.250230694697594,0.133862066297237
7.082879999999999,4.232402571150684,0.1338428062924708
7.08526,4.229563748500975,0.1337748065074915
7.087664,4.228587256970823,0.1336695129996929
7.090048,4.231894506187224,0.1334434121056915
7.0924320000000005,4.235993151336544,0.1332126204668748
7.094836000000001,4.242186445030898,0.1329872302925741
7.09722,4.248519508352113,0.1327498453468441
7.099600000000001,4.258112599061485,0.1323537322155611
7.102004000000001,4.26719383309166,0.1319422377193953
7.104392000000001,4.275763210442638,0.1315086005207257
7.106771999999999,4.283261652606977,0.1311098976949969
7.109176,4.292901965144593,0.1306584983570412
7.111560000000001,4.301239025070093,0.1301919237129971
7.11394,4.309436315368734,0.1297358933854857
7.116344,4.3153519656672366,0.1293518945815679
7.118728000000001,4.321547155219459,0.128941534266548
7.121112,4.334679812570712,0.1283718605759845
7.123507999999999,4.348603865854881,0.1278002895851175
7.125896000000001,4.361456983952412,0.1272658365368568
7.128276,4.372959627609585,0.1267772032693774
7.13068,4.383159018654642,0.1262757550870832
7.133068,4.396990524140196,0.1256579815618002
7.135448,4.409099468133052,0.1250671776540828
7.137848,4.412129073953603,0.1246853095470165
7.140236,4.412365183094819,0.1243527586473054
7.142616,4.411809896303118,0.1240241690473714
7.145016,4.4084611128320805,0.1237442748896362
7.147404,4.404413481226742,0.123524757831072
7.149784,4.399667001487102,0.1233644540348633
7.152188000000001,4.395711917680381,0.1231987724556192
7.1545760000000005,4.3888235675674645,0.1230946752689038
7.156956000000001,4.378862181521492,0.1230624188478457
7.159352,4.372345918460914,0.1229880343852797
7.16174,4.36890269133339,0.1228415213473511
7.1641200000000005,4.367601334579143,0.1226396122801915
7.166524000000001,4.369373013757952,0.1223676424988653
7.168912000000001,4.369142592190344,0.1221410447272495
7.171291999999999,4.365187508383622,0.1219752285728587
7.173688,4.360021719763402,0.1218478295022471
7.176076,4.363795499688628,0.1215395786841159
7.178456000000001,4.368220905919912,0.1212391757815479
7.180852,4.3672916362180025,0.1210712370264672
7.18324,4.365663518381792,0.1209600630846235
7.18562,4.371624494650669,0.1207174326925754
7.18802,4.381449902785519,0.1204044994965606
7.190404000000001,4.390344145360591,0.1201036869617659
7.192784,4.404545842040612,0.1197352449646234
7.195188,4.4168852076010765,0.1193970348683507
7.197572000000001,4.427222472415124,0.1190974687711084
7.199952,4.442215565028064,0.1187261943933994
7.2023600000000005,4.462004255066754,0.1182701346936054
7.204748,4.481792945105446,0.1178153800967183
7.207128000000001,4.498368829584223,0.1174406715730245
7.209524,4.511312599622501,0.1171801248029132
7.211912,4.525839161526617,0.1169176832220147
7.214296000000001,4.535802443430458,0.1167808085693418
7.216692,4.546137812386636,0.1166760631367235
7.219075999999999,4.561780635447765,0.1165076690615808
7.223856,4.584126713024576,0.1163455337402611
7.226243999999999,4.593343924965873,0.1163324337220561
7.228624,4.6042836983998665,0.1163014331752167
7.231028,4.615782550341301,0.1162256314735185
7.233411999999999,4.627700711163316,0.1161210433073182
7.235796000000001,4.6365458360522736,0.1160800900825117
7.238196,4.650186558366985,0.1159613262905348
7.240584,4.6643863591891375,0.1158043634068234
7.242964000000001,4.682590361504124,0.1155762775064912
7.24536,4.707080205312079,0.1152202227360001
7.247748,4.725563746880786,0.1149748834051291
7.250128,4.744187058076353,0.1147263489925957
7.252523999999999,4.766674801137893,0.114423892236679
7.254912000000001,4.794237680878905,0.1140330589111506
7.257292,4.825153135806694,0.11356500989411
7.259688000000001,4.849410662189173,0.1131903622895249
7.262076,4.878883094877985,0.1127138757423065
7.264456000000001,4.907843670887599,0.1122232419005002
7.266859999999999,4.935221455031376,0.1117428966510717
7.269248000000001,4.962179930294574,0.1112920198279136
7.271628,4.992630750371407,0.1107488674420999
7.274032,5.019496677835988,0.110248052586066
7.276415999999999,5.048504475673845,0.1097064690281712
7.278796,5.076441338325064,0.1091859263250805
7.281192000000001,5.098092359483313,0.1087876890310602
7.283580000000001,5.123607812507533,0.1083354146250456
7.285959999999999,5.149402804785475,0.1078745015309061
7.288356,5.169843121130224,0.1075214730216484
7.290744,5.187210401541918,0.1072256470400754
7.293124000000001,5.2002939412070575,0.1070165142383919
7.295528000000001,5.214867724939417,0.1067556323780265
7.297912,5.224506141619163,0.1065703655167314
7.300295999999999,5.227998486432799,0.1064898028133715
7.302696000000001,5.2288371041939605,0.1064329420952596
7.305084000000001,5.229675721955121,0.1063766149335247
7.307463999999999,5.239314138634867,0.1061990048596367
7.309856,5.247229993821918,0.1060351236488665
7.312244,5.252352352329633,0.1059016671714801
7.314640000000001,5.257334941210489,0.1057782407165085
7.317031999999999,5.260874507852368,0.1056465473221429
7.319420000000001,5.2653452400540255,0.1055054895340266
7.3218,5.272469699308158,0.1053440993581703
7.324204,5.279594158562291,0.1051846947940749
7.326592,5.289791653749477,0.1049785277980478
7.328972,5.302131019309943,0.1047314196018633
7.331376000000001,5.310466183377574,0.1045434308236567
7.33376,5.314657376325512,0.104423228038023
7.33614,5.322201144460225,0.1042369460699938
7.338547999999999,5.329744912594937,0.1040506641019646
7.340932,5.336776824050453,0.1038464752603056
7.343312000000001,5.349395728864637,0.1035873723806226
7.345715999999999,5.361735094425102,0.103343242800021
7.3481,5.375285164799065,0.1030682813353583
7.350480000000001,5.38790406961325,0.1028050769341358
7.352876,5.395587607374823,0.1026086534440594
7.355264,5.3975443821508655,0.1024815090925753
7.357644,5.397499056180491,0.1023827520352278
7.360048000000001,5.397313960583257,0.1022924682002862
7.362432,5.3966170083068254,0.1021846761174544
7.364812000000001,5.398573783082868,0.1020570357150204
7.367208,5.399319853045412,0.1019574975633161
7.369596,5.39927452707504,0.1018589401454568
7.371976,5.394433603678913,0.1018164201073135
7.37438,5.389592680282788,0.1017735803649013
7.376768,5.3879645624465775,0.1016763379742252
7.379148000000001,5.389828789424003,0.1015076066763347
7.381552000000001,5.391553246774569,0.1013470870490765
7.383936,5.3892735026323,0.1012406706854852
7.386316000000001,5.387273297743753,0.1011163413378914
7.388719999999999,5.3880665895345405,0.100965105279867
7.391108000000001,5.381270787220241,0.1008947317161165
7.393488,5.378898495279356,0.1007444042265639
7.395892,5.374524102592054,0.1006201982899875
7.39828,5.366797134717976,0.1005588999386848
7.40066,5.363353907590452,0.100424747022449
7.403055999999999,5.360841846022707,0.1002812208430203
7.405444000000001,5.358190014828101,0.1001463266632636
7.407824,5.362475651432525,0.0999216512534616
7.410220000000001,5.363268943223312,0.0997682758234999
7.412608,5.36420200464096,0.0996065216715022
7.414988000000001,5.367416706058745,0.0994008362075171
7.417396,5.369700241916752,0.099204640481154
7.419784,5.377990080014009,0.0989290765793262
7.422164,5.38413804773799,0.0986903229685783
7.42456,5.390006476208248,0.0984717740695382
7.426947999999999,5.393453495051511,0.0983064415923679
7.429328,5.399042384268051,0.0981068540413554
7.431724000000001,5.410777345350701,0.0978229059058935
7.434112000000001,5.424514407179768,0.0975164562216997
7.436491999999999,5.436109598635556,0.0972455146715623
7.438888,5.4512896827036,0.0969495136789606
7.441276,5.465398831585004,0.0966737968495246
7.443659999999999,5.486864757146018,0.0962931111382221
7.446064,5.513685358640224,0.0958292040919534
7.448448000000001,5.539574794574651,0.0953774827765539
7.450832,5.566674935322578,0.0949041392953682
7.453227999999999,5.598058816817058,0.0943706964764503
7.455616000000001,5.624507331258928,0.0939002786519307
7.457996,5.658312622380406,0.0933298893454903
7.460392000000001,5.691466287195826,0.0927541702548095
7.46278,5.720615750518413,0.0922267404220125
7.465164,5.749113587534942,0.0916909777346383
7.467560000000001,5.770534187125582,0.0912387673907853
7.469948,5.788509663730829,0.0907957356195185
7.472328000000001,5.802900247723823,0.0903743278845719
7.474731999999999,5.816499435783899,0.0899512444192654
7.477119999999999,5.829446997537918,0.0895207883761519
7.4795,5.838250588172241,0.0891461639418448
7.481899999999999,5.84398114287351,0.0888101962483182
7.484284000000001,5.847989136082083,0.08847876183956
7.486663999999999,5.851345502984596,0.088138657950692
7.48906,5.853770704327333,0.0878064476867532
7.491448,5.849910064177098,0.0875564299642019
7.493831999999999,5.842976388093807,0.0873426621153594
7.496228,5.8365545686897145,0.0871467027437208
7.498616,5.825709238912207,0.0870167467834925
7.500996000000001,5.810859707641866,0.0869279167468965
7.503400000000001,5.794799471558026,0.086861633513208
7.505788000000001,5.7747350339813535,0.0868348228814319
7.508167999999999,5.757464093084016,0.0867875624351243
7.510564,5.744057584052651,0.0867074632317946
7.512948,5.732233866887122,0.0866304477248174
7.515328,5.728558322334121,0.0864659345778297
7.517732,5.731121397445849,0.0862751660428762
7.52012,5.734987725169691,0.0861033161649074
7.522500000000001,5.741787319199728,0.0859063419442663
7.524903999999999,5.751240640282242,0.0857015267147742
7.527292000000001,5.762276753230591,0.0855006837253405
7.529672,5.774244031738718,0.0852939799229763
7.532068000000001,5.791146677299457,0.085044176890867
7.534456,5.806978387673558,0.0848082017746097
7.536836000000001,5.822390789167079,0.0845958820379775
7.539236000000001,5.841807392153432,0.0843456987376165
7.54162,5.86401749181912,0.0840797417390183
7.544003999999999,5.885436195551891,0.0838126439285366
7.5464,5.912209575217855,0.0834781740852265
7.548783999999999,5.939494811563016,0.0831610484531016
7.551164,5.9682702919753945,0.0828071991586648
7.553556,5.994903902014498,0.0824795642482629
7.555944,6.01525167056063,0.0822251781230736
7.55832,6.034528503920124,0.0819868227955962
7.560736,6.049661366159923,0.081792633812819
7.56312,6.061581422839807,0.0816411406250526
7.565516000000001,6.070987522094077,0.0814917507197136
7.567912,6.082815030975343,0.081301969999143
7.5703,6.092500669483334,0.0811389893516047
7.57268,6.0973907105655725,0.0810102398761839
7.575084,6.099766794222195,0.0808816812015553
7.577472,6.103074043438597,0.0807483165231663
7.579852000000001,6.101445925602388,0.0806558807214029
7.582256000000001,6.104753174818789,0.0805240134977965
7.584644000000001,6.107688336982855,0.080367149030873
7.587023999999999,6.108900937654222,0.0802134951229672
7.589428,6.107320041646255,0.0800746909562362
7.591812000000001,6.108812181571343,0.0799075862242655
7.594192,6.107371055190238,0.0797623558644155
7.596596,6.10634923768971,0.0795951644232799
7.598984,6.108120916868518,0.0794152299778474
7.601364,6.1137570279133024,0.0792099546264659
7.603759999999999,6.126889685264553,0.0789231716333567
7.606148000000001,6.137228845936472,0.0786497635488625
7.608528,6.153993617728219,0.0783064020154816
7.610924000000001,6.169827223960189,0.0779686575564612
7.613312,6.186731765378797,0.0776212474328552
7.615692000000001,6.200982579744931,0.0772815369711999
7.618088,6.2125796670585895,0.0769459910475604
7.620476,6.226039085491804,0.0766010629707382
7.622856,6.243502705417855,0.07622552795597
7.625260000000001,6.259103994224348,0.0758590816992283
7.627648000000001,6.279361110829733,0.075472686646784
7.630027999999999,6.293472155569006,0.0751420386907513
7.632428000000001,6.309305761800976,0.0748114886043206
7.634816000000001,6.324580289525505,0.0745099945095888
7.637195999999999,6.341856917996451,0.0741939894036679
7.639592,6.354198179414785,0.0739137894340671
7.64198,6.370264103072231,0.0736196880755205
7.644360000000001,6.388192357849235,0.0733199055427883
7.646764000000001,6.401976641506545,0.0730582105091277
7.649148,6.41310719811138,0.0728018730754328
7.651528000000001,6.415810042849968,0.0726244928710752
7.653928,6.421306384267889,0.0724358983337605
7.656312,6.421587819379479,0.0722939836266873
7.658696000000001,6.423871355237486,0.0721385083973135
7.661099999999999,6.427877452588189,0.071984152698521
7.663484,6.4343975073645066,0.0718337043601018
7.665864000000001,6.445433620312855,0.0716727540399724
7.668267999999999,6.455538567701425,0.0715152463765132
7.670656000000001,6.4613597743434426,0.0713990159870528
7.673036,6.468112146545238,0.0712793688003025
7.675432000000001,6.471139856507919,0.0711737334087177
7.67782,6.476588976097598,0.0710338347240718
7.680200000000001,6.480827390873778,0.0709112966823257
7.682603999999999,6.486416280090317,0.0707653133950996
7.684991999999999,6.491213773373938,0.0706164741376272
7.687372,6.498804763336894,0.0704578814573754
7.689768000000001,6.503182947739935,0.0703300114313438
7.692156000000001,6.506769736210057,0.0701995141167972
7.694535999999999,6.511567229493678,0.0700524266917878
7.696932,6.5172958883370775,0.0699023636516127
7.69932,6.531592028673585,0.0696748209368797
7.701700000000001,6.543094672330758,0.0694563496053483
7.7041,6.558741287107625,0.0692063010438776
7.706488,6.5697320740856,0.0689714930340637
7.708868000000001,6.5768584291976016,0.0687562388559844
7.711272000000001,6.583333158003545,0.0685320561603102
7.713656,6.588784173451092,0.0682752491219676
7.716036000000001,6.600381260764751,0.0679783895907988
7.718439999999999,6.617472793638463,0.0676303726072673
7.720828000000001,6.634052469832977,0.0672660757767602
7.723208,6.65091168528121,0.0668885446714178
7.725607999999999,6.668702066289223,0.0665105358800284
7.727992,6.688913856924233,0.066103888694239
7.730372000000001,6.707403086066548,0.0656970464441032
7.732775999999999,6.72682348076864,0.0652900311741324
7.735163999999999,6.7468029539781735,0.0648603038791252
7.737544,6.764687778642673,0.0644042394192091
7.739948,6.780430732933896,0.0639665389757155
7.742336,6.79524252166534,0.0635313597265958
7.744716,6.812196180770061,0.063081817987215
7.747111999999999,6.822724228754951,0.0626855721562117
7.749499999999999,6.8392585789790905,0.0622603383601968
7.75188,6.854070367710534,0.0618356677405344
7.754284,6.874748689054368,0.0613884019194817
7.756672,6.894915153719005,0.0609236239690405
7.759052,6.913219287264085,0.0604641745284236
7.761448,6.931895507861501,0.0600306046568214
7.763835999999999,6.94256332547325,0.0596379938333433
7.766216,6.951229042338586,0.0592584216179817
7.768612000000001,6.964271047749089,0.058885950102864
7.771000000000001,6.97931515390601,0.0585058095627939
7.773384,6.994359260062931,0.0581279725590376
7.775780000000001,7.007401265473435,0.0577612918373581
7.778168000000001,7.022305602003495,0.0573931422776479
7.780548,7.036139003346919,0.0570337110163087
7.782944,7.044338189503427,0.0567213578060224
7.785332,7.058775995324664,0.0564139670933032
7.787716,7.075076132265457,0.0561046277150631
7.790112000000001,7.09244720439289,0.0557887679326099
7.7925,7.109398967639741,0.0554934503146411
7.794880000000001,7.129423766819649,0.0551831064844796
7.797280000000001,7.14144016301389,0.0549054897316584
7.799668,7.15210608476777,0.0546469495779389
7.802052,7.158628035401957,0.0544111534735252
7.804451999999999,7.170597209767954,0.0541772903958447
7.806839999999999,7.1821470752533685,0.0539607740637248
7.80922,7.190623904805729,0.0537584633928275
7.811624,7.201894231037426,0.053553056012326
7.814012,7.209672212455485,0.0533795593814426
7.816392,7.21372553163443,0.0532104546481243
7.818788,7.216428376373018,0.0530600640610751
7.821175999999999,7.218851681857884,0.0529218480692648
7.823556,7.219924512902391,0.0528016227967874
7.825964000000001,7.222719905439594,0.052686681777057
7.828348,7.22416482353644,0.0525895085805009
7.830728000000001,7.233897683872674,0.0524530789924746
7.833132000000001,7.237903781223375,0.0523265239745029
7.835520000000001,7.239535690775324,0.0521845368414112
7.837899999999999,7.241958996260192,0.0520481363226363
7.840304,7.239586704319307,0.0519197872734831
7.842688000000001,7.236283246818642,0.0517920879288217
7.845067999999999,7.242850523423202,0.0516376953139894
