Time,Force,Position
7.217996,2.382745649882154,0.176044317196324
7.220400000000001,2.4941851233652703,0.1728264079711044
7.222784,2.597712533377075,0.1700429636974065
7.225167999999999,2.690160400328025,0.1680615514220753
7.227571999999999,2.7813994583233472,0.1658575249364539
7.229959999999999,2.8694276066166227,0.1635409838793804
7.23234,2.946423433677288,0.1617741960862039
7.234744,3.019836263983568,0.1599644647341764
7.237127999999999,3.085195365333808,0.1584895256061982
7.239508,3.1455737736610616,0.1571262498961814
7.241912,3.1917996029944065,0.1562640409784462
7.2443,3.226900563296524,0.1555427760612258
7.246676,3.2511089719928905,0.1549648003856072
7.249084000000001,3.263399219867244,0.1547115294768882
7.251468,3.2785301862491742,0.1542888562427705
7.253851999999999,3.301809325243632,0.1535699813783209
7.256248,3.3213638019989764,0.1529651301037175
7.258631999999999,3.335051746141931,0.1525669897398077
7.261012,3.3508815606581623,0.1520794233573354
7.263412,3.371134885547808,0.1514112327162734
7.265796000000001,3.394833333422847,0.1506598456452819
7.26818,3.4195554946562807,0.1499605374113055
7.270575999999999,3.441716476635857,0.1494043338458763
7.27296,3.461456048988436,0.1489494966538421
7.275344,3.478774211714017,0.1486205819242091
7.318344000000001,3.588906640869279,0.14836017092329
7.32074,3.600405492810713,0.1481816057959443
7.323128,3.615396689565783,0.1478616707861154
7.325524000000001,3.6325297566941295,0.147478376289658
7.32792,3.653247716434731,0.1470209414376608
7.330308,3.676851720653283,0.1465460871628774
7.332688,3.7077652797232017,0.1459128522534058
7.335083999999999,3.744173284353173,0.1450917396739063
7.337471999999999,3.779929662677087,0.1442807586913609
7.339852,3.807165781336136,0.1436779946579375
7.342248,3.8389651799954594,0.1428972333452823
7.344636,3.8709043482816425,0.1421102706426127
7.428272000000001,3.896831526754967,0.1417166843961138
7.43066,3.901719671979336,0.1416553277861038
7.435440000000001,3.911960597279028,0.1416234158277254
7.437828,3.922715275115788,0.141406611697452
7.440207999999999,3.933469952952547,0.1411919568569895
7.442608000000001,3.9438053219087257,0.1410151037024755
7.444992,3.9578653531040175,0.1407549518076683
7.449772,3.966011629858676,0.1407209617813328
7.45216,3.9709923228816617,0.1407202368517798
7.454540000000001,3.985424441129291,0.1404972903876563
7.456936,4.007725192735728,0.1400758608138552
7.459324,4.030165713969025,0.1396505275379067
7.461708000000001,4.055539501508516,0.1391500298430942
7.464104,4.088781922406815,0.1384391685065357
7.466492,4.117880372185421,0.1378549386054086
7.468876000000001,4.149028144538685,0.1371462905888077
7.471272,4.173797527600362,0.136557190745309
7.47366,4.193352004355707,0.1361318235643586
7.47604,4.209042049245078,0.1357970571963931
7.478435999999999,4.219284870402641,0.1355766109424423
7.480823999999999,4.228084669321226,0.1353572366112549
7.483208,4.238374712307031,0.1350641146512582
7.485603999999999,4.245312180106059,0.134888383558677
7.487991999999999,4.25131848234531,0.1347329349020681
7.490388,4.258675259024919,0.1345186680168572
7.492783999999999,4.263518078278915,0.1343402504690352
7.495176,4.273296264585522,0.1340355422110962
7.497556,4.283865846825047,0.1337231088682366
7.499951999999999,4.295134277198873,0.1333535485616605
7.516672000000001,4.254172471857973,0.13319839986013
7.519056,4.257899029954955,0.1329413567158356
7.521451999999999,4.262836292865437,0.1326420156661091
7.523843999999999,4.274990562828667,0.1321623283286642
7.526224,4.289146933538314,0.1316373785722145
7.528619999999999,4.3043742394346,0.1310830680737395
7.531008000000001,4.321603646077302,0.1304878659849972
7.533392,4.335899786413811,0.1299537620200392
7.535787999999999,4.350615235630899,0.1293856465779903
7.538175999999999,4.365470454474847,0.1288073936217406
7.54056,4.378975198878437,0.1282807055528778
7.542955999999999,4.392759482535746,0.1277347105159881
7.545343999999999,4.407614701379695,0.1271623549591485
7.547719999999999,4.418837805783147,0.1267132554784233
7.550116,4.430572766865798,0.1262853788939905
7.552499999999999,4.448174260560839,0.1257314975382666
7.554896,4.469360646868132,0.1251134146911768
7.557288000000001,4.4871944579886485,0.1245956903880964
7.559672,4.506750830601862,0.1240566792738875
7.562067999999999,4.5248169591478575,0.1235848975594381
7.564471999999999,4.540229360641378,0.1231505578095411
7.566856,4.544700092843035,0.1229624278659075
7.569235999999999,4.551033156164249,0.1227436396513943
7.571639999999999,4.554013644298688,0.1226214527908245
7.574024,4.555503888365908,0.1225605379127768
7.576403999999999,4.559647859485602,0.1224657486357715
7.5788,4.562581125791797,0.1224095236274763
7.581183999999999,4.57245185989702,0.1222170239599504
7.583564,4.581483976241082,0.1220909030435511
7.585959999999999,4.592890280383899,0.1219556788803688
7.588344,4.606298685273134,0.1217798210166742
7.590739999999999,4.6186361549757295,0.1216313108946208
7.593136,4.630833855051464,0.1214953647540572
7.59552,4.647455065500615,0.1212498328159676
7.5979,4.662213944830207,0.1210328425607087
7.600304,4.676181428226882,0.120822936502572
7.602692,4.69522404830303,0.1205169581489333
7.605072000000001,4.717759013192813,0.1201186111618605
7.607475999999999,4.741504682896094,0.119691158675602
7.60986,4.765390122226236,0.1192525485517368
7.612240000000001,4.792860454168633,0.1187709567628772
7.614636,4.822193117230583,0.1182533355798373
7.617019999999999,4.849523679546119,0.1177781599158109
7.6194,4.871779105182181,0.1173970325824512
7.621804,4.893243134885326,0.1170159742903269
7.624187999999999,4.909771797535859,0.1167271781052085
7.626568,4.923506963507056,0.1164791561505613
7.628972,4.932446532052501,0.1163150415035352
7.63136,4.943016114292026,0.1160851568692521
7.664808,4.903400991675746,0.1160674590603443
7.667191999999999,4.90386752238457,0.1159796439672354
7.669588,4.90754685865331,0.1158253783889099
7.671983999999999,4.915370166041743,0.1155924017654059
7.674376,4.925055804549733,0.1153335293760942
7.676756,4.933810277497945,0.1150867946163534
7.679151999999999,4.940283110446019,0.1148949944943699
7.681536,4.952902015260205,0.1145923278448617
7.683916000000001,4.966591855261028,0.1142669742929444
7.686319999999999,4.984797753433883,0.1138999298417519
7.688707999999999,5.006868083472711,0.1134813849119974
7.691088,5.032151219071456,0.1129977505406858
7.693484000000001,5.051428052430949,0.1126106906272691
7.695872,5.07312629541744,0.1121645656216927
7.698251999999999,5.0937536032172925,0.1117340702978003
7.700648,5.110656248778031,0.1113486705383445
7.703031999999999,5.131330778406127,0.1108612439590668
7.705428,5.149211811354888,0.1104114526886535
7.707832000000001,5.169094945050065,0.1099261949528637
7.71022,5.188326452439185,0.1094390612823992
7.712599999999999,5.205276319828167,0.109008079604461
7.715003999999999,5.2187338424035135,0.1086637033006867
7.717391999999999,5.230329033859303,0.1083446056522162
7.719772,5.240061894195536,0.1080500890380962
7.722168000000001,5.252216164158766,0.1076988194631041
7.724556000000001,5.263439268562219,0.107356338745335
7.726935999999999,5.277363321846389,0.1069367206664109
7.729332,5.283278972144892,0.106641493973791
7.73172,5.291196723189812,0.1063177344991225
7.734100000000001,5.291804919383365,0.106070500460089
7.736503999999999,5.288316366285468,0.1058384357410493
7.738888,5.285619209120488,0.1056066521240331
7.741268000000001,5.290139059008258,0.1052593934683092
7.743664,5.289444002589695,0.1049979786903007
7.746052,5.293404773970024,0.1046864207648762
7.748432,5.303232077962743,0.1042973039843253
7.750827999999999,5.310358433074744,0.1039852895895932
7.753212,5.317624557813605,0.1036633891342017
7.755596,5.329686279978219,0.1032886556655199
7.758,5.339466362142696,0.1029609490915012
7.760383999999999,5.349525983560892,0.1026157032848006
7.762768,5.360936079419449,0.1022350631250458
7.765163999999999,5.370204304904727,0.1018902534461724
7.767548000000001,5.3793327607631465,0.101555186010813
7.769932,5.386970972554345,0.1012682381475292
7.772328000000001,5.397123141771159,0.1009707830343539
7.774716000000001,5.404574362107255,0.1007462895893377
7.777095999999999,5.4166814102422425,0.1004738139220843
7.779492,5.426646588003952,0.1002395027541359
7.78188,5.433538729832607,0.1000478119190248
7.784275999999999,5.4395922539001,0.0999103259368106
7.786672,5.440989950168701,0.0998195166985527
7.789055999999999,5.439594149757968,0.099756956239554
7.791436,5.443273486026707,0.0996214957384057
7.79384,5.44644096561625,0.0994693896601227
7.796228,5.447885883713096,0.0993277336318653
7.798608000000001,5.447748009944105,0.099185484285108
7.801008,5.451055259160508,0.0990264238926589
7.803392,5.447844349458461,0.0989289236837691
7.805776000000001,5.444773209383275,0.0988223641624738
7.808172,5.44035159486773,0.0987507438375396
7.810555999999999,5.432065548486211,0.0987223427157762
7.812936,5.426852538037747,0.0986501101165822
7.815335999999999,5.420428822775785,0.0986042455563428
7.81772,5.412422315647987,0.0985577934395953
7.820104,5.405114656654489,0.098466871953487
7.822500000000001,5.399948868034271,0.0983412666558228
7.824888,5.395062618667772,0.0981983080514706
7.827284,5.390455908554992,0.0980377648247613
7.829680000000001,5.392507126987521,0.0978083982190157
7.832068,5.3956292806066894,0.0975611579189413
7.834447999999999,5.403407262024748,0.0972709939589022
7.836844,5.411417560868285,0.0970172053860349
7.839232,5.418496694152044,0.0967741977449548
7.841612,5.423294187435665,0.0965744558984339
7.844008,5.427812141465565,0.0963933887095557
7.8464,5.434052656988161,0.0962039999758838
7.84878,5.437918984712003,0.0960145578966834
7.851176,5.444439039488321,0.0958095887681345
7.853563999999999,5.455894461317251,0.0955498913262703
7.855944,5.469771292773178,0.0952406319740412
7.858348,5.4913769879610514,0.0948546599859816
7.860732,5.513774079081844,0.0944735911722562
7.863112,5.54045491094919,0.0940310966195194
7.865516,5.568718534682372,0.093591324821245
7.8679,5.596423079908114,0.0931894356563206
7.87028,5.625198560320494,0.0927764548032889
7.872672000000001,5.652903105546235,0.092381668192207
7.87506,5.681538816331756,0.0919826835274398
7.877452000000001,5.710034757490416,0.0915964266458168
7.879848,5.7386704682759335,0.0912024704174991
7.882231999999999,5.766375013501676,0.0908194381064309
7.884624,5.795849342048358,0.090384748837448
7.887020000000001,5.821319469102207,0.089992785436251
7.889404,5.850933567275748,0.0895525927181341
7.891784,5.877614399143095,0.0891403908909322
7.894188000000001,5.906437101383717,0.0887014894096412
7.896572,5.933117933251065,0.0882921073679316
7.898952,5.957796664371993,0.0879046461941597
7.901348,5.97660886288053,0.0875762097549142
7.903732000000001,5.994070586948712,0.0872799352623546
7.906128,6.005526008777641,0.0870491189017154
7.908532,6.016329804300513,0.0868111442949538
7.910915999999999,6.026202434263606,0.0865828223526404
7.913296,6.035423437920641,0.0863458748145782
7.915696,6.0439928152716185,0.0861002885493348
7.918083999999999,6.051631027062816,0.0858626165333849
7.920459999999999,6.059548778107736,0.0856102718649753
7.922864,6.065464428406239,0.085377567391533
7.925251999999999,6.068726351652266,0.085154995632633
7.927632,6.074269914898432,0.0848996543627452
7.930036,6.078882312584819,0.0846506015883246
7.93242,6.080421674338151,0.0844341689857748
7.9348,6.087827568703873,0.0841700215321789
7.937195999999999,6.091229261576761,0.0839439086786772
7.93958,6.096772824822927,0.0836914671687227
7.941960000000001,6.098312186576258,0.0834757168155514
7.944363999999999,6.103436440941843,0.0832460822713036
7.946748,6.109771400120927,0.0829959660831386
7.949127999999999,6.118760086352485,0.0827369655457682
7.951531999999999,6.126026211091348,0.0824804290012939
7.953916,6.131290235083792,0.082240385456938
7.956295999999999,6.134272619076099,0.0820342048634861
7.958696000000001,6.130829391948574,0.0819054816051347
7.961084,6.127106625567331,0.0817918821333742
7.96346,6.123104319932367,0.0816933786693676
7.965864000000001,6.117891309483903,0.0816153802241905
7.968252000000001,6.113981551647555,0.0815569240829142
7.970643999999999,6.112865290490544,0.0814827113560925
7.973047999999999,6.112959734147029,0.0813882038742104
7.975432,6.1115639337362975,0.0813291123671143
7.977811999999999,6.111239068512202,0.0812576043274037
7.980215999999999,6.113567930340584,0.0811786040856391
7.982603999999999,6.114825856982326,0.0811126544563198
7.984984,6.117946114743623,0.081037012080743
7.987388,6.12185776843784,0.0809641420627278
7.989776,6.130984328438389,0.0808387272801823
7.992156,6.138667866199963,0.0807019069487625
7.994552,6.145932095080957,0.0805869233263476
7.996936000000001,6.152544697655889,0.0804625959680118
7.99932,6.163021732096799,0.0803128867747657
8.001715999999998,6.1787136728440375,0.0801112215378635
8.004100000000001,6.194405613591279,0.0799087222595379
8.00648,6.216523165458351,0.0796336360832689
8.008883999999998,6.241993292512199,0.0793187913046039
8.011272000000002,6.266672023633127,0.0790010330883337
8.013652,6.291630294007778,0.0786695218754746
8.016055999999999,6.313003671770173,0.0783488263266601
8.018443999999999,6.33558775434607,0.0780137170131942
8.020824000000001,6.361896499161078,0.0776656765232672
8.023223999999999,6.384480581736973,0.0773338401341099
8.025611999999999,6.403851858752954,0.07703623582219
8.027992000000001,6.4212210350225165,0.0767558427069248
8.030396,6.433934383493187,0.0764970739464187
8.032784,6.448929371963996,0.0762115849587589
8.035163999999998,6.462853425248167,0.0759380609215149
8.03756,6.473704442599282,0.0756934779237787
8.039943999999998,6.490421992562787,0.0754153538140148
8.042324,6.510771656966789,0.0750869819377611
8.044728,6.530050386184151,0.0747695739125068
8.047115999999999,6.546535618722179,0.0744651986139572
8.049492,6.565162721633484,0.0741450462203221
8.051888000000002,6.588073565291342,0.0737858012236056
8.054276000000002,6.609122077829644,0.0734366778500985
8.05666,6.62802871999467,0.0731116753936225
8.059052000000001,6.649077232532973,0.0727677306200858
8.061436,6.672127845817691,0.0724131336621379
8.063816,6.700672904662463,0.0720053470450185
8.066220000000001,6.723351430894845,0.071631386317245
8.068608000000001,6.741094590074614,0.0712891459306864
8.070984,6.762841950747218,0.0709207199988768
8.073388000000001,6.790363296233594,0.0704872908983944
8.075776000000001,6.816581389107856,0.0700339883374422
8.078156,6.844801582728534,0.0695660588071548
8.080556000000001,6.867667100416019,0.0691477354229536
8.082944000000001,6.888810056610808,0.0687279068536097
8.08532,6.9090218472458185,0.0683115713588592
8.087727999999998,6.916941494148607,0.0679834742173327
8.090112000000001,6.922579501051259,0.0676833643309385
8.092492,6.929288443140549,0.0673738834823726
8.094895999999999,6.939582277842092,0.0670609366694454
8.097283999999998,6.940517235117609,0.0668178779538734
8.099664,6.936237286086793,0.0666145712942335
8.102060000000002,6.9335401289218135,0.0664192114526321
8.104444,6.927769935823778,0.0662443306363606
8.106824,6.92372230421844,0.0660713947131257
8.109228000000002,6.916601636680047,0.0659188835199614
8.111612000000001,6.9069197898877945,0.0658030111351226
8.113992,6.898169108655322,0.0656839415527006
8.116396000000002,6.889278657795988,0.0655708662732758
8.118784000000002,6.878386106190238,0.0654687889687076
8.121164,6.8646528360769095,0.0654150068665255
8.123567999999999,6.85008094820242,0.0653985809999921
8.125952000000002,6.838302557007266,0.0653746643357024
8.128332,6.82787464025247,0.0653294858846106
8.130735999999999,6.824384191296703,0.0652493933679402
8.133120000000002,6.82326793013969,0.0651813389764811
8.1355,6.82843751047565,0.0650675354523578
8.137896000000001,6.833607090811608,0.0649543533912596
8.140284000000001,6.84250133338668,0.0648333618731045
8.142664,6.849673014469055,0.0647115429696995
8.145067999999998,6.866855199283514,0.0645375793896466
8.147452000000001,6.887250189657891,0.0643389865260779
8.149832,6.908064488912846,0.0641243813564679
8.152235999999998,6.931812054473997,0.0638973320435227
8.154623999999998,6.951555418542314,0.0636918897146688
8.157004,6.973300883357047,0.0634769636063525
8.159400000000002,6.992904477798504,0.0632782671059085
8.161784,7.018234835225492,0.063062919324581
8.164179999999998,7.046777998212395,0.0628246409039446
8.166576,7.079185593065271,0.0625742922293334
8.168963999999999,7.110801791985231,0.0623205447684
8.17134,7.1480522060921015,0.0620165246243631
8.173739999999999,7.182369353892778,0.0617257116149188
8.176127999999999,7.220550933559428,0.0614243307171776
8.178508,7.251934815053908,0.0611507484559285
8.180903999999998,7.280944508749634,0.0608652661423167
8.183288000000001,7.315169108751694,0.0605525441723599
8.185672,7.344458341701141,0.0602590561923123
8.188064,7.370302451665194,0.0599636561166773
8.190452,7.392282129763275,0.0596802385798111
8.192848000000001,7.40653294412941,0.0594222382617619
8.195239999999998,7.417850492189348,0.059174903768162
8.197628000000002,7.423161738010036,0.0589536129425648
8.200008,7.423956925658692,0.0587329006803439
8.202411999999999,7.4254509614416495,0.0584826429787864
8.204795999999998,7.423220334985493,0.0582373794005599
8.207176,7.4247615925966945,0.0579478284435273
8.209579999999999,7.420995396102946,0.0576553542297106
8.211967999999999,7.411362666996808,0.0573812149651435
8.214348000000001,7.396282714158858,0.0571082470468051
8.216752,7.378688803895296,0.0568258717044672
8.21914,7.356811152885179,0.056571195806476
8.221520000000002,7.339217242621617,0.0562891305298902
8.223911999999999,7.315896569372524,0.056018462425309
8.226299999999998,7.294577996869846,0.0557388022134933
8.228676,7.276611999553945,0.055432913697787
8.231084,7.249426894438879,0.0551689427710049
8.233467999999998,7.226385760443505,0.0548826691846646
8.235848,7.199060885701578,0.0546208567815866
8.238252,7.175740212452484,0.0543430331581282
8.240635999999999,7.156563510323085,0.0540435142790321
8.243016,7.137107268939964,0.0537539086147794
8.245411999999998,7.124448725729012,0.0534467816494545
8.247800000000002,7.117656715130453,0.0531228233151802
8.250184,7.112167957144008,0.0528206598058018
8.252579999999998,7.108541530277118,0.0525157187077404
8.254964000000001,7.098629261917259,0.052242706237878
8.257359999999998,7.091230950983015,0.0519791157383838
8.259756,7.087697071914742,0.0517062097138402
8.262144,7.085606215085447,0.0514484199692101
8.264524000000002,7.087891646801322,0.0511996387708613
8.266919999999999,7.092318948890475,0.0509385581871556
8.269303999999998,7.090600179113518,0.0507037227941201
8.2717,7.092745841202533,0.0504611144324684
8.274096,7.092749632918272,0.0502304629881537
8.27648,7.087258979073958,0.0500361564796758
8.278860000000002,7.08377042597606,0.0498338650153225
8.281264,7.079210937691524,0.0496374735091526
