Time,Force,Position
6.716403999999999,1.860574415173784,0.1760302079014266
6.718791999999999,1.932070109100788,0.1750366343667583
6.721188,1.995699065526854,0.1743887092192988
6.723584000000001,2.056628968930072,0.1737372534549557
6.725968,2.1148598193104404,0.1729645343505506
6.728351999999999,2.1698797599887625,0.1720184246140628
6.730748,2.218383437606507,0.1711405855182226
6.733136,2.2571580466037555,0.170545036147195
6.735515999999999,2.287087530712045,0.1703189444675479
6.737912,2.315481444782741,0.1700011221926437
6.740295999999999,2.340896766576869,0.1695908686520054
6.757019999999999,2.4048959141974025,0.1695328230328316
6.764183999999998,2.4242123859536626,0.1694584713414346
6.766579999999999,2.4323114408800777,0.1694283857091179
6.768967999999999,2.443483531739549,0.1692217573280952
6.771364,2.450791190733045,0.1692199740665123
6.773759999999998,2.460612807152158,0.1691397411231781
6.776144,2.474438625064103,0.1688621582994201
6.778528,2.488543982229768,0.1685472142191315
6.780924000000001,2.50586214495535,0.1680381172126427
6.783308,2.5254619476810687,0.167374146499753
6.785687999999999,2.549485260780201,0.1664802530275322
6.788084,2.579282558693108,0.1652499568871842
6.790471999999999,2.6012112232472067,0.1643974440928224
6.792851999999998,2.621185008883133,0.1635048225886839
6.795252,2.641578103399638,0.1625541484787157
6.79764,2.664485155341758,0.1615053938249806
6.800036,2.6928394310156887,0.1602642834254127
6.802431999999998,2.7231958074360363,0.1589486098626246
6.804816000000001,2.759278946841913,0.1573836692806739
6.807195999999999,2.7915902021804344,0.1561037324421278
6.809599999999998,2.8208284215859,0.1549884400012604
6.811984000000001,2.8522085113646423,0.1537884134648739
6.814363999999999,2.8842874492776858,0.1525345520090583
6.816767999999998,2.907985897152724,0.1515883205621611
6.819152000000001,2.932475740960681,0.1506130301362699
6.821532,2.9521699873428857,0.1498460650984262
6.823939999999999,2.9672084059261987,0.149279496684704
6.826323999999998,2.978801701524119,0.1488096831794734
6.828704,2.988672435629343,0.1483917975785765
6.835868,2.99421220715977,0.1482780525588408
6.838264000000001,2.995655229398746,0.1482696379241778
6.840652,3.000543374623116,0.1481672623510612
6.843031999999999,3.006083146153542,0.1480719640610613
6.8549880000000005,3.0114378220867346,0.1478217142300394
6.857372,3.013906453541975,0.1475974058286595
6.859768000000001,3.014652523504519,0.1474172240819534
6.862156000000001,3.012977183840066,0.1473634352428945
6.864535999999999,3.0153985934670637,0.147234366652008
6.866932,3.0195425645867573,0.1470647723226656
6.86932,3.028761672385923,0.146699970451657
6.8717159999999975,3.037980780185089,0.1463365294714726
6.921887999999997,3.1655220240066813,0.1461713747187523
6.924283999999998,3.178603667813952,0.1459469011074066
6.926671999999998,3.1922443901286632,0.1456572747949673
6.929052,3.2104011706154054,0.1452422990051284
6.931444000000001,3.2270677070349296,0.1449251152952484
6.933832000000001,3.2435944738275926,0.1446282863235363
6.9362239999999975,3.2641726639413324,0.1441130495202031
6.938619999999999,3.2806068829353787,0.1437534273607064
6.941007999999998,3.297041101929425,0.1433938052012097
6.943388000000001,3.315197882416168,0.1430031828603609
6.945791999999999,3.33498467659699,0.1425097031386317
6.948175999999998,3.352676822232778,0.1420338016858216
6.950556000000001,3.370788276749147,0.1415094343165709
6.952959999999999,3.394486724624185,0.1408330779839247
6.955347999999999,3.4211184388054194,0.1400556228266432
6.957727999999998,3.447657605188036,0.139220921833693
6.960127999999999,3.468749547838843,0.1385397023068732
6.962511999999999,3.485837288996816,0.1379820471234779
6.964892000000001,3.5066496923939026,0.1373342686416891
6.967295999999999,3.526810469484931,0.1366767259300345
6.969683999999999,3.546040081016182,0.1360572042864931
6.972063999999998,3.56061386474854,0.1355593673656212
6.974459999999999,3.573185547734482,0.1351248563381113
6.976847999999999,3.58924957553406,0.134563823838738
6.979228000000001,3.6070833866545775,0.1338956788394764
6.981631999999999,3.6216118444165626,0.1332688275030408
6.984015999999999,3.6290630647526574,0.1328629261982421
6.986395999999997,3.640658256208448,0.1323230293632827
6.988804,3.654255548410655,0.1317292120669639
6.991187999999999,3.665478652814107,0.1311617468851226
6.993567999999998,3.6728373253515856,0.1306964491729346
6.995968,3.6777745882620665,0.1303359226912572
6.998351999999999,3.682572081545688,0.1299901710632665
7.000735999999998,3.683924451843916,0.1297027191097031
7.003131999999999,3.68290263434339,0.1294346905754081
7.005519999999999,3.678528241656088,0.129286848237172
7.007899999999998,3.676528036767541,0.1291192653932481
7.010304,3.679742738185325,0.1287892893929354
7.012687999999999,3.676019971804081,0.1286488173648334
7.015067999999998,3.674950932475313,0.1284599665209014
7.017472,3.6714604835195455,0.1283703510136347
7.01986,3.671834466429752,0.128182765920063
7.022239999999998,3.677143816392571,0.1278660044774271
7.027023999999999,3.668904991839295,0.1278117317713732
7.029403999999998,3.668532904786957,0.1277756292673357
7.031803999999999,3.671605940720013,0.1276864256325539
7.034187999999999,3.675098285533649,0.1275577700432917
7.036571999999998,3.67579713366795,0.1274885146217526
7.038967999999999,3.676728299227728,0.1274689486909596
7.041351999999998,3.679661565533924,0.1273958277223872
7.043747999999999,3.683014140720699,0.127281001834992
7.0461480000000005,3.686226946280615,0.1271799651190679
7.048536,3.6887409037062295,0.1271481821341262
7.050915999999999,3.696702084863654,0.1270132081186596
7.053312,3.706805136394355,0.1268089083020369
7.0557,3.7141146912457215,0.1266642975520474
7.058083999999999,3.720073771656729,0.1265838516424737
7.060476,3.732178923933847,0.1263288708858574
7.062863999999999,3.7402798747181314,0.1261795928080064
7.065243999999998,3.751453861435471,0.125943415391046
7.067644,3.7635590137125896,0.1256948667159654
7.070031999999999,3.771520194870014,0.1255671925557993
7.072411999999998,3.78413720382633,0.1253412912168146
7.074807999999999,3.793029550543532,0.1251893344309682
7.077191999999998,3.800478875021759,0.1250359266604205
7.079587999999999,3.810349609126983,0.1247936650634309
7.081984,3.817239855097768,0.1246985434784169
7.084372,3.826504288867308,0.1245882641156438
7.086751999999999,3.8379105930101263,0.124414937009634
7.089148,3.8508996890187785,0.1242334789529563
7.091531999999999,3.862258771333353,0.1241356746627482
7.093915999999998,3.873757623274787,0.124024081201069
7.09632,3.8886090504029966,0.1238035746577558
7.098704,3.9008067504787314,0.1236315818707865
7.101087999999999,3.91072281055433,0.1235330558107752
7.103484,3.922920510630065,0.1233591160987614
7.105872,3.9341870451460217,0.12320416977746
7.108251999999999,3.945174040408258,0.1230795526192087
7.110643999999999,3.959234071603551,0.1228739336440646
7.113031999999999,3.977298304291677,0.1225842491448115
7.115423999999999,3.992569040300467,0.1223504875153504
7.11782,4.009190250749616,0.1220640275744247
7.120208,4.028884497131822,0.1217103823107059
7.122587999999999,4.056307607245973,0.1212052828936376
7.124992000000001,4.0875951492260985,0.1206359118328048
7.1273800000000005,4.115809655273168,0.1201473091859365
7.129759999999999,4.141649973521484,0.1196584313769221
7.132156,4.166187039157684,0.1191565933467577
7.134544,4.186999442554771,0.118717952528262
7.136923999999999,4.210233255578856,0.1182126405710399
7.139328000000001,4.235236851923879,0.1176178821062223
7.141716000000001,4.260240448268903,0.1170231236414047
7.144095999999999,4.282310778307732,0.1164894123052043
7.146499999999998,4.304892965025758,0.1159828573074896
7.148887999999998,4.332550288423256,0.115366508489052
7.151268,4.361930173313451,0.114744352697888
7.153671999999999,4.392101454136563,0.1141204988272092
7.156055999999998,4.420689943093841,0.1135092268048172
7.158440000000001,4.451560072051255,0.1128467932985805
7.160835999999998,4.474841106903582,0.1123191677190806
7.215776,4.328068355692871,0.1118878668906229
7.218171999999997,4.3292790605063685,0.1118520133595446
7.220560000000001,4.3340746579321205,0.1117733034648948
7.222939999999999,4.3453884142763215,0.1116029655416029
7.225336,4.357773105807159,0.1114115445661746
7.227724,4.368295466218442,0.1112448703083244
7.230103999999999,4.37481362513689,0.1111549681697033
7.232504,4.387058547040869,0.1109750418584297
7.234888,4.4022367352510425,0.1107481352110753
7.237271999999999,4.415924679393997,0.1105797359223685
7.239668,4.428401918723452,0.110448591674181
7.242056,4.445814525105519,0.1102321543343016
7.244452000000001,4.4642980666742265,0.1099937183416473
7.246847999999998,4.483712773802711,0.109738481962353
7.249235999999998,4.504058646490973,0.1094727990795429
7.251616,4.527337785485432,0.1091562613384699
7.254011999999998,4.553829730039805,0.1087660986890166
7.256399999999997,4.583534480154094,0.10830320148665
7.25878,4.612727373589185,0.1078315789707334
7.261176000000001,4.637124669598524,0.1074430190501933
7.263567999999998,4.661801504861584,0.1070401905174718
7.265948,4.684523461206471,0.1066136033387022
7.268351999999998,4.707385187178217,0.1061786890562225
7.270739999999998,4.72158688385824,0.1058710038392867
7.27312,4.733786479791844,0.1055997579569876
7.275523999999999,4.747848406845006,0.1053037653571104
7.277907999999998,4.762050103525026,0.1049977163635769
7.280291999999997,4.771735742033017,0.1047382858307479
7.2826879999999985,4.776625783115255,0.1045475314327856
7.285075999999998,4.782866298637852,0.1043148626197248
7.287456000000001,4.786453087107974,0.1041055202424879
7.289855999999999,4.783242177405928,0.103996223336701
7.292239999999998,4.780310806957602,0.1038662122429519
7.294624000000001,4.780452472442332,0.1036817721322393
7.297019999999998,4.779662972367283,0.1035090008207305
7.299407999999998,4.78115511229237,0.103284992319538
7.301792000000001,4.784789122590736,0.1030216155198966
7.304187999999998,4.787352197702464,0.1027799557421414
7.306575999999998,4.785771301694496,0.1026108979221561
7.308956,4.786983902365864,0.1024117335078381
7.311351999999998,4.785123467104177,0.1022638194298598
7.313739999999997,4.783123262215629,0.1021258579306172
7.31612,4.782613301394301,0.1019392469777925
7.318516000000001,4.787178477252445,0.1016717393119513
7.320904,4.793885523483865,0.1013666603311064
7.323299999999998,4.803805375275203,0.1010059279284939
7.325695999999999,4.8146563926263175,0.1006370157664757
7.328079999999998,4.830442777030044,0.1002009103318871
7.33046,4.851164528486383,0.0996995238922039
7.332859999999998,4.871606740689001,0.0992212342522278
7.335243999999998,4.894051053638036,0.0987133037141276
7.337628,4.924363999945879,0.0980973132134656
7.340023999999998,4.953466241440221,0.0975150568383887
7.342408000000001,4.977121259202756,0.0969787702532367
7.344803999999998,4.999845111405512,0.0964516896359288
7.347208,5.017354057301935,0.0960126345408778
7.349596,5.02806530502619,0.0956583522208896
7.351975999999999,5.035563747190528,0.0953583740039273
7.397363999999998,4.871650345419994,0.0952632552529183
7.399751999999998,4.876166403592025,0.0952302124576788
7.402147999999999,4.881753396950694,0.0951793441175716
7.404544,4.895441341093648,0.0950690021492014
7.406931999999999,4.908290667475441,0.0950166085757373
7.409315999999999,4.920860454603514,0.0949835917240854
7.411712,4.943580515090531,0.0948081559207237
7.414099999999999,4.960713582218879,0.0946829371622803
7.416479999999998,4.977706879720365,0.0945668263464427
7.418888000000001,4.999495774647603,0.0943992621326268
7.421272,5.023147000694401,0.0942145233411438
7.423651999999999,5.04521543487536,0.0940294971155237
7.426052,5.069425739429596,0.0938085843065705
7.428436,5.094846748797332,0.0935650903074977
7.430819999999999,5.121897771859145,0.0932700433308989
7.433216,5.1510906652942365,0.0929465684666824
7.435599999999999,5.181773802796548,0.0925757614818916
7.437983999999998,5.206590407686468,0.0922771236174514
7.440379999999999,5.235411214069224,0.0919336777764661
7.442767999999999,5.267724365265613,0.0915269796647908
7.445147999999998,5.293379587916695,0.0911887591383254
7.447552,5.321316450567913,0.090817862650162
7.44994,5.349812391726573,0.0904163851860469
7.4523199999999985,5.378355554713476,0.089968677082925
7.45472,5.4035933643418455,0.0895206088889106
7.457103999999999,5.428459086917877,0.0890472577868872
7.459483999999998,5.449320608001076,0.0886249920327221
7.461883999999999,5.475117496136887,0.0881489339749976
7.464267999999999,5.5014734627801385,0.0876396689852752
7.466647999999997,5.527177803117334,0.0871282918941626
7.469056,5.552230517148471,0.0866089209646297
7.471444,5.577423000806466,0.0860826676768063
7.473823999999999,5.603965958904821,0.0855309698139476
7.47622,5.625154241069984,0.0850527652322662
7.478607999999999,5.643549026555812,0.084597233037066
7.480987999999998,5.655797740175529,0.0842133852483521
7.483383999999999,5.669257158608744,0.0838087020251391
7.485771999999999,5.685929382601875,0.0833626152703196
7.488151999999998,5.698085548422974,0.0829428472109958
7.490547999999999,5.703164476818185,0.0825975971926249
7.4929359999999985,5.708662714093977,0.0822270143011464
7.495319999999998,5.711227685063573,0.0818861843999906
7.497715999999999,5.709508915286616,0.0815997839723073
7.5001039999999985,5.703366635136243,0.081376407732827
7.502499999999999,5.700157621292067,0.0811270526007029
7.504896,5.695877672261251,0.0808910580902585
7.50728,5.691597723230435,0.080655057647226
7.5096599999999984,5.6894596445728975,0.0803936583423782
7.51206,5.687042026661639,0.0801483855514363
7.514448,5.681551372817324,0.0799352473427861
7.5168279999999985,5.676060718973009,0.0797220116037695
7.519223999999999,5.672432396248252,0.0794990900482733
7.521611999999999,5.6655912679635785,0.0793151538050738
7.523991999999998,5.663173650052319,0.0790711093625314
7.526396,5.662338824006897,0.0788329889947777
7.528784,5.667789839454445,0.0785260431211577
7.531163999999999,5.673240854901993,0.0782210743125375
7.533564,5.674547899229847,0.0779590988960043
7.535952,5.67529586505026,0.0777277276426775
7.538331999999999,5.682841529042842,0.0774470278713905
7.540732,5.687965783408428,0.0772057474308928
7.543115999999999,5.686664426654181,0.0770395411799863
7.545495999999998,5.691229602512324,0.0768284931814551
7.547891999999999,5.699798979863301,0.076582559946332
7.550279999999999,5.712093019453392,0.0763204052241989
7.552676,5.725038685349541,0.0760692198036175
7.555071999999997,5.738915516805467,0.07581437150241
7.557460000000001,5.746226967514704,0.0756424374590363
7.559844,5.753538418223939,0.0754707871798211
7.562239999999997,5.7617810344929525,0.0752944954332389
7.564624,5.770954816321745,0.0751146576862048
7.567007999999999,5.774122295911287,0.0749849235024679
7.569407999999997,5.777941401806887,0.0748660906038799
7.571792,5.778687471769429,0.0747765355671374
7.574176,5.779433541731975,0.0746873473853712
7.576572,5.7769668061346025,0.0746349857451223
7.57896,5.774220531283511,0.0745980763908072
7.581344,5.775618227552113,0.0745211809045415
7.583740000000001,5.778366398261074,0.0744168802098866
7.586128,5.778321072290701,0.0743257336915003
7.588507999999999,5.784282048559577,0.0741870573102412
7.590904,5.79960190225448,0.073957610616558
7.593292,5.8130594248298255,0.0737391031883192
7.595671999999999,5.824514846658756,0.0735375983914047
7.598076000000001,5.833037002181491,0.0733576435067036
7.600464,5.840907531398167,0.0731665201354444
7.602843999999999,5.8470554991221455,0.0729759424494646
7.60524,5.859768847592818,0.0727105178071921
7.607628,5.87848849830274,0.0724050135915094
7.610007999999999,5.8982790841993005,0.0720900138727625
7.612408,5.916067569349444,0.0717904860008861
7.614796,5.9389311911790585,0.0714493041367504
7.617175999999999,5.964355992262533,0.0710666221696161
7.619572,5.992714059652202,0.0706663801047296
7.62196,6.0201409614820935,0.0702713253456831
7.624343999999999,6.046496928125345,0.0698867915430666
7.62674,6.073923829955235,0.0694949702290595
7.629123999999999,6.101210962158266,0.0691154944203872
7.631524000000001,6.128218555107576,0.0687513089379469
7.633919999999998,6.154015443243386,0.0684050048880891
7.636304000000001,6.174876964326585,0.0680908607120357
7.638684,6.19145474466323,0.0678215590769512
7.641083999999997,6.207892755373016,0.0675611147831723
7.643468,6.224470535709662,0.0672943131128331
7.645847999999999,6.239325754553609,0.0670272322085508
7.648255999999998,6.256834700450033,0.0667594296172647
7.650639999999997,6.276345747092873,0.0664800009779467
7.653024,6.293714923362436,0.066223958471156
7.655423999999998,6.302144531086552,0.0660228516485403
7.657811999999998,6.30936343399717,0.0658389216352094
7.660192,6.321517703960401,0.065629363049624
7.662587999999998,6.336745009856687,0.0654013619595152
7.664975999999998,6.349830445379696,0.0651939173635248
7.667356,6.364778212022262,0.0649837895228403
7.669755999999998,6.37772387791841,0.0647846993280505
7.672143999999998,6.389738378254781,0.0645870200786016
7.674524,6.396817511538539,0.0644149483740914
7.676923999999998,6.398821508142825,0.0642750560953502
7.679311999999998,6.405249015120525,0.0640933670590944
7.681692,6.4170311980314185,0.0638683866580247
7.684087999999997,6.43095525131559,0.0636251142739171
7.686476000000001,6.446229779040118,0.0633605815044336
7.688855999999999,6.458710810085311,0.0631026716483381
7.691255999999997,6.469049970757228,0.0628620815232715
7.693644000000001,6.479249361802286,0.0626279073991248
7.696023999999999,6.491870162474339,0.06236621732117
7.698423999999997,6.5050028198255925,0.0621240545997091
7.700808,6.518275246803705,0.061877026732757
7.703203999999998,6.536483040834428,0.0616070260359702
7.705599999999999,6.556041309305511,0.0613166105400194
7.707983999999998,6.569593275537345,0.0610588116873731
7.710368000000001,6.577930335462844,0.0608380140389801
7.712763999999998,6.585196460201705,0.0606255427677845
7.715147999999997,6.589529318634374,0.0604260789818272
7.717532,6.598145917813594,0.0601943717018353
7.719927999999998,6.615050459232203,0.0599133540898787
7.722315999999997,6.637961302890061,0.0596040558905032
7.724707999999998,6.667157988040891,0.0592540264477742
7.727103999999999,6.691931162818307,0.0589457937625598
7.729491999999999,6.712420596849169,0.0586722135030352
7.731871999999997,6.736774462746004,0.0583896325422371
7.734267999999998,6.758846688642701,0.0581292987633995
7.736655999999998,6.785062885659093,0.0578462473019299
7.739036,6.815283284168318,0.0575460400248734
7.741431999999998,6.848297179356878,0.0572429970753019
7.743816000000001,6.871021031559634,0.0569963898895218
7.746211999999998,6.893093257456331,0.0567403746368839
7.748607999999999,6.911812908166254,0.056512828691189
7.750995999999999,6.925597191823563,0.0563038030775756
7.753375999999998,6.9391019362271535,0.0561083119800087
7.755771999999999,6.957681817310215,0.0558894791798126
7.758159999999998,6.976261698393277,0.0556699900735544
7.760540000000001,6.993630874662839,0.0554629960177136
7.762935999999998,7.010068885372624,0.0552572439091149
7.765323999999998,7.026087587201828,0.05507199678453
7.767708000000001,7.031676476418366,0.0549472238266498
7.770103999999998,7.0351234952616295,0.0548375346762677
7.772491999999998,7.036149104477893,0.0547545578268481
7.774872,7.037454252947879,0.0546596504193769
7.777267999999998,7.037548696604365,0.0545775574271934
7.779655999999997,7.034709873954657,0.0545047155032374
7.782051999999998,7.034012921678227,0.0544182205482834
7.784447999999999,7.031685955707714,0.0543624958699192
7.786835999999999,7.029498759364063,0.0543011434200963
7.789215999999998,7.024518066341077,0.0542421927383935
7.791611999999999,7.0304790426099535,0.0541453252270243
7.793999999999999,7.034577687759272,0.0540502182324068
7.796383999999998,7.040818203281869,0.0539416218445852
7.798779999999999,7.050131754737524,0.0538187301206411
7.801167999999999,7.056651809513841,0.0536980492781188
7.803547999999997,7.059027893170465,0.0535983205746175
