Time,Force,Position
6.470232,2.249919223320261,0.1912380745410004
6.472611999999999,2.364900159303126,0.1860991787903095
6.475008,2.467590847411638,0.182617179784203
6.477396,2.5663717776838038,0.1791179329197335
6.479776,2.6622213375076424,0.175749724109268
6.482171999999999,2.7568167624054785,0.172184169432186
6.484559999999999,2.845734542003896,0.1688447481960878
6.48694,2.923293239287741,0.1661780494438314
6.489335999999999,2.9952196172425407,0.1636126665789644
6.49172,3.057416926576846,0.1613769256671454
6.494103999999999,3.109420532439703,0.159289864319683
6.496508,3.151974608935785,0.1575073782285896
6.594459999999999,3.376470298591013,0.156929306014135
6.596859999999999,3.3767970596729766,0.1568118416894626
6.599248,3.380476395941716,0.15654572374168
6.601627999999999,3.3842955018373155,0.1562697328589626
6.604024,3.391280191464588,0.1559448346426626
6.606412,3.404783040010308,0.1554246398271835
6.608792,3.4227093989294426,0.1547315138030282
6.611192,3.440123901169379,0.1540186413160573
6.61358,3.4563276985958167,0.1533611378534485
6.61596,3.4654542585963664,0.1529512975140172
6.618356,3.479376416022667,0.152392839503305
6.620743999999999,3.493717882329549,0.1517845227521685
6.623128,3.5086184271438703,0.1511149613766406
6.625524,3.526312468637528,0.1503571503113386
6.627911999999999,3.549313964236135,0.1494725485199299
6.630292,3.575108956514077,0.1485392505537449
6.632692,3.601183488045739,0.147606864411012
6.635079999999999,3.621810795845591,0.1468089453029186
6.63746,3.647233701071196,0.145870701559423
6.639855999999999,3.673820089282056,0.1449441441364797
6.642243999999999,3.703339743799111,0.1439365820655848
6.644635999999999,3.727691713838076,0.1430601012483886
6.647032,3.746316920891512,0.1423521601688813
6.64942,3.757445581638478,0.1419132646382861
6.651803999999999,3.768714012012304,0.1414626609586085
6.6542,3.77588569309468,0.1410792018550848
6.656584,3.775747819325688,0.140874328948978
6.658967999999999,3.7761218022358953,0.1406892025056868
6.661371999999999,3.777659268131358,0.1405285200515789
6.663756,3.789067468132044,0.1400713464483264
6.666135999999999,3.7942370484680032,0.1397528041445959
6.668532,3.801548499177239,0.1393615156372373
6.67092,3.8084406410058937,0.1390147970398172
6.6733,3.814773704327108,0.1387257824974637
6.694816,3.793407909996188,0.1387234702325107
6.697212,3.801508860780472,0.1385544720670635
6.699599999999999,3.808678646004978,0.1384081166048937
6.70198,3.81729145346846,0.1382601726572574
6.704384,3.831723571716089,0.1380312089337851
6.706767999999999,3.848018021083276,0.1377620584187171
6.709148,3.8667338800774593,0.1373971697439279
6.711552,3.879303667205532,0.137219386976563
6.71394,3.897180908438554,0.1369431828081589
6.716319999999999,3.915709775977634,0.1366824862425666
6.718716,3.935449348330213,0.1363779952996202
6.721099999999999,3.9566791647500112,0.1360021080996287
6.72348,3.9768380459831705,0.1356637488239395
6.725884,3.998999027962747,0.1352632904850578
6.728272,4.02437281550224,0.1347529779500054
6.730652,4.046581019310058,0.1342914095434255
6.733056,4.06813759681182,0.1338238601026042
6.735444,4.088343699873223,0.133423615091766
6.737823999999999,4.110971212561623,0.1329280181156135
6.74022,4.134157803757464,0.1323848873745187
6.742608,4.152968106408133,0.1319137186851267
6.744988,4.169776308312386,0.1314971900390641
6.747391999999999,4.187375906149557,0.1310753537324847
6.749776,4.204184108053811,0.1306609479697877
6.752156,4.217826726226392,0.1302778655722389
6.754552,4.23254027958561,0.1298717248712464
6.756939999999999,4.2455312714521325,0.12949413160654
6.759324,4.263737169624988,0.1289820191698898
6.76172,4.280500045558867,0.1284766253107844
6.764103999999999,4.2896738273876585,0.1281208550737288
6.766483999999999,4.29963900514937,0.1277644088161573
6.768888,4.308393478097582,0.1274512550006313
6.771275999999999,4.316588872538351,0.1271857212048384
6.773656,4.331721734778151,0.1267720878711681
6.776051999999999,4.34778576257773,0.1263442815117175
6.778439999999999,4.358634884070975,0.1260471665588287
6.780824,4.371905415191218,0.1256736683595957
6.783219999999999,4.386386651124959,0.1252653852659569
6.785607999999999,4.405523714857593,0.1247871449803965
6.787988,4.423450073776727,0.1243504549486397
6.790383999999999,4.447522504561973,0.1237809421665094
6.792768,4.472805640160717,0.1231752310425152
6.795167999999999,4.49943925019982,0.1225274839221053
6.797563999999999,4.529565205052559,0.1217897706916213
6.799952,4.555267649531884,0.1211584318630521
6.802331999999999,4.574172395839041,0.1206539177350973
6.804735999999999,4.592937372519335,0.1201625620317833
6.86446,4.532377660310586,0.1198173213297929
6.866839999999999,4.537405575161816,0.1197782204632762
6.869236,4.543364655572823,0.1197242586973292
6.871624,4.551465606357106,0.1196215976723177
6.874004,4.561708427514668,0.1194725967375056
6.876407999999999,4.573022183858869,0.1192977253924904
6.878792,4.590062703188599,0.1190293754132191
6.881175999999999,4.6120385895709415,0.1186692598346027
6.883572,4.633734936699563,0.1183333743281986
6.885955999999999,4.658736637186718,0.1179741335647691
6.88834,4.684250194353071,0.117628444502889
6.890731999999999,4.709112125213364,0.117269245440592
6.893119999999999,4.732391264207822,0.1169110249019632
6.895516,4.749803870589889,0.1166641287693518
6.897911999999999,4.767775555479397,0.1163767260567824
6.900296,4.785607470742047,0.1161049887186596
6.902679999999999,4.801577054885138,0.1158635483525158
6.905076,4.817034782349032,0.1156049934181152
6.90746,4.839709516865676,0.1151989834328983
6.909855999999999,4.854515618023512,0.1149372846026551
6.912259999999999,4.869042179927628,0.1146991764956083
6.914647999999999,4.877841978846212,0.1145513953299234
6.917027999999999,4.8917169144442685,0.1143103792121238
6.919424,4.902938122989852,0.1140990215610057
6.921812,4.910294899669462,0.1139501901724361
6.924191999999999,4.9191419204162905,0.1137490060788878
6.926588,4.926685688551004,0.113535083850101
6.928976,4.934508995939437,0.1133043781183842
6.931356,4.94396231702195,0.1130150121338795
6.933756,4.950250054372789,0.1127327552054296
6.936144,4.962172006910543,0.1123269411693832
6.938524,4.981450736127906,0.1117888943370728
6.940919999999999,5.003942270905184,0.1111866688832449
6.943307999999999,5.02857567605574,0.1105400207064595
6.945692,5.051998376392797,0.1099285082994126
6.948095999999999,5.072767349677379,0.1093431212204318
6.95048,5.092605157402183,0.1087685067749961
6.952863999999999,5.113374130686764,0.1081864538121004
6.95526,5.129766815426175,0.1076470297086904
6.957648,5.147649744232805,0.1070550925312663
6.960028,5.165672442666295,0.1064569601422757
6.962424,5.184626306659564,0.105843495979422
6.964811999999999,5.199995278040579,0.1052716719045832
6.967192,5.2161556453545135,0.1046987581491031
6.969592,5.230174142295169,0.1041610867884993
6.971975999999999,5.243913099982106,0.1036467158583855
7.024536,5.065714933022278,0.1032782046190435
7.026932,5.065854702649139,0.1032686205394503
7.029319999999999,5.070929839328611,0.1031899710262247
7.0317,5.075865206381223,0.1031202753220234
7.034095999999999,5.084804774926669,0.1029909715105803
7.03648,5.097608775338086,0.1028136015760908
7.038875999999999,5.102544142390698,0.1027447985095827
7.041272,5.105337639070033,0.1027146972340594
7.055608,5.092442986717868,0.1026805529696448
7.057996,5.089696711866776,0.1026534379153133
7.060375999999999,5.099661889628486,0.1024068771172596
7.062772,5.106181944404804,0.1021805114073362
7.06516,5.120989941420509,0.101825788162216
7.06754,5.14501704623538,0.1013335521531124
7.069943999999999,5.162805531385523,0.100890293821487
7.072328,5.180733786162528,0.1004422091790938
7.074711999999999,5.201874846499448,0.0999469054115917
7.077108,5.217289143850836,0.0995172757027418
7.079491999999999,5.2369871819487805,0.099019720802835
7.081876,5.256824989673582,0.0985193513636231
7.084272,5.272006969599496,0.0980640689986062
7.086659999999999,5.295337122137936,0.0974986335947061
7.089056,5.324021950609568,0.0968502453840643
7.091447999999999,5.349493973521284,0.0962593398249487
7.093835999999999,5.375897161992779,0.0956559306980285
7.096215999999999,5.408958279009583,0.0949859634526917
7.098615999999999,5.446814993452138,0.0942644300092475
7.101,5.485602873454472,0.0935396668858054
7.103383999999999,5.524390753456804,0.0928181807734521
7.10578,5.56238723752622,0.0921074344623566
7.108168,5.588882973796332,0.0915692107381463
7.110547999999999,5.618172206745779,0.0910087567146881
7.112944,5.641594907082836,0.0905225322929589
7.115336,5.660594097046478,0.0901157187737749
7.117715999999999,5.682107244435737,0.089702092995184
7.120112,5.701338751824856,0.089329160625738
7.1225,5.714703726601584,0.089018231399467
7.124895999999999,5.730070802124731,0.0886843968375577
7.127292,5.742364841714822,0.0883912063220713
7.129684,5.7500030535060205,0.0881325587377044
7.132063999999999,5.762297093096112,0.0878413811517042
7.134463999999999,5.7712385574994265,0.0876066040837277
7.136852,5.778969317089242,0.0873977900657562
7.139231999999999,5.787771011865698,0.0871751829023656
7.141631999999999,5.799785512202068,0.0869106870872872
7.14402,5.804862544739409,0.0867139261852292
7.146399999999999,5.806075145410778,0.0865503512285658
7.148799999999999,5.805145875708869,0.0864153497718393
7.151188,5.804728462686157,0.0862983116173336
7.153567999999999,5.798304747424195,0.0862422804474553
7.19658,5.815018505671961,0.0861826917643946
7.198975999999999,5.827216205747698,0.0861476844510441
7.201363999999999,5.8462116039956005,0.0860558506877485
7.203744,5.870421908549838,0.0859055364056308
7.206136,5.894911752357794,0.0857396915429773
7.208524,5.9215434665390285,0.085547819941298
7.210904,5.942308648107871,0.0854051695327113
7.213299999999999,5.9606996418779605,0.0852586632132929
7.215687999999999,5.97843900934199,0.085104195332557
7.218068,5.989008591581515,0.0849787229244266
7.220463999999999,5.997855612328344,0.0848580760228728
7.222848,6.004328445276418,0.0847310847622642
7.225248,6.012291522291713,0.0845683266369139
7.227643999999999,6.02588881449392,0.0843241846824481
7.230031999999999,6.045771948189097,0.0840080655284504
7.232411999999999,6.065003455578217,0.0836815242201254
7.234815999999999,6.084514502221056,0.0833423730747499
7.237199999999999,6.106446958490894,0.082962408117806
7.239579999999999,6.132802925134145,0.0825254318759605
7.241979999999999,6.159438431031117,0.0820813990542671
7.244364,6.182768583569557,0.081643798240368
7.246743999999999,6.199440807562688,0.0812526323216725
7.249147999999999,6.214809778943704,0.0808465759993358
7.251535999999999,6.227525023272245,0.0804527422689442
7.253915999999999,6.239448871667868,0.080056378185127
7.256312,6.250860863384293,0.0796462661044735
7.2587,6.2705607973401065,0.0791583040441935
7.261079999999999,6.290260731295919,0.0786723106840646
7.263483999999999,6.312521844505589,0.0781488208675935
7.265868,6.343722526260705,0.0775600529747156
7.268247999999999,6.372409250590207,0.0769707630118853
7.270651999999999,6.407381816412679,0.0763277636045036
7.273039999999999,6.4427736911157325,0.0756698108643398
7.275419999999999,6.479236501005423,0.07501151534814
7.277815999999999,6.518912116455031,0.0743354133655049
7.2802,6.559938206344997,0.0736368777445221
7.282583999999999,6.599101965115406,0.0729489985406332
7.28498,6.632259421646565,0.0723000501813234
7.287363999999999,6.664206173364225,0.0716763002715047
7.28976,6.688144522096218,0.0711066953664646
7.292155999999999,6.707659360454797,0.0705841677839324
7.294543999999999,6.725032328440098,0.0700775558259478
7.296928,6.740123656425263,0.0695998461465955
7.299323999999999,6.749860308477235,0.0691710524418635
7.301711999999999,6.7605281260889845,0.0687390815186357
7.304092,6.769845469260375,0.0683322061285087
7.306496,6.772085575005878,0.0679758687318708
7.308884,6.770973105564603,0.0676545000447174
7.311263999999999,6.764878047242473,0.0674067944031786
7.313664,6.753428312987154,0.0672081796134211
7.337552,6.529353653451887,0.0671949148150783
7.339932,6.520740845988404,0.0671882157896001
7.342327999999999,6.522138542257005,0.067123751979794
7.344715999999999,6.520323432965693,0.0670859143725035
7.347096,6.5275876618466855,0.0669932336941644
7.349491999999999,6.540858192966928,0.066868511125201
7.351876,6.553197558527393,0.0667462595952406
7.354259999999999,6.568190651140332,0.0666227504596446
7.356656,6.590400750806022,0.0664513050346929
7.359039999999999,6.612098993792512,0.0662617133272848
7.361436,6.634728402338781,0.0660693695598857
7.363831999999999,6.662572717191384,0.0658415962846328
7.366215999999999,6.6919072761112055,0.0655859559126112
7.3686,6.722732079098245,0.065303424802763
7.371004,6.757561083578119,0.0649957032922975
7.373387999999999,6.793740562498352,0.0646619493317252
7.375768,6.825264213619692,0.0643425352421938
7.378172,6.855484612128919,0.0640033940505839
7.38056,6.875322419853722,0.0637008923349751
7.382939999999999,6.895859075712826,0.063366593479541
7.38534,6.914533400452374,0.0630387410320218
7.387723999999999,6.92869166701989,0.0627168026319632
7.390107999999999,6.933118969109042,0.0624364242299529
7.392504,6.944903047877805,0.0621041799890422
7.394887999999999,6.950029198101258,0.0617943002619119
7.397267999999999,6.947146945339044,0.0615263418103345
7.399672,6.943613066270773,0.0612467546958113
7.40206,6.940638265709942,0.0609423540685844
7.40444,6.930865766976944,0.0606629312331878
7.406835999999999,6.923374908244082,0.0603606721318371
7.409223999999999,6.915651732085744,0.0600285962619365
7.411604,6.899268526635678,0.0597226768086815
7.414008,6.881674616372116,0.0594299762751056
7.416396,6.862218374988996,0.0591396603395676
7.418776,6.846673787300093,0.0587961524180287
7.421171999999999,6.835692479611464,0.0584100681852202
7.423559999999999,6.829786308602308,0.057999554753547
7.42594,6.824391994272348,0.0576056621719291
7.428344,6.823793277368141,0.0571993137754759
7.430727999999999,6.824637582702911,0.0568093782453015
7.433111999999999,6.824690492104762,0.0564144080952159
7.435508,6.827397128559087,0.056022109586986
7.437891999999999,6.835039132066025,0.055611439071369
7.440276,6.839328560386186,0.0552304525952842
7.442671999999999,6.843338449452628,0.0548599567391287
7.445056,6.84748810814593,0.0544816855693265
7.447451999999999,6.855222659451485,0.0541063970460835
7.449848,6.865750707436374,0.0537312634804436
7.452236,6.880003417660376,0.0533524830287757
7.454615999999999,6.893836819003798,0.0529927726805309
7.457016,6.908042307399558,0.0526570520120539
7.459404,6.929697120273546,0.0523154974012152
7.461783999999999,6.954424969080587,0.0519613859631465
7.46418,6.979804444193686,0.0516192880875744
7.466568,7.00034110005279,0.0513305514917911
7.468948,7.017897267777457,0.0510921729781719
7.471348,7.030890155501849,0.0508927089638397
7.473736,7.042951877666462,0.0506937452809327
7.476116,7.055665226137133,0.0505082823419371
7.478516,7.069309740167584,0.0503237515769563
7.480904,7.087330542743204,0.0501503830124701
7.483284,7.104140640505326,0.0499895281012166
7.485687999999999,7.122114221252704,0.0498581741122482
7.488072,7.1420899027464975,0.0497213759730216
7.490455999999999,7.163648376106129,0.049595119511878
7.492852,7.187720806891375,0.0494797591350978
7.49524,7.2079288058106465,0.0493717974146244
7.497623999999999,7.222642359169866,0.0492998871239902
7.50002,7.237076373275365,0.0492398494785198
7.502408,7.251230848127144,0.0491912276767484
7.504787999999999,7.269389524471755,0.0491312796529362
7.507184,7.283543999323533,0.0490837733742954
7.509571999999999,7.295556603802034,0.0490483960771849
7.511952,7.311293870519649,0.0490129203344725
7.514352,7.328753698729959,0.0489826583875693
7.516735999999999,7.348634936567268,0.0489298866214204
7.519135999999999,7.369726879218075,0.0488657301930636
7.521532,7.393472548921356,0.0488070444607547
7.523915999999999,7.40907004601211,0.0487770387854344
