Time,Force,Position
6.456019999999999,2.3461880096436287,0.1722735591279747
6.458416,2.463490224023397,0.1698511289384437
6.460804,2.5646396545207084,0.1681950895111024
6.46318,2.6438150944935472,0.1677762235418546
6.465576,2.7212226470033163,0.1671566737060333
6.467964,2.810132843170257,0.1650266835714618
6.47036,2.897788904411194,0.1625373340556396
6.472756,2.966870772142678,0.1608819614051378
6.47752,3.0451169424136078,0.1603657947086224
6.4799240000000005,3.0773280665220346,0.1600644633935515
6.482312,3.0999045656664523,0.1597287696957022
6.484691999999999,3.1139173750335014,0.159342030998769
6.489483999999999,3.115128079847,0.1592648789940242
6.503819999999999,3.102467640778179,0.1592153667176077
6.5062,3.1045622893232125,0.1592083900071804
6.508595999999999,3.1126160182792537,0.1590492930805972
6.51098,3.1374307273113047,0.1583126184059459
6.5133600000000005,3.162337984141973,0.1576531335791931
6.515763999999999,3.1822626520917865,0.1573075975377155
6.518151999999999,3.2000454496683224,0.1570759334418526
6.520531999999999,3.2196905783644154,0.1567739620409875
6.522928,3.24427107411312,0.1562616571431541
6.525316,3.272576232100938,0.1556012262738529
6.527695999999999,3.3073995490072043,0.1547427729834429
6.530092,3.3463668370331643,0.1537312471457312
6.53248,3.3762547868868182,0.1530870612239739
6.53486,3.4000438867026044,0.1526093148366239
6.537264,3.424764152078169,0.1521037046783515
6.539648,3.447622086334177,0.1516805697075143
6.542031999999999,3.4684779198437687,0.1513396424012528
6.544428,3.4869123437263623,0.1511189536557001
6.546811999999999,3.506929559474793,0.1508675846171497
6.549192,3.5316026030221144,0.150480651297718
6.551596,3.562701257689268,0.1498383079234996
6.553984,3.593847134184663,0.1491470446718667
6.556364,3.621036031015468,0.148512527181049
6.558767999999999,3.637330480382654,0.1481784488174002
6.561152,3.654184008257281,0.1477855580565868
6.563532,3.6717363842662087,0.1473270525495016
6.565939999999999,3.686123176543464,0.1469160427940213
6.568323999999999,3.703722774380635,0.1463891462058334
6.570703999999999,3.721973998523864,0.1458628182405655
6.661508,3.768150710171097,0.1456108427180835
6.663888,3.7744346558061994,0.1456092877129505
6.666283999999999,3.782069075881659,0.1455404179775344
6.673451999999999,3.8026434742796607,0.1455087585981841
6.675836,3.8148865003257697,0.1454033825788776
6.678215999999999,3.826245582640344,0.1452505615918815
6.680619999999999,3.837372347529441,0.1450469530782236
6.683007999999999,3.8454260764854817,0.1449454408967775
6.685392,3.853991662120721,0.1448598138065426
6.687787999999999,3.86446680070376,0.1446515189190296
6.694951999999999,3.8759656526451938,0.144485813179988
6.697339999999999,3.8903052230942063,0.1441710199218079
6.699736,3.899057800184549,0.1439958859521483
6.70214,3.905296419849276,0.143862811110721
6.704523999999999,3.9153994713799776,0.1436217745722509
6.706904,3.9275971714557127,0.1433831265233167
6.709308,3.9458011737706986,0.1429752313204014
6.711696,3.9648437938468457,0.1424978389335467
6.714076,3.982024082803437,0.1420681885361399
6.716479999999999,3.995060400640333,0.1417661763808736
6.718864,4.015173955903118,0.1412609560509246
6.721244,4.03305309299401,0.1407700790621996
6.723647999999999,4.04655594153973,0.1403689342961396
6.726035999999999,4.059127624525671,0.1399951761782229
6.728415999999999,4.0728627904968695,0.1396419648145035
6.730812,4.0908344753863775,0.1392344948990475
6.7332,4.1144403754628,0.1386440116274643
6.735579999999999,4.140979541845416,0.1379972695945829
6.737976,4.165888694533954,0.1374333882683411
6.740364,4.197595545394659,0.1367085869559176
6.742744,4.232794741069002,0.1358708928237784
6.745144,4.262127404130953,0.1351876436059707
6.747532,4.295883577566319,0.13436804553785
6.749908,4.33229347805416,0.1335087383794474
6.752312,4.368843148168861,0.1326479152564315
6.840707999999999,4.198895180909525,0.1321118648596582
6.843088,4.198011237177989,0.1320616780217708
6.845492,4.197918689379373,0.1320052085625526
6.84788,4.199688472700312,0.1319116143905253
6.850263999999999,4.203600126394528,0.1317558750178521
6.85266,4.208582715275384,0.1315698970349091
6.855048,4.217010427141632,0.1313374053174102
6.857427999999999,4.219803923820967,0.1312830886088269
6.859824,4.222178111619721,0.1312657148676917
6.862212,4.228416731284448,0.1311632064490187
6.864592,4.239730487628648,0.1309340283266606
6.866996,4.245829337666516,0.1308454037195777
6.86938,4.255420532518019,0.130640431421554
6.87176,4.267712676250241,0.1303287294023709
6.874164,4.274837135504375,0.130087651557493
6.876552,4.279168098079172,0.1299031967004222
6.878931999999999,4.291367694012776,0.1295457842550579
6.881335999999999,4.308502656998993,0.1290853594222237
6.883723999999999,4.326568785544987,0.1286096672669083
6.886104,4.345286540397041,0.1281438076140156
6.888499999999999,4.366797791928429,0.1276309402439891
6.890888,4.388029504206096,0.1271467161920237
6.893267999999999,4.412194482789959,0.1266041445637091
6.895667999999999,4.437570166187318,0.1260298646471339
6.898056,4.460012583278485,0.1255144671105404
6.900435999999999,4.480313129996373,0.1250545566421161
6.902832,4.499962050408205,0.1245971755405828
6.90522,4.523243085260532,0.1240218831764489
6.9076,4.549225068993577,0.1233522821157833
6.910003999999999,4.573344721607064,0.1227183684703762
6.912391999999999,4.595462273474135,0.122136833790276
6.914771999999999,4.619861465341345,0.1214877622811147
6.917176,4.644120887581694,0.1208565056104463
6.919559999999999,4.663817029821768,0.1203539476385181
6.921939999999999,4.688820626166792,0.1197850798187128
6.924336,4.712753287325177,0.1192449843036732
6.926724,4.732030120684671,0.1187881622780018
6.929103999999999,4.747023213297611,0.118438641446153
6.931507999999999,4.761224909977633,0.1180940119165471
6.933895999999999,4.775566376284513,0.1177412647773999
6.936275999999999,4.792049712964673,0.1173485460090801
6.938672,4.808812588898552,0.1169381972378589
6.941063999999999,4.823573364086013,0.1165678368136516
6.943444,4.83540087296728,0.1162496728285848
6.9458400000000005,4.85230351852802,0.1158372621740996
6.948228,4.874560840021951,0.1153142982134382
6.950607999999999,4.894676291142606,0.1148416017927076
6.953004,4.915443368569318,0.1143831162949257
6.955392,4.932718101182395,0.1140151863626005
6.957772,4.949480977116274,0.1136295047451823
6.960168,4.964381521930598,0.1132692288908648
6.962555999999999,4.980864858610755,0.1129076630966798
6.964952,4.994414928984719,0.1125918983657056
6.967347999999999,5.01038640898568,0.1122094705836145
6.969735999999999,5.026777197867221,0.1118050523628805
6.97212,5.044518461189121,0.1113615560456613
6.974516,5.058535062271909,0.1109617219074764
6.976903999999999,5.069897936302222,0.110584372153149
6.979288,5.082191975892313,0.1101967019080378
6.981684,5.094765554736124,0.1097925779367838
6.984071999999999,5.102263996900463,0.1094801915999907
6.986452,5.106689403131747,0.109221978704636
6.988847999999999,5.11246528380339,0.1089238639270187
6.991235999999999,5.11917233003481,0.1086139900527286
6.993615999999999,5.122526801079455,0.1083796559433065
6.99602,5.121597531377546,0.1082306266821612
6.998408,5.120016635369579,0.1080730889241376
7.000788,5.115782012309137,0.1079390050333702
7.003183999999999,5.114760194808611,0.1077435989802922
7.005568,5.116252334733699,0.1075355322072549
7.007952,5.121608906524762,0.1072765314343233
7.010347999999999,5.123240816076711,0.1070600183536844
7.012739999999999,5.1296683230544105,0.1067817044435159
7.01512,5.138749557084585,0.1064840516041567
7.017515999999999,5.145828690368344,0.1062200589365336
7.019904,5.149415478838465,0.1060327805471982
7.022283999999999,5.160591361413673,0.1057556096342151
7.024687999999999,5.177633776601273,0.1053997625188045
7.027075999999999,5.193745026229093,0.10505570078237
7.029456,5.207434866229919,0.1047694514447729
7.031851999999999,5.222335411044242,0.1044545290283033
7.034236,5.24016922216476,0.1040997821803524
7.036616,5.254790227725362,0.1038031606241913
7.039024,5.270202629218883,0.1035070261728356
7.041407999999999,5.286034339592983,0.1031834329879036
7.043792,5.302005819593944,0.1028509393204121
7.046196,5.319699861087602,0.102509123116716
7.048584,5.340839025566651,0.102149403464687
7.0509640000000005,5.358905154112645,0.1018390048728292
7.053367999999999,5.377902448218419,0.1015242435902708
7.055755999999999,5.395037411204635,0.1012330892961037
7.058135999999999,5.417387280497184,0.100862557824731
7.060532,5.437223192364118,0.1005061530112875
7.06292,5.454405377178578,0.1001715171123772
7.065299999999999,5.468374756433122,0.099889407645979
7.067696,5.483694610128024,0.0995692782782894
7.070084,5.495941427889872,0.0992976235896731
7.072464,5.504323813785745,0.0990713770519487
7.074859999999999,5.51256643005476,0.09885404164627
7.077247999999999,5.524021851883689,0.0985855394658261
7.079628,5.537199835205315,0.098310729409257
7.082027999999999,5.555452955206413,0.0979751894737102
7.084412,5.57477701039415,0.0976206582148894
7.086796,5.595311770395385,0.0972442866975407
7.0892,5.614915364836842,0.0968767618999614
7.091583999999999,5.6345189592783,0.0965100144842358
7.093968,5.652399992227061,0.096152061951802
7.096364,5.6639026358842335,0.0958415301174837
7.098751999999999,5.678757854728182,0.0954749228809217
7.101132,5.687094914653682,0.0951638100053088
7.103527999999999,5.690356837899709,0.0949165328659705
7.105915999999999,5.689195250772324,0.0947443871750237
7.108312,5.688685289950996,0.0945816736921986
7.110707999999999,5.689106494689445,0.094411641022445
7.113092,5.694882375361088,0.09416196605296
7.115475999999999,5.699866860099813,0.0939105305193927
7.117872,5.702337387412921,0.0936650583736407
7.12026,5.706810015472448,0.0933962396805913
7.122643999999999,5.710770786852777,0.0931097007904752
7.12504,5.7147315582331055,0.0928257703291666
7.127428,5.716969768120739,0.0925496528467691
7.129807999999999,5.710268409462926,0.0923730523704068
7.132208,5.707151943417366,0.0921764411243565
7.134596,5.70217314625225,0.0919944663901328
7.136975999999999,5.69798574502005,0.0918133120608743
7.139376,5.697011149347769,0.0915879577486268
7.141764,5.697619345541321,0.0913651383929641
7.144143999999999,5.70581663583996,0.091079985149293
7.14654,5.709730185392045,0.0908547512834345
7.148928,5.720301663489441,0.090574263699868
7.151308,5.738881544572503,0.0902082353206788
7.153711999999999,5.759882835282561,0.0897972847528678
7.1561,5.780092730059702,0.08938702680273
7.158479999999999,5.798300524090429,0.0889991140268169
7.160883999999999,5.810222476628182,0.0886914600620205
7.163268,5.825729321778188,0.0883665086937747
7.165647999999999,5.844821059540447,0.0880245419247739
7.168047999999999,5.863773027675846,0.087693032893371
7.170432,5.885378722863719,0.0873529313014173
7.172812,5.904982317305176,0.0870357615311703
7.175215999999999,5.922444041373357,0.086746050484053
7.177603999999999,5.939486456560956,0.0864754354024695
7.179983999999999,5.953083748763163,0.0862159825973983
7.182376,5.964539170592092,0.085984428538191
7.184764,5.978788089100357,0.0857361031298847
7.18716,5.986751166115651,0.0855650335880855
7.189556,5.993922847198026,0.0853927266337956
7.191939999999999,5.996159161227789,0.085267591867861
7.194319999999999,6.003330842310164,0.0850972040855561
7.196724,6.006638091526566,0.0849593387138856
7.199112,6.0039390385037175,0.0848803968578686
7.201492,6.002962546973565,0.0847980134767849
7.203896,6.002777451376332,0.0847177542691932
7.20628,6.001521420592458,0.0846504899507243
7.208663999999999,6.002407260181863,0.0845559105150086
7.21106,6.003432869398128,0.0844543972877053
7.213443999999999,6.002735917121696,0.0843568471176375
7.215824,5.9991056985390685,0.0842835094734491
7.218228,5.993473379210025,0.0842288324811447
7.220616,5.988120599134701,0.0841587708707485
7.222996,5.984630150178935,0.084077629365208
7.225391999999999,5.988915786783357,0.08389031239249
7.227779999999999,5.995855150440255,0.0836950387837697
7.23016,6.006938485216849,0.0834561431327017
7.232555999999999,6.015368092940965,0.0832274816224496
7.234943999999999,6.029804002904332,0.0829449880999702
7.237323999999999,6.046381783240978,0.0826392875130804
7.23972,6.064170268391122,0.0823134145156642
7.242108,6.077023386488654,0.0820293008854127
7.244503999999999,6.090667900519104,0.0817471992970387
7.2469,6.108456385669247,0.0814230735944194
7.249288,6.117584841527664,0.0811585450340007
7.251668,6.124850966266527,0.0809045093884446
7.254068,6.139985724364196,0.0805906135261885
7.256456,6.161126784701115,0.0802290390175658
7.258835999999999,6.182547384291755,0.0798576905726857
7.261232,6.205970084628812,0.0794728383156343
7.263619999999999,6.232745360152644,0.0790457311099889
7.266,6.262453901982672,0.078601361071966
7.268395999999999,6.291743134932119,0.0781799045344115
7.270783999999999,6.322382842321926,0.0777345239705268
7.273163999999999,6.345665773032121,0.0773664331538186
7.275559999999999,6.368576616689981,0.0769784401371786
7.277948,6.390416525161202,0.0766055218947167
7.280343999999999,6.411185498445783,0.0762440915043382
7.28274,6.428369579118112,0.0758948622993353
7.285124,6.443411789417164,0.0755698514418892
7.287504,6.459385165275995,0.0752423765877383
7.289907999999999,6.479502512254518,0.0748791268267042
7.292296,6.498176836994066,0.0745024884212373
7.294675999999999,6.513778125800559,0.0741530625430098
7.297072,6.538039443898777,0.0737534835059818
7.299464,6.562300761996994,0.0733531502026413
7.301843999999999,6.578693446736405,0.0730079364733233
7.30424,6.590010994796344,0.0727058286233228
7.306628,6.595973866923089,0.0724562136820345
7.309011999999999,6.59858416386306,0.0722453305621666
7.311408,6.598773051176032,0.0720690923245109
7.313796,6.592024470689975,0.0719380351211159
7.316175999999999,6.584624263897862,0.0717966625951905
7.318579999999999,6.576153121919108,0.0716654989946797
7.320967999999999,6.571546411806329,0.0715131805045658
7.323347999999999,6.563447356879914,0.071404991172501
7.325752,6.551064561206945,0.0713377995296002
7.328135999999999,6.540823635907253,0.0712496409370937
7.33052,6.535238538406452,0.0711444511172093
7.332915999999999,6.531655541652069,0.0710260713762786
7.335303999999999,6.529795106390382,0.0709084850562285
7.337683999999999,6.523790700009001,0.0708237436758364
7.34008,6.522302351799652,0.0707298391700744
7.342468,6.52174516915008,0.0706326905157642
7.344847999999999,6.521327756127368,0.0705298297181119
7.347244,6.521701739037575,0.0704304103608589
7.349627999999999,6.522355261201501,0.0703172225537961
7.352012,6.520866912992153,0.0702231161648756
7.354415999999999,6.5233827662756365,0.0701031251701904
7.3568,6.527388863626339,0.0699533055961918
7.35918,6.534328227283238,0.0697879843587263
7.361583999999999,6.549275993925802,0.0695719768358336
7.363968,6.566737717993982,0.0693609818971246
7.366351999999999,6.58485106836822,0.0691610724721026
7.368755999999999,6.604035353929096,0.0689533883557401
7.371143999999999,6.629086172102364,0.0687163730485075
7.373524,6.660562601395462,0.0684231700123826
7.375928,6.69082832587506,0.06814794590582
7.378311999999999,6.7132254169958525,0.0679159107221941
7.380696,6.7334806377433685,0.0677037927821654
7.383091999999999,6.7481488651322135,0.0675086257395181
7.385479999999999,6.7668212940138925,0.0672899339627554
7.38786,6.782560456589375,0.0670875269879122
7.390255999999999,6.799510323978359,0.0668707234832752
7.392643999999999,6.811524824314728,0.0666808473667985
7.395023999999999,6.827962835024513,0.0664510808493799
7.397428,6.84919644316005,0.0662040259494396
7.399815999999999,6.875924496855639,0.0659082383787202
7.402199999999999,6.902932089804949,0.0656020486889137
7.404596,6.927937582007842,0.0653074091862615
7.406984,6.953362383091315,0.0649973428075368
7.409364,6.973200190816119,0.0647032967674081
7.411755999999999,6.99001218443611,0.0643880355184498
7.414144,7.005520925443985,0.0640530843460995
7.416523999999999,7.016373838652969,0.0637289287710703
7.418923999999999,7.022990232943641,0.0633988889121727
7.421308,7.027464756861037,0.0630874799055535
7.423691999999999,7.035152086338348,0.0627540127133163
7.426091999999999,7.046843617308492,0.062399229914026
7.42848,7.052296528613912,0.0620422821736465
7.430859999999999,7.059891310292605,0.0616677233446684
7.433263999999999,7.0659033001054645,0.0612864295360783
7.435651999999999,7.070332498052486,0.0608959055738227
7.438032,7.07383053043973,0.0605083584751413
7.440427999999999,7.082403699506446,0.0600950809727603
7.442815999999999,7.085901731893689,0.0597109101780665
7.445195999999999,7.084604166855181,0.0593416831531744
7.447592,7.080373335510478,0.0589848926678852
7.44998,7.075211338605996,0.0586301938084306
7.452363999999999,7.074844939127267,0.0582632139016918
7.45476,7.070614107782564,0.0579079611713844
7.457143999999999,7.066243506811001,0.0575570024303386
7.459524,7.065038489571112,0.0572249902520499
7.461919999999999,7.064485098637278,0.0569035359540065
7.464307999999999,7.068867074756057,0.0565643117190331
7.466687999999999,7.071619037180757,0.0562550962578865
7.469087999999999,7.071577502926122,0.0559491287988674
7.471475999999999,7.064598500872457,0.0556683212739926
7.473856,7.056828102885874,0.0553822308725257
7.476251999999999,7.060511230870353,0.0550716506900674
7.47864,7.067919021093943,0.054758679406903
7.481024,7.072905401690536,0.0544708414753374
7.483419999999999,7.082407840459162,0.0541853991828536
7.485807999999999,7.0948435455339816,0.053893742069421
7.488187999999999,7.1022041139293295,0.0536246510119193
7.490584,7.109564682324677,0.0533552937224001
7.492972,7.119718747399361,0.0530838789071585
7.495355999999999,7.126240698033547,0.0528489083658378
7.497752,7.130481008667596,0.0526325723323716
7.50014,7.128715017062395,0.0524379781712165
7.502519999999999,7.127460882136392,0.0522596801553051
7.504916,7.129791639822643,0.0520848720804751
7.507303999999999,7.130539605643056,0.0519002134717623
7.509684,7.132078967396388,0.0517211983367838
7.512079999999999,7.133199020269139,0.0515607151136584
7.514467999999999,7.136972800194365,0.0514042177637806
7.516852,7.142608911239147,0.0512465652083385
7.519247999999999,7.153971785269459,0.0510800595151989
7.521635999999999,7.16491535041919,0.0509309451383141
7.524016,7.171714944449228,0.0508025473092399
7.526411999999999,7.172648005866875,0.0506882315181239
7.5288,7.173720836911383,0.0505675659637046
7.531184,7.172931336836334,0.0504483301774005
