Time,Force,Position
8.831031999999999,2.225127182201589,0.1711435442661762
8.83342,2.329119227064348,0.1682290551992407
8.835799999999999,2.4195177714406384,0.1663921517047921
8.838199999999999,2.5019098086891307,0.1647488750602816
8.840584,2.5789490658623007,0.1633339846008752
8.842964,2.659342794080114,0.1612924563958203
8.845372,2.726981639572622,0.1596092459360533
8.943316,2.9960164437495265,0.1590548992068301
8.94572,3.0055585209149176,0.1590506785280885
8.948108,3.018592942893944,0.1588579575292238
8.950488,3.0292059552459745,0.1588053268312443
8.952892,3.041169442038363,0.1586665285199434
8.955276,3.051969445845496,0.1584981009084332
8.957656,3.060395261853875,0.1583706761895769
8.96006,3.070031782675752,0.1581754121943569
8.962448,3.0808790083111286,0.1579149401969929
8.964827999999999,3.09451973062584,0.1575640118913242
8.967224,3.1109539496198853,0.1571220034184174
8.969608,3.1289709604797684,0.1566583039576826
8.971988,3.1511319424593447,0.1560075514666991
8.974383999999999,3.17450362925242,0.1553079315813564
8.976771999999999,3.197503228993157,0.1545650375904457
8.979152,3.2149158353752254,0.1540124907755786
8.981548,3.234330542503709,0.1533862545874881
8.983936,3.252022688139497,0.1528050183063398
8.986315999999999,3.267480415603391,0.1522537478413533
8.988712,3.2889444453065355,0.1514812082792441
8.9911,3.307475208703485,0.1508228049830931
8.993492,3.323584562473437,0.1502947651574272
8.995896,3.337132736989532,0.1499155571586201
8.998284,3.3532420907594838,0.1494005620451943
9.000663999999999,3.3657665519171824,0.1489808010969689
9.003067999999999,3.377871704194301,0.1486030613099502
9.005455999999999,3.393561749083672,0.1481244171599564
9.007832,3.407529232480347,0.1476914883344085
9.01024,3.4208450895709634,0.147262888789225
9.012628,3.431135132556768,0.1468724490519311
9.015008,3.4386316788632376,0.1465675154925755
9.017404,3.446128225169707,0.146267330328547
9.019792,3.4560461811031744,0.1458617203376105
9.022172,3.4635899492378868,0.1454931654915006
9.024576,3.4722046525592383,0.14508474093205
9.026964,3.4811914429329263,0.1447033932850314
9.029344,3.4891072981199773,0.1443678584890975
9.031748,3.500375728493804,0.1438989620055518
9.034132,3.5109925325615725,0.1434251119941391
9.036516,3.514671868830312,0.1431758884618303
9.038912,3.5188630617782484,0.1429466092233295
9.041296,3.5262670602861013,0.1425987376408679
9.04368,3.532647345435559,0.1422079658817705
9.04608,3.535302968345903,0.1419179460524594
9.048468,3.54112417498792,0.1415874275411851
9.050848,3.554534475735023,0.1410495895975521
9.053244,3.567153380549208,0.1405271641888619
9.055632,3.579260428684196,0.1399837636280366
9.058016,3.588154671259267,0.1395572209490679
9.084304,3.6158044112252887,0.1395316211349297
9.086684,3.625021623166586,0.1394571040997417
9.08908,3.63079371212249,0.1394479611767166
9.091468,3.63828836257109,0.1394082485433454
9.093852,3.652021632684419,0.1392420970742063
9.096248,3.668036542797884,0.1389931582929914
9.098636,3.679535394739319,0.1388483564976679
9.10102,3.6922449514942506,0.1386588868486976
9.103416,3.7070491567942176,0.1384774819679601
9.105804,3.727859664333435,0.1381343727766434
9.108184,3.756026948552262,0.1375618064447362
9.11058,3.782890980158973,0.1369793644985034
9.112968,3.807613141392407,0.1364605874157922
9.115352,3.8332664681856192,0.1359159737736797
9.117752,3.862923996471666,0.1352564717349992
9.12014,3.896213639198208,0.1344653584572049
9.12252,3.9283397989394944,0.1336635356928989
9.124916,3.9615368938674194,0.1328327620631275
9.127304,3.9955253847282632,0.1319898458020211
9.129684,4.024578508536494,0.1312682523857027
9.132084,4.057403516412082,0.1304167081580193
9.134468,4.084222222048418,0.1297321801732035
9.136852,4.114625820297009,0.1289920696534418
9.139248,4.144889648918739,0.1282725541132066
9.141636,4.164491347502327,0.1277983522997204
9.144016,4.179297448660162,0.12743544324119
9.14642,4.191170283511804,0.1271419100468601
9.148808,4.2027635791097255,0.1268798721343041
9.151192,4.214776183588226,0.1265837458110567
9.153588,4.223995291387393,0.1263488244813593
9.155976,4.227627405827889,0.1262218130720034
9.158356,4.232050916201303,0.1260902955443216
9.160756,4.24140979362733,0.1258477162008275
9.16314,4.252119145493715,0.1255522555243821
9.165524,4.262176871054042,0.125253491650429
9.16792,4.267159459934897,0.1250781003057417
9.170308,4.271862509562031,0.124928574234632
9.172692,4.277496724748945,0.1247647241976011
9.175088,4.284481414376216,0.1245500899108455
9.177476,4.29789171512332,0.1241678469865509
9.17986,4.303153843257896,0.1239753726628374
9.182256,4.311349237698666,0.1237224526834733
9.184644,4.315540430646603,0.1235579014139942
9.187024,4.320802558781179,0.1233678055601056
9.18942,4.33607519064784,0.1229601191749652
9.191808,4.3540015495669735,0.1225144567167995
9.194192,4.373650469978805,0.1220445451155724
9.196592,4.389434958524662,0.121650287289164
9.198976,4.402425950391185,0.1213064541116032
9.201356,4.4139266981904886,0.1210266491377147
9.20376,4.427010237855628,0.1207363747287914
9.206148,4.439162611960989,0.1204631432835632
9.208528,4.447450554200376,0.120267113426254
9.210932,4.45145475569321,0.1201801523463948
9.21332,4.455179417932323,0.120117458307812
9.2157,4.459183619425158,0.1200307680283611
9.218104,4.46383944722405,0.1199527289335425
9.220492,4.467564109463163,0.1198913191634578
9.222872,4.474082268381611,0.119786855952909
9.225276,4.477247852113283,0.1197731999503707
9.227664,4.482415536591373,0.1197176258095237
9.23004,4.486652055509684,0.119677234931756
9.237208,4.494426245212005,0.1196526439106504
9.239604,4.498290677077978,0.1195853306759339
9.241992,4.504157209690368,0.1194794587596297
9.244372,4.514027943795592,0.1192956377906064
9.246768,4.5285545056997085,0.1190453909053318
9.249156,4.541358506111127,0.1188090343024033
9.251536,4.556164607268963,0.118535281175852
9.25394,4.571622334732857,0.1182695562221821
9.256328,4.588011227756529,0.1179888544276803
9.258708,4.611477358206091,0.1175678534862686
9.261104,4.633872553469014,0.1171725841436697
9.263488,4.655988209478216,0.1167962881873785
9.265868,4.676521073621583,0.1164288942668145
9.268272,4.693049736272114,0.1161367782321891
9.27066,4.704503262243176,0.1159499135163036
9.273044,4.716236327467956,0.1157413537661041
9.27544,4.729691954185433,0.1155156824104135
9.277828,4.746080847209105,0.1152412240437432
9.280204,4.76633417209875,0.1149032890491721
9.282612,4.783654230682201,0.1146131258193933
9.299332,4.80474238161727,0.1145562463113087
9.306504,4.798690753407646,0.1145536235706557
9.308884,4.797155183370053,0.1144983582735114
9.311288,4.794176591093484,0.1144368754973038
9.313672,4.790266833257136,0.1143878446783586
9.316052,4.789430111353845,0.1142797381969657
9.318448,4.788872928704272,0.1141502568003563
9.320836,4.789526450868199,0.1139875275196339
9.323216,4.791809986726206,0.1137617013581385
9.325608,4.789437694785321,0.1135984693965498
9.327996,4.783760049485903,0.1134537745295982
9.330388,4.783297310492817,0.1132066713149941
9.332792,4.785767837805928,0.1129118929535004
9.33518,4.796666076985287,0.1124438060245161
9.33756,4.807843855418364,0.1119597153068943
9.339956,4.815296971612328,0.1115250011998241
9.34234,4.82610266299307,0.1110122433333893
9.34472,4.835837419187172,0.1105265036233437
9.347116,4.843570074634857,0.1100757206887754
9.349504,4.849160859709266,0.1096681175002426
9.351884,4.8615493429558425,0.1091624031284822
9.354284,4.875148531015918,0.1086278606778728
9.356672,4.8823221079561625,0.1082238882867953
9.359052,4.898155714188133,0.1077037417990053
9.361456,4.917993521912936,0.10712412104432
9.363844,4.939973200011018,0.1065082704629064
9.366224,4.9611614821761805,0.105890430491342
9.368628,4.981139059527844,0.1053070772955648
9.371012,4.997903831319593,0.1047893576056916
9.373396,5.013737437551562,0.1042767354248067
9.375792,5.03022267008959,0.1037736163533354
9.437908,4.858355670593108,0.1033699263283089
9.440304,4.872508249587018,0.1033179895431534
9.442692,4.892806900447037,0.1031707451541655
9.445072,4.914967882426613,0.103005458985621
9.447468,4.936057929219552,0.1028591380011785
9.44986,4.961152177505323,0.1026566302902978
9.45224,4.993463432843844,0.1023407673432929
9.454644,5.027125162622723,0.1019847411202109
9.457028,5.063068532401739,0.1015798848970635
9.459408,5.100362376621116,0.1011419876092603
9.461812,5.136864824907574,0.1007078861212526
9.4642,5.17485751726125,0.1002249246497999
9.46658,5.21219858330887,0.0997342624563997
9.46898,5.245814987117376,0.0992918026044473
9.471364,5.280921634993101,0.0988058790625041
9.473744,5.316587361376266,0.0982906187464891
9.47614,5.355465893319347,0.0977229954885293
9.478528,5.389409058209817,0.0972203913271702
9.480908,5.422700596794229,0.0967185665279431
9.483308,5.454269573885944,0.0962326568653065
9.485692,5.479599931312932,0.0957865051007152
9.488072,5.501485165754526,0.0953630638424857
9.490472,5.518574802770369,0.0949949257171731
9.492856,5.535292352733874,0.0946041685609228
9.495252,5.554012003443796,0.0941890191240446
9.497652,5.567284430421909,0.0938142628178554
9.50004,5.576552655907186,0.0934923161211048
9.50242,5.585820881392464,0.0931708208015711
9.504824,5.593366545385047,0.0928568273889207
9.507212,5.596116611951877,0.0925896607202303
9.509592,5.601427857772565,0.0922676530077575
9.511996,5.60860143471281,0.0919327664859724
9.514384,5.61898781721297,0.0915540202494811
9.516764,5.626860242287515,0.0911803511533021
9.519168,5.632590796988784,0.0908384421835348
9.521556,5.636319250943634,0.0905209153815745
9.523936,5.637114438592292,0.0902333586118576
9.52634,5.639260100681307,0.0899125584718745
9.528728,5.640474597210545,0.0896008859080107
9.531108,5.638755827433587,0.0893175434761828
9.533504,5.646116395828935,0.0889336737750761
9.535892,5.651055554597286,0.0885950841623686
9.538272,5.656646339671695,0.0882659507247836
9.540668,5.657953383999549,0.0879959326157988
9.543056,5.656466931648068,0.087745612238104
9.545436,5.658844911162562,0.0874599185963248
9.547836,5.658289624370859,0.0872011697815158
9.550224,5.658013876832878,0.0869260775750933
9.552604,5.657598359668034,0.0866585725382357
9.555004,5.659976339182528,0.0863699008066735
9.557392,5.654997542017411,0.0861774622313304
9.559772,5.646945708919239,0.0860215246436087
9.562172,5.632468264701235,0.0859544240843418
9.56456,5.621435943468624,0.0858772647859823
9.56694,5.612405722982431,0.0857785596378614
9.569336,5.603375502496237,0.0856794189997884
9.571724,5.5962076131296,0.085567414425337
9.574108,5.5918332204422985,0.0854364805814302
9.576504,5.58517718775486,0.0853424765082266
9.578892,5.581314651746755,0.0852296797657556
9.581272,5.571026504618819,0.0852024792947248
9.583676,5.564882328610578,0.0851265923805626
9.586064,5.559948857415835,0.0850284161228812
9.588444,5.560742149206623,0.0848862731609805
9.59084,5.566470808050022,0.0846989239281005
9.593228,5.567636186893147,0.0845832279203177
9.595608,5.57680996872194,0.0843891523489308
9.598004,5.58542467204329,0.0842276657907306
9.600392,5.5969726416708365,0.0840417228818857
9.602772,5.609312007231302,0.0838586996053291
9.605168,5.626586739844378,0.0836293510485641
9.607556,5.64693450839051,0.0833678185948746
9.609932,5.670634852123419,0.0830545492952373
9.612336,5.692333095109909,0.0827627997136852
9.61472,5.71361202921582,0.0824968912838938
9.6171,5.731538388134953,0.0822785727514982
9.619504,5.750535682240726,0.0820491108585244
9.621888,5.767391105973223,0.0818485258143496
9.624268,5.786248630452136,0.0816291111371419
9.626664,5.806316859744548,0.0813912596508913
9.629052,5.82666462829068,0.0811363727174517
9.631432,5.843659821650036,0.0809302423346442
9.63384,5.8595840798227545,0.0807387656112562
9.636228,5.872854610942999,0.0805575512655967
9.638608,5.881050005383769,0.0804271191645646
9.641004,5.897533342063927,0.0802087407441692
9.643392,5.906939441318197,0.0800596905953855
9.645772,5.919698115759241,0.0798660445255688
9.648168,5.930314919827008,0.0796989155055304
9.650556,5.942421967961995,0.0794982632090574
9.652936,5.954668785723844,0.0792914727811647
9.655344,5.965844668299054,0.0790987859342888
9.657728,5.975018450127847,0.0789228523134831
9.660112,5.98326106639686,0.0787513091970287
9.662516,5.9909918259866775,0.0785623885847242
9.6649,6.004077261509687,0.0783120224266529
9.66728,6.011156394793445,0.0781119428786047
9.669684,6.02051716807734,0.0778811328661167
9.672072,6.028807006174597,0.0776630584330701
9.674452,6.0369570746449925,0.0774547711328822
9.676848,6.048180179048445,0.0772192817964558
9.679236,6.059962361959338,0.0769531708118788
9.681616,6.072815480056869,0.076676324930872
9.68402,6.087530929273958,0.0763926644976024
9.686408,6.105179644797242,0.0760882147045161
9.688788,6.121105798827828,0.0757914748864091
9.691192,6.14010498879147,0.0754676283203225
9.693576,6.1571020780086965,0.0751630440898888
9.69596,6.176520576852918,0.074823972691072
9.698356,6.19565953644342,0.0745033974838548
9.700744,6.215869431220563,0.074175172358187
9.703124,6.234216994878148,0.073855081424738
9.70552,6.260293422267679,0.0734948999808817
9.707908,6.292655691150181,0.0730828361358653
9.710288,6.324086794472906,0.0726753436559816
9.712688,6.356449063355408,0.0722707360355664
9.715076,6.398821835969994,0.0718002928725621
9.717456,6.440263443024803,0.0713391739446588
9.71986,6.484917855639527,0.0708520052678863
9.722248,6.527570167507834,0.0703816211098054
9.724628,6.569151544189503,0.0699263947702688
9.727024,6.612595251990728,0.0694669761373127
9.729412,6.656970125351731,0.0690091652695661
9.731792,6.699342897966318,0.0685673131518871
9.734188,6.741715670580904,0.0681280960178921
9.736576,6.774869335396325,0.0677538544414181
9.738956,6.807883230584885,0.067388737034202
9.74136,6.838895025027028,0.0670371329330319
9.743744,6.864691913162838,0.0667268128716962
9.746124,6.8834115638727615,0.0664610756965246
9.748532,6.899989344209407,0.0662158441543443
9.750916,6.920711095665745,0.0659420890456388
9.753296,6.934635148949916,0.0657030352435024
9.7557,6.939479864061781,0.0655205695346506
9.758088,6.948189011039618,0.0653226240442834
9.760468,6.95368535245754,0.0651524106115829
9.762872,6.949310959770238,0.0650324248444781
9.76526,6.942934466336519,0.0649233927020511
9.76764,6.929620505103771,0.064849438087745
9.770036,6.914304443124607,0.0647862815869243
9.772424,6.898848611518583,0.0647291173622928
9.774804,6.884603484726057,0.0646564933752721
9.777208,6.866354156440697,0.0646050093029647
9.779596,6.848244597782197,0.0645468042727494
9.781976,6.830135039123699,0.0644883390975916
9.784372,6.819894113824007,0.0643936361311039
9.786756,6.811655289270731,0.0642885963259373
9.789136,6.803136925463735,0.0641958088027139
9.791544,6.799414159082491,0.0640858839914638
9.793928,6.802768630127136,0.0639352847444704
9.796312,6.807054266731558,0.0637828772359252
9.798708,6.805054061843011,0.0636746447724956
9.801092,6.800911986581186,0.0635827016686853
9.803476,6.8034278398646695,0.0634693839803827
9.805872,6.803801822774876,0.0633735481549038
9.80826,6.8012425393788885,0.0632898817869662
9.810644,6.805620723781928,0.0631726746154789
9.81304,6.809439829677528,0.0630803147278841
9.815424,6.820196403372156,0.0629545514458035
9.817808,6.835888344119397,0.0628063834891117
9.820212,6.849857723373941,0.0626565191239998
9.8226,6.862616397814986,0.0625227679010049
9.82498,6.878448108189087,0.0623707545978513
9.827384,6.89814425042916,0.0622068561184657
9.829772,6.919190867109593,0.0620245018135081
9.832152,6.938654691924191,0.0618349421733796
9.834556,6.9516003578203405,0.06165820607734
9.836944,6.967246972597207,0.0614419100733182
9.839328,6.984383831441293,0.0612023989678534
9.841724,7.002731395098878,0.0609522156838282
9.844108,7.0214982676370425,0.0606858434329649
9.846492,7.04575958573526,0.0603764677164177
9.848888,7.075375579766671,0.0600299788435697
9.851276,7.099684119693132,0.0596816343068075
9.853656,7.120128227753619,0.0593443960144463
9.856056,7.148068882120576,0.058957065093973
9.85844,7.1690720686885046,0.0585978581324838
9.860824,7.19277620413715,0.058200577673713
9.86322,7.213686842906461,0.057810622644505
9.865608,7.228079322757325,0.0574301673423656
9.867988,7.244613672981464,0.0570365738871148
9.870384,7.260077088018967,0.0566512688209255
9.872772,7.27474910712355,0.0562627961226245
9.875156,7.280761096936409,0.0558965421496726
9.877552,7.281837719696655,0.0555476599477992
9.87994,7.28384550801668,0.0551986606829202
9.88232,7.290369354508735,0.0548493126621324
9.88472,7.293400856187157,0.0545323210575017
9.887108,7.289355120439687,0.0542453374080259
9.889488,7.280374017639605,0.0539748900667398
9.891888,7.265246842973414,0.0537314825363141
9.894276,7.244625222747169,0.0535266423600967
9.896656,7.223072436961146,0.0533222611376487
9.899056,7.208037810093572,0.0531123975320361
9.901444,7.195284823226134,0.0528824589040119
9.903824,7.176245994865726,0.0526853611358774
9.906228,7.163353238371428,0.0524605653128826
9.908616,7.149529316317353,0.0522361165895197
9.910996,7.13342375426314,0.0520292486905774
9.913396,7.121182624074899,0.0518131529864706
9.915784,7.105868457953603,0.051609343195117
9.918164,7.087900564779833,0.0513999931815032
9.92056,7.069792901979202,0.0511959041238384
