Time,Force,Position
9.118676,2.227229879450678,0.1614176352713102
9.121064,2.3325213852098146,0.160301000109765
9.123444,2.4237075338032854,0.1597685462280154
9.125848,2.5066548578434804,0.1593792446405149
9.128232,2.5813161355021568,0.1592277789214975
9.130612,2.648622532339093,0.159195066541081
9.133016,2.7157910554070384,0.1587929029492022
9.135404,2.782729156907376,0.1579865230934029
9.137784,2.840497268294659,0.1573005902435076
9.14018,2.890538411807865,0.1567428042445221
9.142564,2.933783753006772,0.1562361778594606
9.144948,2.977590068570988,0.1553747779032274
9.147344,3.017441300328483,0.1543431161005647
9.149732,3.0543611616376527,0.1531801409096082
9.152112,3.0828079851102,0.1522528087799851
9.154508,3.107018289664436,0.151453150162094
9.156896,3.1293662630991155,0.1507330268748575
9.159275999999998,3.14850143097388,0.150151326403797
9.161676,3.1727117355281163,0.1493481817382956
9.16406,3.1907759682162418,0.1488140504633878
9.166443999999998,3.202973668291977,0.1485035038172155
9.16884,3.214332750606551,0.1482869626376936
9.233352,3.3938208991734093,0.1479327031745663
9.23574,3.400152066636754,0.1478468244744314
9.23812,3.4067627733538197,0.1477259182383875
9.240516,3.415794889697882,0.1474850574344868
9.242904,3.4204507174967733,0.1473466869829862
9.245288,3.424315149362747,0.1472193284162242
9.247684,3.425805393429966,0.1471263916066442
9.271588,3.411888923577273,0.1469580724409293
9.273968,3.4093296401812845,0.14685182801661
9.276368000000002,3.410262701598932,0.1465831522789122
9.278752,3.410124827829941,0.1463611513545987
9.281132,3.4122685940610875,0.1460374742462966
9.283532,3.406124418052846,0.1460206701457051
9.28592,3.402122112417881,0.1459193118605898
9.2883,3.3989112027158352,0.1458075389724007
9.2907,3.40170659525304,0.1454934286490194
9.293084,3.404501987790244,0.1451777078017657
9.295464,3.408600632939564,0.1448713979800329
9.297868,3.40841553734233,0.1447333110575027
9.300256,3.410372312118373,0.1445119544201291
9.302636,3.4106065254017195,0.1443271457729111
9.305032,3.40911817719237,0.1441786561059929
9.30742,3.405999815288941,0.1441353747392245
9.3098,3.4083286771173213,0.1439498174571156
9.312196,3.410377999691981,0.1437972500874098
9.314584,3.4140573359607207,0.1435362899908567
9.31698,3.422252730401491,0.1431549792392614
9.319384,3.434265334879992,0.1427395351371889
9.343267999999998,3.4517213713745645,0.1426736337391368
9.345648,3.456749286225793,0.1425839577944782
9.348052,3.460054639584326,0.1425303108229188
9.350435999999998,3.4660137199953334,0.1424181090972785
9.352816,3.472716974511016,0.1423788501232693
9.35522,3.487428632012366,0.1420801268543816
9.357608,3.497764000968544,0.1418786449813342
9.359988,3.506376808432026,0.1417103508298951
9.362384,3.5152219333209858,0.1415923524985248
9.364767999999998,3.524578914889143,0.1414978216320311
9.367148,3.532353104591464,0.1414237509306052
9.36954,3.540406833547505,0.1413189832426037
9.371928,3.547389627316908,0.1412553859680956
9.374324,3.5614024366839567,0.1410483052608893
9.37672,3.57806897310348,0.1407811612327897
9.379108,3.599298789523278,0.1403387257949807
9.381488,3.615081382211266,0.1400213843455146
9.383888,3.634448867511508,0.1396175309971223
9.386276,3.65805287173006,0.1391404601256758
9.388656,3.682727811135251,0.1386402185328908
9.39106,3.706611354607523,0.1381556253718781
9.393444,3.7295637325200177,0.1377087124709258
9.395824,3.7551698374849862,0.1372185607758284
9.398219999999998,3.779844776890177,0.1367580016115661
9.400607999999998,3.8054981036833895,0.1362014492949725
9.402988,3.825564437117932,0.1357841519391165
9.40538,3.8470737927914502,0.1353653037315846
9.407764,3.8704454795845256,0.1349044147030552
9.41016,3.898520216004736,0.1342759068585098
9.412556,3.926222865372608,0.1336225982461361
9.414943999999998,3.95392551474048,0.1329752258223141
9.417324,3.980557228921714,0.1323575550710219
9.419728,4.009051274222505,0.1317111337578431
9.422111999999998,4.034891592470821,0.1311235041712079
9.424492,4.063293089972993,0.1304439575615064
9.426896,4.084477580422418,0.1299659661002392
9.42928,4.110317898670734,0.1293907114403557
9.43166,4.138719396172907,0.1287248574560405
9.434055999999998,4.1646069362494655,0.1280953114781646
9.436443999999998,4.186769814086911,0.1275459315447577
9.438824,4.2070703608048,0.1270329759906147
9.441228,4.226579511589771,0.126533783798584
9.443611999999998,4.24115329532213,0.1261489555735165
9.445992,4.252793812748294,0.1258281780135003
9.448388,4.264154790920737,0.1255355206812467
9.450776,4.276167395399239,0.1252489003364705
9.453172,4.291672344691375,0.1248551149654695
9.455568,4.305314962863956,0.1244959560839683
9.457952,4.316675941036399,0.1242166905662404
9.460335999999998,4.326686444768483,0.123991404302294
9.46274,4.335765782940789,0.1237834734351535
9.465124,4.348057926673011,0.1234917234013594
9.467503999999998,4.355973781860061,0.1232594782328897
9.469908,4.361096140367776,0.1230753682258953
9.472296,4.361003592569159,0.1230204606500075
9.474676,4.365986181450015,0.1228484370755006
9.47708,4.3712483095845895,0.1226554956002074
9.479468,4.372506236226332,0.1225505852747074
9.481848,4.375114637308433,0.1223958039245562
9.484244,4.37930583025637,0.1222331881691511
9.486628,4.387640994324001,0.1219761809507542
9.489007999999998,4.395556849511052,0.121755514559214
9.491416,4.404962948765322,0.121471057114423
9.567848,4.390999257084385,0.1213358593016976
9.57264,4.385878794434539,0.1213246718427071
9.57502,4.387928117009199,0.1212207509844624
9.577416,4.391979540330276,0.1210767193311707
9.579804,4.398964229957548,0.1208778257886047
9.582188,4.405157523651901,0.120681346159897
9.584592,4.417636658839226,0.1203393915599627
9.586976,4.429464167720493,0.1199965481142487
9.589356,4.447717287721591,0.1194978264930539
9.591752,4.466761803655607,0.1189981496160148
9.59414,4.488507268470341,0.1184077824835773
9.596524,4.511183898844854,0.1178065988130483
9.598928,4.531346571793752,0.117225085659348
9.601316,4.5575155469819,0.1165262670248503
9.603696,4.585686622916466,0.1157954467550655
9.6061,4.614137238104751,0.1150509130148459
9.608484,4.645800658852952,0.1142304431237326
9.610868,4.672249173294822,0.1135329624387433
9.613264,4.697626752550053,0.1128601530878056
9.615652,4.71900013031245,0.1122641837509512
9.618032,4.738743494380768,0.1117468738775811
9.620428,4.75569336176975,0.1112640604558728
9.622812,4.770920667666036,0.1108034678431726
9.625191999999998,4.785496347256263,0.1103366530845195
9.627592,4.796207594980517,0.1099292458904179
9.62998,4.807058612331632,0.109509327874407
9.632359999999998,4.8176300904290255,0.109116450150779
9.634756,4.826990863712921,0.1087612465440388
9.637144,4.8343495362504,0.1084438642015653
9.639528,4.841056582481821,0.1081190616748581
9.641924,4.847484089459521,0.107819226157352
9.644312,4.852189034944526,0.1075329433227477
9.646708,4.857545606735588,0.1072538780811461
9.649104,4.860108681847314,0.1070117455089296
9.651492,4.859738490652847,0.1068144218170051
9.653876,4.859088760204658,0.1066380927541027
9.656272,4.859230425689388,0.1064618785005693
9.65866,4.861513961547395,0.1062441722586001
9.66104,4.867801698898235,0.1059652680310097
9.663436,4.877162472182131,0.1056342101106918
9.665824,4.883869518413551,0.1053263423848638
9.668204,4.894720535764664,0.1049453509144757
9.670608,4.904640387556002,0.1045771541264303
9.672996,4.915351635280257,0.1042101212112738
9.67538,4.931138019683984,0.103761489968978
9.677779999999998,4.9498576703939055,0.1032744818448997
9.680167999999998,4.965783824424492,0.1028206105544647
9.682552,4.978636942522024,0.102415992969707
9.684948,4.991210521365835,0.1020316196302027
9.687332,5.003644330582786,0.1016580474535885
9.689712,5.012865334239821,0.1013452339553472
9.692116,5.0255314608822514,0.1010138281129016
9.694503999999998,5.041130853830874,0.1006441414675384
9.696884,5.057521642712414,0.1002763900128392
9.699279999999998,5.077916633086791,0.0998543062420085
9.701664,5.098032084207445,0.0994535655632576
9.704044,5.117495909022042,0.0990486859283193
9.706452,5.13546948976942,0.0986919483263433
9.708835999999998,5.150230264956883,0.0983951251257251
9.711216,5.164571731263764,0.0981280776938694
9.71362,5.178493888690065,0.0978871881266014
9.716008,5.192788133168703,0.0976768801385313
9.718388,5.209596335072956,0.0974605418617001
9.720783999999998,5.22547337141743,0.0972544784156585
9.723171999999998,5.241722494814242,0.0970797432825613
9.725552,5.256900683024415,0.096925225318816
9.727956,5.272870267167506,0.0967709278685389
9.730344,5.293775218363209,0.0965564723314541
9.732724,5.317753205491969,0.0963017838005197
9.735119999999998,5.343453754113425,0.0960413546066221
9.737507999999998,5.371296173108158,0.0957463696267197
9.739888,5.397416030610194,0.0954633375631824
9.742292,5.421533787365815,0.095207677496092
9.744675999999998,5.445511774494574,0.0949628075478713
9.74706,5.4629243808766415,0.0948271808960597
9.749464,5.481547692072208,0.0946676542689032
9.751848,5.497749593640777,0.0945594090523021
9.754228,5.514650343343647,0.0944081047347197
9.756624,5.533553193792933,0.0942337262247563
9.759011999999998,5.551804417936162,0.0940505277885323
9.761392,5.573547986893026,0.0938017934385288
9.763796,5.59678179991711,0.0935157343333735
9.766184,5.614288849955663,0.0932838024723146
9.768564,5.62951425999408,0.093091365105165
9.77096,5.6432966477935205,0.0928911131039492
9.773348,5.655076934846544,0.092714753717879
9.775728,5.667928157086208,0.092523082184527
9.778132,5.6759837819001175,0.0923780461155355
9.78052,5.679895435594336,0.0922887096399409
9.7829,5.677940556676161,0.0922606530623933
9.785296,5.6750545121982094,0.0922400138478853
9.787684,5.671377071787339,0.0922182539920471
9.790064,5.668770566563109,0.0921807503195759
9.792459999999998,5.663370564659542,0.0921652806338452
9.794847999999998,5.665746648316165,0.0920233504187019
9.797228,5.666539940106952,0.0918800365538417
9.799632,5.6714772030174325,0.0916838779172646
9.80202,5.675063991487554,0.0915196321628721
9.8044,5.6777196143978985,0.0913635303136851
9.806804,5.681306402868021,0.0912008979217976
9.809192,5.682751320964867,0.0910692642508224
9.811571999999998,5.680052267942019,0.0909896548601029
9.813976,5.683359517158421,0.0908451682165842
9.816364,5.690950507121376,0.0906412111770775
9.818744,5.698541497084332,0.0904387064776384
9.821136,5.709996918913261,0.0902026977890873
9.823524,5.721452340742191,0.0899681287046081
9.825904,5.735980798504176,0.0896978544658266
9.828308,5.752930665893159,0.0893830801497392
9.830692,5.780170576267946,0.0889502153592056
9.833075999999998,5.807270717015873,0.088525793920756
9.835468,5.835022484069858,0.0881127542320103
9.837856,5.8627742511238425,0.0877025668469073
9.840236,5.893319514857162,0.0872722901365644
9.842631999999998,5.917159628216929,0.0869459576174673
9.845016,5.939509497509478,0.0866574705970142
9.847396,5.956923999749415,0.0864171821640627
9.849792,5.979273869041964,0.086132892928803
9.85218,5.998410932774597,0.0858895351800459
9.854575999999998,6.020621032440287,0.0856167487932125
9.85698,6.042691362479115,0.0853520607701468
9.859364,6.065692858077723,0.0850807189356775
9.861743999999998,6.085900856996995,0.0848304826424588
9.86414,6.105037920729628,0.0845963961479831
9.866528,6.120822409275486,0.0844098667219861
9.868908,6.13302200520909,0.0842402577488819
9.871312,6.145221601142694,0.0840717820614582
9.8737,6.154208391516383,0.0839429314648371
9.876079999999998,6.163567268942409,0.0838398103717639
9.87848,6.166780074502324,0.0838012302465816
9.880868,6.172134750435516,0.0837373720025486
9.883247999999998,6.17776896562243,0.083659177003776
9.885644,6.183682720063063,0.0835669461770323
9.888032,6.190155553011137,0.0834461928798758
9.890412,6.201471205213207,0.0832466992747897
9.892816,6.217070598161831,0.082998915109196
9.895204,6.238676293349704,0.0827009438194018
9.897583999999998,6.254415455925188,0.0824490663190817
9.89998,6.272855567381389,0.0821433000187706
9.902368,6.284358211038562,0.0818950282019665
9.904748,6.297862955442151,0.0816309210281633
9.907148,6.310716073539683,0.0813572237401966
9.909532,6.322358486823716,0.0811026852570719
9.911912,6.332138568988192,0.0808581772714133
9.914312,6.347273327085862,0.0805543625870629
9.9167,6.363059711489589,0.0802600288942098
9.91908,6.376983764773758,0.0799757377149139
9.921475999999998,6.393980853990984,0.0796621649307479
9.923863999999998,6.407812359476536,0.0793394697545833
9.92626,6.419641764215672,0.079032608153988
9.92866,6.4276067370888335,0.078752510970727
9.931048,6.431567508469163,0.0785051380146964
9.933428,6.431384308729798,0.0782978299311781
9.935824,6.429850634550076,0.0781172638251317
9.938212,6.425755781116494,0.077982197192728
9.940592,6.41658579100344,0.0778912174182604
9.942992,6.401549268277996,0.0778409032162801
9.945376,6.392798587045523,0.0777282935330648
9.947755999999998,6.382557661745831,0.0776478405149995
9.950152,6.376460707565832,0.0775285161764283
9.952544,6.366127234467523,0.0774090408984387
9.954923999999998,6.357935631742492,0.077266530314281
9.95732,6.3510945034578175,0.0770983606734346
9.959712,6.346395245546422,0.0769076841862997
9.962091999999998,6.339973426142329,0.076718991300226
9.964488,6.333831145991956,0.0765163167362587
9.966876,6.331832836961277,0.0762775928532636
9.969256,6.331464541624678,0.0760018993728267
9.971656,6.329606002220862,0.075755862529984
9.974044,6.328818398003682,0.0754980042646087
9.976423999999998,6.333105930465974,0.0752009484521481
9.97882,6.340606268488182,0.0748705681139867
9.981208,6.353321512816724,0.0744935304950487
9.983604,6.365105591585486,0.0741200930630644
9.986,6.375306878488413,0.0737394651516001
9.988388,6.389791906137893,0.0733168082045178
9.990768,6.408141365653347,0.0728730705296243
9.993168,6.418202882929412,0.0725015142270108
9.995552,6.431477205765393,0.07209950943488
9.997932,6.444751528601375,0.0717001914133341
10.000328,6.46133120479589,0.071307351292924
10.002716,6.477491572109823,0.0709376897614686
10.0051,6.495374500916453,0.0705706013592411
10.007496,6.513117660096222,0.0702128580553112
10.009884,6.524574977783021,0.0699073004223215
10.012263999999998,6.539105331402874,0.0695812181290261
10.01466,6.549491713903035,0.0692899926090123
10.017048,6.556385751589559,0.0690429996308868
10.01944,6.568354925955556,0.0687604467361131
10.021836,6.583397136254607,0.0684567240134644
10.024224,6.59215350506069,0.0682048001591938
10.026604,6.60049056498619,0.0679732929735009
10.029008,6.610410416777526,0.0677522808313275
10.031396,6.62233236931528,0.0675195422652159
10.033776,6.637839214465285,0.067282816417627
10.036172,6.650133254055376,0.0670752688053776
10.03856,6.65455866028666,0.0669080397944836
10.04094,6.666061303943831,0.0666954032578936
10.04334,6.675282307600867,0.0665089461463351
10.045728,6.682221671257765,0.0663478007606321
10.048108,6.687298703795106,0.0661920871425321
10.050504,6.691304801145809,0.0660458203558092
10.052892,6.694239963309874,0.0659094573570585
10.055272,6.6971751254739385,0.0657737215951011
10.057672,6.70797892099681,0.0655982063782296
10.06006,6.713288270959628,0.065474425473724
10.06244,6.719668556109085,0.0653417669531798
10.064836,6.725629532377961,0.0652280693533076
10.067224,6.729588407900422,0.0651262967267475
10.06962,6.7334075137960205,0.0650318463662643
10.072016,6.739228720438038,0.0649255266286774
10.074404,6.7482627326399705,0.0647936576549954
10.076784,6.748496945923317,0.0647020265068187
10.079184,6.749662324766441,0.0646085774071417
10.081572,6.749896538049788,0.0645178301626723
10.083952,6.749990981706275,0.0644332180722694
10.086348,6.758093828348428,0.0643045273975181
10.088736,6.763123639057527,0.0641961866308278
10.09112,6.769364154580123,0.0640732811478346
10.093516,6.772671403796524,0.0639623867148413
10.095904,6.7798430848789,0.0638369029510127
10.098288,6.786363139655218,0.0637008338407496
10.100684,6.789018762565562,0.0635794952797423
10.103072,6.7886013495428505,0.0634773215426858
10.105452,6.785390439840805,0.0633819267793911
10.107848,6.784740709392616,0.0632502409090594
10.110236,6.783951209317567,0.0631249780925845
10.112616,6.786654054056154,0.0629619869006327
10.115016,6.789636438048463,0.0627865556802152
10.1174,6.787683454988159,0.062633731861991
10.119784,6.792947478980602,0.0624370070382554
10.12218,6.794998697413131,0.0622658314506149
10.124568,6.80426692289841,0.062049543417738
10.126964,6.810741651704354,0.0618396379336918
10.129359999999998,6.814702423084684,0.0616227895372174
10.131752,6.821876000024928,0.0613824350030264
10.134132,6.82998074252495,0.0611427574411747
10.136532,6.836362923532277,0.0608999613167642
10.13892,6.843024643793323,0.0606461824355195
10.1413,6.859696867786454,0.0603467495434975
10.143695999999998,6.8754379262198055,0.0600518754388707
10.146083999999998,6.890899445399438,0.0597687180563492
10.148464,6.911575870885404,0.0594539484956058
10.150859999999998,6.935604871558144,0.059110820776658
10.153248,6.958702706671108,0.0587697710614592
10.155632,6.9836628729036265,0.0584285072522418
10.158027999999998,7.007691873576368,0.058088710436267
10.160416,7.028787607942914,0.0577608937333231
10.162796,7.049743572682599,0.0574403412583698
10.165192,7.077776774848175,0.0570882138792493
10.16758,7.094868307721886,0.0567816572808841
10.169964,7.113450084662817,0.0564512791394266
10.172363999999998,7.131612552723166,0.0561416434349206
10.174751999999998,7.151497582276213,0.0558363408264591
10.177132,7.173896569254874,0.0555400965889264
10.179536,7.1932225203004805,0.0552602079369917
10.181924,7.207473334666614,0.0550041042483238
10.184304,7.224517645712082,0.0547453567909887
10.186699999999998,7.237278216010996,0.0545140516823643
10.189087999999998,7.241238987391325,0.0543101583772388
10.191468,7.241475096532541,0.0541100303595159
10.193864,7.242921910487256,0.0538971782201891
10.196252,7.243297789255332,0.0536921306524829
10.198632,7.242183423956189,0.0535114379779288
10.201028,7.242651850522883,0.0533408757889308
10.203416,7.240978406716299,0.0531838449970618
10.205811999999998,7.241446833282991,0.053014016189675
10.208208,7.245779691715659,0.0528365109493666
10.210596,7.251183485334963,0.0526532641269255
10.212976,7.248578875968601,0.0524977078107139
10.215372,7.253842899961047,0.0523202341823153
10.217759999999998,7.256825283953353,0.0521612633157065
10.22014,7.256083005706547,0.0520044072686339
10.22254,7.2505451300339905,0.0518551638207417
10.224927999999998,7.243144923241876,0.0517068494589689
10.227308,7.236024255703483,0.0515466180382145
10.229708,7.229043357791949,0.0513798099228478
10.232096,7.221922690253555,0.0512190730133131
10.234476,7.218666454581134,0.0510504935977543
10.236876,7.219274650774688,0.0508741558329222
10.239264,7.219743077341381,0.0507027814818304
10.241648,7.222353374281351,0.0505199276066979
10.244044,7.219748764914988,0.0503611051770577
10.246432,7.216492529242568,0.050190893523269
10.248816,7.2096514009578945,0.0500156824410735
10.251212,7.200016775993887,0.0498406075615846
