Time,Force,Position
9.57388,2.835709350338642,0.157735108461249
9.614512,2.9776298030060118,0.1574101121730129
9.616896,2.9828900352827183,0.1573458511844384
9.61928,2.993085634612036,0.1570843069793441
9.62406,3.0022556247250898,0.157047973393333
9.626444,3.012543771853025,0.1568655975708685
9.62884,3.02255237972724,0.1567239825087894
9.631228,3.034283549094152,0.1565276848481206
9.633608,3.049459841446456,0.1562395862002247
9.636012,3.068500565664733,0.1558018544933044
9.638396,3.089263851375708,0.1553021668867998
9.640776,3.1081648059671254,0.1548774483774659
9.643176,3.126274364625625,0.1544779610998402
9.645564,3.145734397724484,0.1539969651335591
9.647944,3.166405135636841,0.1534636293135097
9.65034,3.182839354630887,0.1530385448446271
9.652728,3.194477976199181,0.15278405006968
9.655107999999998,3.209469172954252,0.1523630522277747
9.657504,3.2271140967617966,0.1518768791969628
9.659892,3.2471332083680964,0.15135581712808
9.662288,3.2690146510939524,0.1507814230456135
9.664687999999998,3.2884746841928103,0.1503513371134343
9.667072,3.305792846918392,0.1500246574676979
9.669456,3.32497334076353,0.1496304830293716
9.671852,3.340568941996415,0.1493323193077446
9.674236,3.353790355430545,0.1490741191109682
9.67662,3.364358041812201,0.1488848530918547
9.722032,3.3760419893508686,0.148827291084099
9.7268,3.3729708492756827,0.14869923836669
9.729204,3.373297610357646,0.1485838872094236
9.733972,3.3680845999091837,0.1485412012459645
9.736368,3.365338325058092,0.1485350788038792
9.738756,3.363802755020499,0.1484720109491556
9.741136,3.367854178341576,0.1482524549662107
9.743531999999998,3.3785635302079613,0.1478293182468588
9.745919999999998,3.3887610253951483,0.1473850796463824
9.7483,3.402730404649692,0.1467663389383095
9.750699999999998,3.414046056851762,0.1462043821829716
9.753087999999998,3.4300175368527226,0.1455009422868382
9.755468,3.4479911176001,0.1447225056328812
9.757864,3.4675947120415573,0.1438473951398661
9.760252,3.480400608310846,0.1431880868000035
9.762632,3.4970709364461072,0.1424104028011374
9.765028,3.509177984581094,0.1418345038833036
9.767416,3.518723853462225,0.1413879347400818
9.810432,3.5541496789884364,0.1410849056381568
9.812812,3.566392705034545,0.1409985811912349
9.815207999999998,3.58361831996151,0.1406952481771584
9.817595999999998,3.604987906008169,0.1402670804498874
9.819976,3.6322240246672166,0.1396832666670452
9.822375999999998,3.664535280005738,0.1389586259523154
9.824763999999998,3.7019216720237313,0.1380845308915977
9.827144,3.7383768984819454,0.1372480826241343
9.82954,3.779907261619632,0.1362868152869144
9.831928,3.831308358862544,0.1350729856325886
9.834324,3.8789847938663415,0.1339330807310796
9.83672,3.924938667377442,0.1328300374640241
9.839108,3.9623722812236783,0.1319393760295924
9.841487999999998,3.997524255069777,0.1311318368909135
9.843884,4.0332353074233165,0.1302590273464064
9.846272,4.066711941604963,0.129401939664827
9.848655999999998,4.089805985002188,0.1287881368804095
9.85106,4.1074528046676,0.1282834338749485
9.853448,4.1288242865721285,0.1276932291566129
9.855828,4.152477408476793,0.1270348209035325
9.858224,4.177481004821817,0.1263188662917592
9.860612,4.198340630047147,0.1257264403491395
9.862991999999998,4.214636975272202,0.1252958724688741
9.886892,4.175582827021232,0.1251130571399664
9.889276,4.172604234744664,0.1250504596992373
9.891656,4.170277268774152,0.1249955027024678
9.894056,4.168881468363419,0.1249239600005225
9.896444,4.169347999072243,0.124817774151812
9.898827999999998,4.1738187312739,0.1246192021213649
9.901224,4.180710873102555,0.1243415928795134
9.903612,4.182667647878598,0.1241720478987605
9.905992,4.180620221161807,0.1240923895598749
9.908388,4.1817856000049325,0.1239268797052535
9.910775999999998,4.182950978848057,0.1237603688134924
9.91316,4.187561480676576,0.1235518087001295
9.915556,4.19254406955743,0.1233748052846316
9.917944,4.196595492878507,0.1232126260777593
9.92034,4.203440412878918,0.1230006572652797
9.922736,4.206932757692556,0.1228889338873085
9.925124,4.214289534372165,0.1226965356694375
9.927504,4.222717246238413,0.1224743557159978
9.9299,4.227560065492408,0.1223094502986476
9.932288,4.233054511052461,0.1221544504321837
9.934668,4.245346654784682,0.1218619972364856
9.937064,4.248699229971457,0.1217650925485644
9.939452,4.253402279598593,0.1216164595868712
9.941836,4.259036494785505,0.1214538281632573
9.944232,4.271468408144588,0.1211595438047402
9.94662,4.284691717436587,0.1208682844228192
9.949000000000002,4.293491516355172,0.1206979512419393
9.9514,4.30694714307265,0.1204531474031977
9.953784,4.329062799081853,0.1200543022927281
9.956164,4.349827980650696,0.11970978978982
9.958564,4.373526428525734,0.1193106314585437
9.960947999999998,4.396153941214133,0.1189413920305996
9.963348,4.421063093902672,0.1185117597754533
9.965744,4.449045282524264,0.1180142024304585
9.968132,4.475816766332359,0.1175592290508036
9.970516,4.503007559021033,0.1170659774561315
9.972912,4.531641373948685,0.1165843470072986
9.9753,4.559995649622613,0.1161250987115605
9.97768,4.5896531779086605,0.1156819945706387
9.98008,4.6162376702616505,0.1153042200788962
9.982468,4.639609357054726,0.1150099760103571
9.984848,4.66991851164683,0.1145823233780346
9.987244,4.700879292544991,0.1141698271607436
9.989632,4.731700303816291,0.1137760098752517
9.992012,4.756794552102063,0.1134804161394988
9.994408,4.774811562961946,0.1133188748078437
9.996796,4.794039278635328,0.1131205165643289
9.999176,4.806609065763401,0.1130261881774584
10.001572,4.814802564346302,0.1129808176810409
10.003964,4.823275602182925,0.1129149572440924
10.011128,4.830398165579187,0.1128940335655655
10.013512,4.832120727071883,0.1128793514932181
10.015904,4.836404467818437,0.1127889974566799
10.018296,4.843481705244328,0.1126625655915353
10.020692,4.84939545968496,0.1125111108851063
10.023088,4.859592954872149,0.1122743245415805
10.025476,4.872491398940054,0.1119578282725939
10.02786,4.887019856702039,0.1115792000027036
10.030256,4.899825752971326,0.1112134270049026
10.032644,4.909046756628362,0.1108866111026046
10.035024,4.917476364352479,0.1105639623479943
10.03742,4.925254345770538,0.1102357331175065
10.039812,4.9342430320020965,0.1098764752494061
10.042192,4.949797098980347,0.1093795452970795
10.044592000000002,4.968424201891652,0.1088344700507132
10.04698,4.995851103721542,0.1081623725032151
10.04936,5.022067300737933,0.107525405899514
10.051756,5.045350231448131,0.1069300585266955
10.054144,5.070495493277884,0.1063140714950965
10.056528,5.102950309959002,0.1056264127256509
10.058924,5.138338392946318,0.104896943374702
10.061312,5.166928777761464,0.1042659346484563
10.156884000000002,4.966477081023443,0.1040084595524556
10.159288,4.972855470315032,0.103949774629619
10.161676,4.977231758860203,0.1039203248243864
10.164056,4.986962723338567,0.1037951762080559
10.166452,5.008706292295431,0.103496868484927
10.16884,5.030589630879157,0.1031915545604625
10.171219999999998,5.052472969462881,0.1028871986339839
10.173624,5.07808097028572,0.102540965145449
10.176012,5.106901776668473,0.1021352158122771
10.178392,5.142520281223397,0.1016366724547534
10.180788,5.175717376151321,0.1012006057926783
10.183176,5.208914471079248,0.1007660013069077
10.185555999999998,5.237315968581421,0.1003917361713414
10.187952,5.259711163844344,0.1001016187274682
10.19034,5.281734272054928,0.0997873989544138
10.19272,5.298961782839761,0.0995334175507572
10.195116,5.31339579694526,0.0993092029751172
10.197504,5.330902846983814,0.0990373645484305
10.199884,5.346175478850474,0.0987612177666297
10.202279999999998,5.360936254037936,0.0984700590588269
10.204668000000002,5.378118438852397,0.0981310765868418
10.207052,5.393158753293578,0.0978299810014515
10.209447999999998,5.409409772548259,0.0975037840038597
10.211832,5.428733827735996,0.0971426943684291
10.214216,5.441260184751563,0.0968621497271252
10.216612,5.450993045087797,0.0966058779292448
10.219,5.459654970237391,0.0963660702809482
10.221396,5.469155513148148,0.0960763001738033
10.223792,5.480006530499262,0.0957559484167884
10.22618,5.492068252663876,0.0954153952254856
10.228559999999998,5.506411614828626,0.0950360469031667
10.230956,5.522757077739794,0.0946358327215071
10.233344,5.543246511770656,0.0941815480495228
10.235724,5.573234592854404,0.0935960924489486
10.238128,5.60401406987107,0.0930185956030615
10.240516,5.638006352447651,0.0923975627210101
10.242895999999998,5.67507167095729,0.0917424247674137
10.245292,5.709203723160732,0.0911163486601723
10.24768,5.740262739431119,0.0905293946674579
10.25006,5.767038014954951,0.0900026080727731
10.25246,5.787667218612672,0.0895551549220413
10.254848,5.805782464844779,0.0891101074446808
10.257228,5.819893509584053,0.0887085191337916
10.259628,5.825856381710799,0.0884058590196578
10.262012,5.832750419397324,0.0880960636845592
10.264396,5.842437953763183,0.0877653731817896
10.2668,5.853336192942541,0.0874110991272059
10.269188,5.861533483241181,0.0871207960704873
10.300232,5.703622591994157,0.0870663167797355
10.302628,5.700736547516205,0.0870430619865086
10.305015999999998,5.7045084315835615,0.0869697394277723
10.307412,5.712284517143751,0.0868560061617628
10.309812,5.72113153789058,0.0867290284526305
10.312196,5.72890762345077,0.0866163454839594
10.31458,5.736543939384099,0.086511926406223
10.316976,5.747253291250485,0.0863743019681166
10.31936,5.7641087149829815,0.0861712454976866
10.321744,5.779753433901979,0.0859883669873359
10.32414,5.798471188754032,0.085772065933282
10.326528,5.816257778046307,0.085561162493026
10.328912,5.833252971405663,0.0853480674005203
10.331316,5.853600739951795,0.0850849149291289
10.3337,5.883167616297094,0.0847249399212187
10.336084,5.915667758948587,0.0843408626367744
10.33848,5.94258090824141,0.0839928208712947
10.340864,5.969633827161093,0.0836440431607038
10.343248,5.997245824588217,0.0832677705825144
10.345644,6.022064325336007,0.0829121271640211
10.348032,6.054099833136546,0.0824853855957932
10.350412,6.080408577951555,0.0821028753273266
10.352808,6.099407767915198,0.0817555589054012
10.355196,6.117755331572783,0.0814003252944782
10.357575999999998,6.136102895230368,0.0810476982931505
10.359976,6.157803034074727,0.0806539343172048
10.362364,6.1827159784790044,0.0802276366897839
10.364743999999998,6.2071170662040815,0.0797886313197615
10.36714,6.226582786876548,0.0793913815587171
10.369528,6.251403183482206,0.078936700971862
10.371924,6.278505220088003,0.0784576711008777
10.37432,6.310030767067212,0.077929226260984
10.376704,6.342767018859921,0.0773830245738511
10.379088,6.373780709159933,0.0768408131084217
10.381484,6.393712960541224,0.0763906756660623
10.383872,6.412062420056678,0.0759376303557839
10.386252,6.4332053762514665,0.0754703191047436
10.388648,6.447410864647226,0.0750534093326848
10.391036,6.457192842669572,0.0746876821968964
10.393415999999998,6.465903885505279,0.0743330871066135
10.395816,6.466606525355319,0.0740407311582588
10.398204,6.466517769272439,0.0737442221720379
10.400583999999998,6.475228812108146,0.0733924215742856
10.40298,6.482868919757214,0.0730518025608971
10.405368,6.483571559607253,0.0727571200057793
10.407748000000002,6.4791990627778215,0.0725034940200409
10.410148,6.470682594828696,0.0722865813165372
10.412536,6.459744717252571,0.0721048451407577
10.414932,6.448015443743529,0.071918936784227
10.417328,6.433073364674572,0.0717649330327281
10.419716,6.411705674485781,0.0716735616329254
10.422096,6.386054243550438,0.0716225791965939
10.424496,6.36291677004071,0.0715738635421815
10.42688,6.342293253956596,0.0715277771677151
10.42926,6.330609306417927,0.0714237602241833
10.431656,6.3187855892524,0.0713260741837102
10.434044,6.306961872086871,0.0712281798051613
10.436424,6.302075622720371,0.0710866373950133
10.438824,6.302404279660204,0.0709013177916181
10.441212,6.303803871786676,0.0707057993204986
10.443592,6.306786255778984,0.0705163588554486
10.445996,6.310560035704208,0.0703299123496946
10.448384,6.308839370069382,0.0702021006921431
10.450764,6.3108433666736685,0.0700622631237368
10.45316,6.325511594062514,0.0698555094374842
10.455548,6.343904483690472,0.0696368698898699
10.457932,6.364159704437986,0.0694126029451623
10.460328,6.38576539962586,0.0691652945923209
10.462716,6.408953886679569,0.0689251764818842
10.465096,6.4321423737332815,0.0686856520553853
10.467492,6.463618803026379,0.0683838471993325
10.46988,6.496026397879257,0.0680792891701889
10.472264,6.522846999373462,0.0677931750652427
10.47466,6.546874104188334,0.0675169789221608
10.477048,6.566245381204314,0.0672581647539447
10.47944,6.583474787847017,0.0670179755476021
10.481836,6.600704194489718,0.0667782452240209
10.484224,6.612858464452949,0.0665733349619902
10.486604,6.6239417992295415,0.0663795790372115
10.489,6.635956299565912,0.066184149087076
10.491388,6.650392209529279,0.065957409127716
10.493772,6.66976348654526,0.0657067462298996
10.496175999999998,6.687691741322264,0.0654407716773907
10.49856,6.703897434606571,0.0651761160018101
10.50094,6.711582868226012,0.0649425021316865
10.50334,6.71675434441984,0.0647037937487089
10.505728,6.72127419430761,0.0644552443420452
10.508108,6.728447771247854,0.0642079940680674
10.510504,6.738834153748014,0.0639366059442557
10.512892,6.748429140315257,0.0636610644692518
10.515276,6.747454544642974,0.0634642018929211
10.517676000000002,6.744617617851134,0.0632711101778437
10.520064,6.746576288485047,0.0630609266864089
10.522444,6.748814498372679,0.062837647790238
10.524848,6.749562464193093,0.0626412228348129
10.527235999999998,6.755385566692977,0.0624158503049518
10.529616,6.761488208446584,0.0621781430144141
10.532011999999998,6.772665986879662,0.0619121329728461
10.534400000000002,6.781701894939464,0.0616630728081
10.53678,6.789666867812627,0.0614230517583567
10.539176,6.799494171805346,0.0611814609726214
10.541564,6.804246339118594,0.0609691447269909
10.543944,6.813654334230732,0.0607486255379621
10.546344,6.822782790089151,0.0605416696513132
10.548728,6.835635908186681,0.0603284352664359
10.551112,6.849000882963411,0.0601322616610129
10.553508,6.863017484046199,0.0599477368788662
10.555892,6.872238487703234,0.0597781459646583
10.558288,6.878665994680936,0.0596145961178849
10.560683999999998,6.888026767964831,0.0594411660158313
10.563071999999998,6.907165727555333,0.0591933701151029
10.565452,6.932171219758226,0.0589263141714601
10.567856,6.955454150468424,0.058658178099958
10.570244,6.982042434537152,0.0584041955529521
10.572627999999998,7.013845624912213,0.0581202848686727
10.575024,7.0429950882348,0.0578378568775904
10.577412,7.073075717117165,0.05755641416541
10.579795999999998,7.0983607485737785,0.0572888344645323
10.582192,7.126718815963447,0.0570068047536407
10.58458,7.156147818539754,0.056719000170131
10.58696,7.18050168443659,0.0564557961747962
10.589356,7.2040641544005055,0.0561869068685964
10.591743999999998,7.224693358058228,0.0559290450906437
10.594124,7.2425290650366145,0.0556744586907473
10.596519999999998,7.258362671268584,0.0554290990369567
10.598908000000002,7.275546751940912,0.0551660758490874
10.601288,7.291799667053463,0.0549047895116218
10.603687999999998,7.311917014031987,0.0546343434412524
10.606072,7.332546217689709,0.0543813993389319
10.608456,7.351964716533932,0.0541428263086164
10.610852,7.36695970500474,0.0539389751937671
10.61324,7.377159096049796,0.0537463935314253
10.615624,7.388010113400912,0.0535651245018254
10.618023999999998,7.394345072579995,0.0533822956657376
10.620408,7.395744664706466,0.0532149183145477
10.622804,7.398587279071916,0.053063703368794
10.6252,7.402081519743421,0.0529238137265214
10.627588,7.409300422654039,0.0527816773455703
10.629967999999998,7.4158676992586,0.0526300312183438
10.632364,7.420712414370464,0.0524742920400399
10.634752,7.430632266161802,0.052299792920975
10.637132,7.445487485005749,0.052112473483622
10.639528,7.459691077543639,0.051914916440041
10.641915999999998,7.476688166760864,0.0517160390117278
10.644296,7.491822924858534,0.0515178484786779
10.646692000000002,7.504676042956065,0.0513375041932224
10.64908,7.516737765120678,0.0511521855904393
10.651476,7.522932954672901,0.0509799864297718
10.653872,7.528616287545925,0.0507920411535914
10.65626,7.532437289299394,0.0506049343052877
10.658639999999998,7.534256190306446,0.0504236171784666
10.661036,7.53500415612686,0.0502476157445198
10.663424,7.532818855641079,0.0500779032248132
10.665807999999998,7.532775425528574,0.0498961649739835
10.668204,7.535805031349126,0.0497024675477529
10.670592,7.535109974930563,0.0495098568115969
10.672972,7.531761191459526,0.0493127045031346
10.675368,7.521474940189459,0.0491329449227301
10.677756,7.506113552239921,0.0489698476246457
10.680140000000002,7.491403790596442,0.0488171846190991
10.682536,7.468685625967294,0.0486873091323672
10.684924,7.441963259845312,0.0485686733291795
10.687308000000002,7.412959253723192,0.0484657972439033
10.689704,7.379159650175322,0.0483683014830188
10.692092,7.345499816254312,0.0482639765126131
10.694475999999998,7.308115320094188,0.048159067681195
10.696872,7.268449183933927,0.0480705255278561
