Time,Force,Position
9.010048,2.1682114792697296,0.1757093255149645
9.012436,2.266384213348341,0.1732663243238695
9.014816,2.3562709010454346,0.1714577306688207
9.01722,2.438523168667067,0.1700509792031141
9.019608,2.527994339199318,0.167570213840896
9.021988,2.6113685555515707,0.1651740172902273
9.024384,2.684641616230992,0.1632251943369909
9.026772,2.756705867954784,0.161221889490253
9.029152,2.8232775699763906,0.1592854210548658
9.031552,2.8798406641237837,0.1576803262989622
9.033936,2.936173336703568,0.1557926108847649
9.03632,2.981473688050742,0.1541336768826868
9.117572,3.167432773707805,0.153124622677132
9.11996,3.1765574378504846,0.152939924040723
9.12234,3.1928991090459147,0.152449952251336
9.124744,3.2061677443082885,0.1520921524847547
9.127128,3.2230684940111582,0.1515471484696151
9.129508,3.240388552594609,0.1509431957189106
9.131904,3.256265588939083,0.1503421948985707
9.134292,3.27163076860436,0.1497173451914715
9.136672,3.28513361715008,0.1491510676317991
9.139076,3.297006452001721,0.1487129527761805
9.141464,3.3059460205471667,0.1483940557759282
9.143848,3.3170274594658897,0.1479871897490262
9.146252,3.333184035064085,0.1473902559032441
9.148636,3.348269675475642,0.1468454746059032
9.15102,3.358140409580866,0.1465038183041673
9.153416,3.3713637188728653,0.1460224248575485
9.1558,3.3830042362990294,0.1455659100017035
9.15818,3.3975780200313874,0.1450282601543367
9.160584,3.416715083764021,0.144295313568793
9.162972,3.435712377869794,0.1435814192923329
9.165352,3.4531268801097306,0.1428962476807927
9.167748,3.470261843095947,0.1422543037697094
9.170136,3.4880484323882217,0.1416290722781321
9.172516,3.5034136120534987,0.1411033970611734
9.17492,3.517707856532137,0.1406300953281556
9.177308,3.5358665328767485,0.140053198602923
9.179688,3.556678936273835,0.1394199624105172
9.182084,3.5777236570963997,0.138834030301609
9.184472,3.5983490690383824,0.1382822653033556
9.251364,3.693261775728836,0.138121842525227
9.253768,3.7006638783788186,0.1380224839051148
9.256152,3.7104873906558,0.1378232645508174
9.258536,3.722545321104675,0.1376193343930947
9.260932,3.741121410471999,0.1372642099819512
9.263316,3.761047974279681,0.1368404773368384
9.2657,3.7789724373409466,0.136479296338395
9.2681,3.793684094842296,0.1362298492561356
9.270488,3.80490340753001,0.1361136724514926
9.272868,3.827716015815645,0.1357051946334329
9.275264,3.851599559287917,0.1352678486904756
9.277648,3.870827274961298,0.1349365118831543
9.280028,3.8869347328733808,0.1347707851990186
9.282428,3.9075582489574954,0.1345119189314788
9.284816,3.928181765041608,0.1342548460069147
9.287211999999998,3.949783668513744,0.1339076742139377
9.289608,3.972596276799377,0.1335091311389199
9.291996,3.9941981802715127,0.1331602344889513
9.294376,4.021014990049982,0.1326570826863472
9.296772,4.043455511283278,0.1322358540669087
9.29916,4.0632423054641,0.1318680617630163
9.30154,4.082237703712004,0.13150938376078
9.30394,4.098299835653712,0.1312248437302402
9.306328,4.113570571662504,0.1309529160262169
9.308708,4.121531752819928,0.1308201832821812
9.311103999999998,4.131495034723769,0.1306385425622335
9.313492,4.139176676627472,0.1305310622059507
9.315876,4.15128182890459,0.1302882249265838
9.325436,4.1546816259196095,0.1301065609802166
9.327824,4.156498631068793,0.1299402461138898
9.330208,4.158362858046218,0.1297054294412513
9.332604,4.158504523530948,0.1294947318246025
9.334992,4.15594524013496,0.1293968839671966
9.337376,4.155527827112249,0.1292377134069018
9.339772,4.157531823716535,0.1289935068140547
9.34216,4.155671388454848,0.1288340449505659
9.344544,4.154742118752938,0.1286566250109148
9.34694,4.155023553864528,0.1284375348597223
9.349332,4.154513593043199,0.1282232888390314
9.351712,4.156145502595147,0.1279497230093227
9.354116,4.153401123601925,0.1277380169864732
9.3565,4.156523277221092,0.1273958836039761
9.35888,4.160995905280619,0.1270056207727035
9.361284,4.168960878153783,0.1265016219194924
9.363672,4.171710944720613,0.1261354907330715
9.366052,4.180607083153554,0.1256222647899019
9.368448,4.198023481251361,0.1249455444258311
9.370836,4.221166642334697,0.1241638851389299
9.373216,4.244589342671754,0.1233599223903137
9.37562,4.263448763008535,0.1227015314678798
9.44968,4.223508775168161,0.1226107288322327
9.452076,4.225231336660857,0.1225917281543824
9.45448,4.235102070766081,0.1223885795561792
9.456864,4.244833035244445,0.1221984356932383
9.459244,4.255355395655728,0.1220033974203088
9.46164,4.27202382793312,0.1216662363676421
9.464028,4.290275052076349,0.121321289821346
9.466404,4.308246736965858,0.120993338102939
9.468808,4.32449586036267,0.1206886144237667
9.471196,4.344888954879176,0.1202917015500629
9.473576,4.367703459022678,0.1198200385935936
9.475972,4.396664035032293,0.1192146008010355
9.478356,4.419478539175796,0.1187516232780806
9.480735999999998,4.444155374438856,0.118262001628694
9.48314,4.470834310448333,0.1177411967728278
9.485528,4.488061821233167,0.1173858645015988
9.487908,4.501145360898307,0.1171238936307381
9.490304,4.517301936496502,0.1167958449601279
9.492692,4.5388131880278895,0.1163439592512684
9.495072,4.562326540305694,0.1158547360307353
9.497476,4.580764755904026,0.1154685653322376
9.499864,4.5959901659424425,0.1151564882918901
9.502244,4.609493014488164,0.1148668165650337
9.504648,4.622763545608407,0.1145380079287578
9.507036,4.641388752661842,0.1140946126503678
9.509416,4.657500002289663,0.1136755065699878
9.51182,4.674961726357843,0.1132157697045421
9.514208,4.694705090426161,0.1126943115902726
9.516588,4.71323774968098,0.1122059245685599
9.518984,4.722318983711154,0.1118581541424198
9.521372,4.73140021774133,0.1115154024203365
9.523752,4.735546084718893,0.1112602915202193
9.526148,4.745186397256508,0.1108809618286722
9.528531999999998,4.753243917928288,0.1105079137684058
9.530912,4.759578877107372,0.1101535954970623
9.533312,4.766565462592514,0.1098036941416497
9.535696,4.776904623264431,0.1093771763241889
9.538092,4.785381452816791,0.1089754974311013
9.540488,4.789714311249458,0.1086556391462418
9.542876,4.790182737816152,0.1083926166961433
9.545256,4.794795135502539,0.1080497918817017
9.547652,4.804901978748978,0.1075867859219094
9.55004,4.812355094942944,0.107149390117602
9.55242,4.816315866323271,0.1067972434389883
9.554824,4.809986594717797,0.1066358984179896
9.557212,4.801235913485322,0.1065394208655291
9.559592,4.788620800386876,0.1064999050308039
9.561988,4.778799183967764,0.1064244374639896
9.564372,4.772330142735428,0.1062728950622761
9.566756,4.773170656354459,0.1060379771711279
9.569152,4.769867198853794,0.1058807240079702
9.600212,4.729972536983796,0.1058440754973979
9.602592,4.746546525604702,0.1057162052900444
9.604988,4.766984946091582,0.1055337177111205
9.607376,4.790077093630937,0.1053278240118477
9.609772,4.811167140423875,0.1051579141302669
9.612176,4.829975547216675,0.1050423624806523
9.61456,4.850646285129031,0.1049095898612481
9.61694,4.8730395845340855,0.1047627379693233
9.619344,4.892499617632944,0.1046598901273007
9.621732,4.914613377784278,0.1045366237770328
9.624111999999998,4.941942044241944,0.1043229016115326
9.626516,4.966197674766553,0.1041597452057787
9.628904,4.998461708276831,0.1038802193904255
9.631284,5.036359956974021,0.1034818965226447
9.63368,5.07681938492507,0.1030237265662615
9.636068,5.119700222503116,0.1025157807965607
9.638448,5.164211073775241,0.1019641181083317
9.640844,5.201924226875198,0.1015005461438002
9.643232,5.239125523295956,0.1010208512925718
9.645612,5.270367739305708,0.1005706381061642
9.648016,5.303379738636399,0.1000654122573114
9.6504,5.330664974981559,0.0996293216185763
9.65278,5.358089980953581,0.099189670767178
9.655176,5.387656857298879,0.0987204266901145
9.657564,5.413638841031925,0.0982756988736124
9.659944,5.438410119951471,0.0978556313349223
9.66234,5.45694277920629,0.0974816823727866
9.664724,5.476314056222271,0.0970546929490961
9.667108,5.492891836558916,0.0966511574492306
9.669504,5.507747055402864,0.0962585740229862
9.671892,5.518877612007699,0.0959038538016546
9.674272,5.529775851187056,0.0955108667005931
9.676668,5.534947327380883,0.0951838973718209
9.679056,5.535323206148959,0.094908777281363
9.681452,5.531415344170481,0.0947026112472727
9.683848,5.525505381445585,0.0945221865413866
9.686236,5.51400842536202,0.0943888900394375
9.688616,5.5097284763312055,0.0941581316606436
9.691016,5.508102254352866,0.0939139508602828
9.6934,5.510340464240498,0.093630040043909
9.695784,5.509226098941355,0.0934044578520087
9.69818,5.509042899201991,0.0931703610368523
9.700564,5.505274806850372,0.0929577751736713
9.702944,5.497921821886501,0.0927666445373825
9.705344,5.497366535094799,0.0925080584557651
9.707732,5.501654067557092,0.0921552672991187
9.710112,5.510737197445136,0.0917587983089359
9.712508,5.52447615513207,0.091333643563035
9.714896,5.543290249498479,0.0908494925364619
9.717276,5.563315048678386,0.0903446979998088
9.719676,5.581989373417935,0.0898687240299066
9.72206,5.602898116329376,0.0894050698740616
9.724456,5.621804758494401,0.0889625965101038
9.726856,5.641502796592346,0.0885198626635695
9.72924,5.665484575436842,0.0880205329882177
9.731624,5.686393318348284,0.0875578697523837
9.734028,5.710607414618259,0.0870944533464797
9.736416,5.728815208648983,0.0866995753828221
9.738796,5.741436009321039,0.0863445613182526
9.7412,5.75619868036637,0.0859651178452775
9.743583999999998,5.772823682531257,0.0855752730436223
9.745968,5.79317334693526,0.0851628246269549
9.748364,5.818318608765014,0.0847144352095075
9.750752,5.845046662460603,0.0842716891249472
9.753132,5.86697911873044,0.0838720180890269
9.755528,5.883137590186505,0.0835673286250741
9.757916,5.89836489608279,0.0832720165492585
9.760292,5.906375194926326,0.0830574853878736
9.7627,5.913314558583225,0.0828581580900327
9.765084,5.919834613359542,0.0826830276078975
9.767464,5.93236097037511,0.0824535890108879
9.769868,5.945446405898119,0.0821950346400436
9.772256,5.962396273287101,0.0819084606137119
9.774636,5.982139637355419,0.0816073272432161
9.77704,5.997599260677181,0.0813595499160344
9.779424,6.012919114372084,0.0811170517152607
9.781804,6.024514305827875,0.0808954232006211
9.784208,6.036900893216581,0.0806750413453574
9.786596,6.051010042097986,0.0804501262900957
9.788976,6.061766615792614,0.0802737105970287
9.791372,6.070660858367686,0.0801086584770847
9.793756,6.075039042770727,0.0799622058703156
9.79614,6.076204421613853,0.0798543436551773
9.798536,6.0752279300837015,0.0797715012649605
9.80092,6.074903064859607,0.0796986348173442
9.803304,6.074857738889233,0.0796101249785972
9.8057,6.07332216885164,0.0795570850689014
9.808084,6.074068238814183,0.0794710467619026
9.810464,6.070670337657033,0.0794278316316297
9.81286,6.064618709447409,0.0793921074461058
9.815248,6.058846620491505,0.0793410249165517
9.81764,6.054797093028298,0.0792877301108367
9.820044,6.047394990378314,0.0792783337506966
9.822432,6.041203592541829,0.0792490881158884
9.824812,6.037154065078622,0.0791958744027845
9.827216,6.040321544668164,0.0790747285446303
9.8296,6.046701829817621,0.0789182383985094
9.83198,6.05815725164655,0.0787191028620791
9.834376,6.073896414222034,0.0784751785628113
9.836764,6.086702310491322,0.0782500427847764
9.839144,6.098437271573973,0.0780363392711801
9.841548,6.11082385896268,0.0778319583593626
9.843936,6.124281381538027,0.0776164997428617
9.846316,6.138949608926872,0.0773816360696392
9.848712,6.155759706688993,0.0771248981476143
9.8511,6.180578207436784,0.0768081682926651
9.853484,6.208749283371349,0.0764527013487839
9.855876,6.237851524865692,0.0760953745346119
9.858264,6.274962169345703,0.0756786437450479
9.860648,6.315657706437968,0.0752529425041211
9.863048,6.348344840544565,0.0748907034461022
9.865436,6.377307312412047,0.0745477595747757
9.867816,6.406828862786972,0.0741750679810577
9.87022,6.432206442042202,0.0738421164987944
9.872604,6.455302381297295,0.0735385594135586
9.874984,6.470389917566721,0.0732964038817839
9.87738,6.485197914582425,0.0730699507718397
9.879768,6.49413937898574,0.0728813357904181
9.882148,6.500659433762057,0.0727293204375205
9.884544,6.513325560404486,0.072528386995547
9.886932,6.525200291113998,0.0723232719192647
9.889312,6.540008288129702,0.0721009702716304
9.891708,6.550951853279433,0.0718994530232848
9.894096,6.561895418429166,0.0716982585780169
9.896492,6.568695012459204,0.071532245806106
9.898888,6.569488304249991,0.0714096465739512
9.901276,6.565997855294224,0.0713283086510014
9.903656,6.561156931898098,0.0712707774225651
9.906052,6.552451576635999,0.0712332584139041
9.90844,6.543094595067842,0.0711855192872369
9.91082,6.54132670760477,0.0711051844941464
9.913224,6.539139511261121,0.0710446765363606
9.915612,6.54281884752986,0.0709522974782914
9.917992,6.54556701823882,0.0708626482301553
9.920388,6.549525893761281,0.070756353014838
9.922776,6.556278265963077,0.0706399193847891
9.925156,6.5628908685380125,0.0705306431241519
9.92756,6.570155097419005,0.0704309984403647
9.929948,6.575556995180441,0.0703377715925935
9.932328,6.5746730514489045,0.0702972850520606
9.934724,6.578444935516261,0.0702410162756807
9.937112,6.581285654023839,0.0701882591599885
9.939492,6.589061739584029,0.0701066415163998
9.941896,6.597908760330857,0.0700157543342738
9.944284,6.611830917757158,0.0698899918121976
9.946664,6.622540269623543,0.0697925822150651
9.94906,6.634460326303427,0.0696785549281354
9.951448,6.647591087796809,0.0695483402821831
9.953828,6.658579978916914,0.0694378912517682
9.956224,6.666356064477104,0.0693565444287974
9.958612,6.669476322238404,0.0692909475953178
9.960992,6.673807284813201,0.0692089592429591
9.963388,6.672923341081666,0.0691688865576827
9.965776,6.677905929962522,0.0690983605968513
9.968172,6.682888518843376,0.0690279613500569
9.970568,6.692015078843927,0.0689274141931312
9.972952,6.697416976605362,0.068837912987523
9.975332,6.707894011046271,0.0687153933762817
9.977728,6.719581750300677,0.0685771349007216
9.980116,6.741699302167748,0.0683613857886152
9.9825,6.761163126982345,0.0681492518852178
9.984903999999998,6.7796957862371645,0.0679406116176022
9.987292,6.795155409558928,0.0677534502745246
9.989668,6.809544097694052,0.0675761134121887
9.992068,6.820347893216924,0.0674040761869216
9.994452,6.835435429486349,0.0671958703255193
9.996836,6.850662735382635,0.0669818737099848
9.999232,6.865238414972862,0.0667588195908395
10.00162,6.879162468257033,0.0665248796046854
10.004,6.894576765608422,0.0662622400321194
10.006404,6.911061998146449,0.0659909313588236
10.008792,6.929968640311475,0.0656915656559813
10.011172,6.944359224304469,0.0653958928617103
10.013572,6.9533025845656535,0.0651100185037129
10.015956,6.9606631529610015,0.0648158751315062
10.018339999999998,6.961226023184182,0.0645514222013651
10.020736,6.9671435693405535,0.0642439997633433
10.023124,6.968545057324893,0.063943178312057
10.025504,6.97315935086915,0.063619041636181
10.0279,6.966692205494684,0.0633565312998067
10.030292,6.959293894560438,0.063095676310853
10.032672,6.955387928439828,0.0627991693689625
10.035068,6.954974307132856,0.062466867177671
10.037456,6.95684232582602,0.0621137810745866
10.03984,6.957499639705686,0.0617736687675038
10.042236,6.957645096906154,0.0614180107511059
10.044624,6.957930323733482,0.0610566356308037
10.047008,6.95821555056081,0.0606957062605902
10.049404,6.961294274067473,0.0603296879362646
10.051792,6.96837719906697,0.0599471233641755
10.054188,6.9745289585066885,0.0595661225648029
10.056584,6.97704860350591,0.0592266896531354
10.058972,6.988368047423719,0.0588560480590028
10.061352,7.000339117647585,0.0584951408045093
10.063752,7.015615541229983,0.0581470907476929
10.06614,7.033965000745438,0.05778206648118
10.068524,7.046820014700839,0.057460522986085
10.07092,7.05846432384274,0.0571517603497386
10.073308,7.06475395705145,0.0568808531822562
10.075688,7.073976856566355,0.0565982014464221
10.078084,7.083199756081258,0.056315307489007
10.080472,7.084926109289692,0.0560838293943547
10.082852,7.086233153617547,0.0558720580313973
10.085252,7.08125435645243,0.0556968480073465
10.08764,7.080419530407006,0.0554991638322941
10.09002,7.079025625854143,0.0553256518110735
10.092424,7.078143577980477,0.0551693468418998
10.094808,7.080055026786147,0.0550108836517967
10.097192,7.078102043725843,0.054861897445387
10.099588,7.072516946225042,0.0547517755186011
10.101976,7.067863014284021,0.0546405345980225
10.10436,7.064699326410217,0.0545045778211449
10.106756,7.053527235550746,0.0543989370393583
10.109144,7.045428180624331,0.0542789488062971
10.111524,7.035886103458941,0.0541430628838302
10.113919999999998,7.028066587786245,0.054011637389766
10.116308,7.027603848793161,0.0538403862884183
10.118692,7.031145311292909,0.0536549400092954
10.121088,7.033755608232879,0.0534689420748866
10.123476,7.037576609986348,0.0532705717064343
10.125856,7.047264144352207,0.0530584431330688
10.128252,7.064168685770816,0.0528132255591697
10.13064,7.078139960883228,0.0525763863707787
10.133036,7.09918847342153,0.0523124652253214
10.135432,7.117675806705975,0.0520798985149557
10.13782,7.137373844803919,0.0518363937310102
10.140204,7.152695594356691,0.0515831605250276
10.1426,7.160148710550656,0.0513507917594191
10.144988,7.172257654543513,0.051116121914288
10.147368,7.185065446670672,0.0508529540369683
10.149764,7.194800202864773,0.0506018762050752
10.152152,7.205326354991794,0.0503571891338028
10.154532,7.221858809358064,0.0500927679821132
10.156928,7.233176357418002,0.049853236888036
