Time,Force,Position
11.943027999999998,3.0267590560091406,0.1751970223279201
11.945415999999998,3.182609249534288,0.1715129059545664
11.947796,3.331013910296948,0.1678987332277154
11.950195999999998,3.4641497309086864,0.1652677811494093
11.952583999999998,3.588115561407371,0.1630697385901774
11.954964,3.708498395151672,0.1608619805488912
11.957368,3.818407986170802,0.1587852647741315
11.959756,3.9156099162928695,0.1568877030564048
11.962135999999996,3.99488927921154,0.1554161950824789
11.964531999999998,4.060435372016883,0.1543014885658385
11.966919999999998,4.115693317694291,0.1534173020659544
11.969299999999995,4.167555258072418,0.1523396600909916
11.971695999999998,4.2044278975533445,0.1514490475148606
11.974083999999998,4.227614488749185,0.1507475834527243
11.976467999999995,4.24433014285482,0.1501872678422932
11.978859999999996,4.256529738788425,0.149751674567326
12.007531999999998,4.2668651077446045,0.1495055586131953
12.009915999999995,4.275989771887284,0.1493722726438188
12.012296,4.286092823417985,0.1491492030632013
12.014699999999998,4.298617284575684,0.1488360570757528
12.017087999999998,4.30550753054647,0.1487161835224213
12.019468,4.315982669129509,0.1485211691809954
12.021863999999995,4.329902930697941,0.1482662231933893
12.024251999999995,4.340470617079596,0.1481295824346582
12.026632,4.3508513120061485,0.1480740890550608
12.031423999999998,4.379991296039388,0.147961158449465
12.0338,4.399449433280378,0.1478426692998639
12.036203999999998,4.417324778655531,0.1477440032559636
12.038591999999998,4.433757101791708,0.1476471121424788
12.040972,4.459688071980771,0.147274647775198
12.043376,4.488971617356611,0.1467854896388383
12.045763999999998,4.517743306053254,0.1462720434441113
12.048143999999995,4.541254762473188,0.1457934539468264
12.050539999999998,4.562951109601809,0.1452965862634787
12.052923999999996,4.5855786222902095,0.1447838274437003
12.055308,4.601920293485639,0.1444587301083462
12.057712,4.611836353561237,0.1443284299953881
12.060095999999998,4.625337306249088,0.1441350292806551
12.062476,4.6377673237503,0.1439768204229749
12.06488,4.657274578677401,0.1436379370044734
12.067268,4.680366726216755,0.1432416303379785
12.069647999999995,4.70373841300983,0.142830552023251
12.072043999999998,4.729811048683624,0.1423216586678769
12.074431999999998,4.752066474319685,0.1418350932818328
12.076812,4.77516051771691,0.141292073519703
12.079207999999998,4.803097380368129,0.1405973121022154
12.081595999999998,4.827728889660816,0.1399464358252255
12.083976,4.850777607087665,0.1393097786577339
12.086371999999995,4.87783052600735,0.1385862485320504
12.088756,4.896875041941366,0.1380554842242492
12.091155999999998,4.918433515300997,0.137502526897453
12.093552,4.942505946086242,0.1369194448900608
12.09594,4.966810694296965,0.1363647601979289
12.170004,5.009965383555126,0.1358744673323051
12.1724,5.023883749265687,0.1358543086913751
12.174788,5.046369596469358,0.1356284113481939
12.177172,5.071137083673165,0.135342156652191
12.179568,5.098465750130831,0.1349708622734019
12.181956,5.126865351775136,0.1345698624490783
12.18434,5.151400521553466,0.1342419903380776
12.186743999999996,5.177006626518436,0.1338887138394257
12.189128,5.200470861110127,0.1335913897332939
12.191508,5.222072764582261,0.133326328139035
12.193908,5.243674668054396,0.1330602598885032
12.196296,5.260201434847061,0.1329080895702093
12.198671999999998,5.274586331266448,0.1328095853768031
12.201075999999995,5.289530306193274,0.1326716085809336
12.203464,5.304102194067764,0.1325091707757742
12.205844,5.323516901196249,0.1322093631280506
12.208247999999998,5.341907894966337,0.1318815375369928
12.210632,5.357924700937674,0.1315658500016889
12.213012,5.376130599110528,0.1311449677703219
12.215411999999995,5.3953148846714045,0.1306612686766374
12.217796,5.4099831120602495,0.1302435542076318
12.22018,5.425070648329676,0.1298014914454717
12.222572,5.431078846426795,0.1295380515560084
12.22496,5.4353644830312176,0.1292943674986148
12.227339999999998,5.43895127150134,0.129098693893506
12.229744,5.442817599225184,0.128883871565586
12.232132,5.450827898068719,0.1285853953981542
12.234512,5.458186570606199,0.1282826627801108
12.236908,5.466755947957176,0.1279484115836959
12.239296,5.476256490867931,0.1276002348789755
12.241675999999998,5.486036573032408,0.1272330074799983
12.244072,5.492790841092071,0.126871244098773
12.24646,5.497170921352981,0.1265216318395203
12.248839999999998,5.498989822360033,0.1262462018318942
12.251236,5.501600119300004,0.1259675364469411
12.253619999999998,5.5009976106800575,0.1257596423383001
12.256016,5.501046728366171,0.1255578735645611
12.258412,5.505239817171977,0.1252751814438365
12.260796,5.5087340578434825,0.1250402071339439
12.263175999999998,5.507525248887852,0.1249234691146075
12.265572,5.5084583103055005,0.1247619866518059
12.267955999999998,5.504595774297395,0.1246747206556652
12.270356,5.501943943102789,0.1245550066263179
12.272751999999995,5.497290011161767,0.1244709578757211
12.275136,5.498270294407658,0.1242563410093967
12.277516,5.500321512840187,0.1240201005113244
12.279919999999995,5.503443666459355,0.1237647422623131
12.282307999999995,5.504563719332107,0.1235431721697757
12.284688,5.501819340338884,0.123380763566012
12.287084,5.500937292465218,0.1231937868887455
12.289472,5.500334783845272,0.1229885006338723
12.291852,5.500104362277664,0.1228062594786234
12.294255999999995,5.4990353229488935,0.1226790809776934
12.29664,5.500247923620261,0.1224974968929005
12.299024,5.497596092425655,0.1223765045901963
12.301427999999998,5.494013095671272,0.1222682782846825
12.303811999999995,5.488288228543611,0.1222048689381677
12.306192,5.480421491042673,0.122185449289982
12.308588,5.475627789474791,0.1221088124676321
12.310976,5.474046893466824,0.1219661137425917
12.313356,5.470324127085581,0.1218674075785421
12.315752,5.473119519622785,0.1216808473829749
12.339644,5.441605347790791,0.1216466611947858
12.342028,5.448030958910621,0.1215180725431134
12.344424,5.456598440403729,0.1213482927358322
12.346812,5.471032454509229,0.1210883552051918
12.349192,5.488120195667201,0.1208026474197941
12.351595999999995,5.507349807198452,0.1204746373540214
12.353983999999995,5.5264396491028425,0.1201561739649381
12.356364,5.5404543543277605,0.11992598322011
12.35876,5.554329289925818,0.1197065134750691
12.361148,5.571137491830071,0.1194436600575271
12.363528,5.584221031495211,0.1192308445256314
12.365924,5.600237837466547,0.1189769194574626
12.368312,5.61639441306474,0.1187158961103732
12.370691999999998,5.637626125342408,0.1183671948541668
12.373092,5.663513665418968,0.1179653253271324
12.37548,5.69368494624208,0.1174752832373666
12.377875999999995,5.722133665572496,0.1170027927540964
12.380271999999998,5.747649118596717,0.1165755203070707
12.382659999999998,5.773024801994079,0.1161542596650018
12.38504,5.797609089458521,0.1157362785759054
12.387435999999996,5.818468714683851,0.115368051575989
12.38982,5.834392972856568,0.1150794812284435
12.3922,5.8481753606560085,0.1148330065745267
12.394599999999995,5.858884712522395,0.1146387083220201
12.396984,5.869873603642501,0.114429668777887
12.399368,5.880071098829689,0.1142237670671108
12.401764,5.891339529203515,0.1139995505626558
12.404148,5.903818664390841,0.1137458915521751
12.406544,5.91364407252569,0.1135150617868842
12.408948,5.919605048794567,0.1133353462890102
12.411336,5.928499291369638,0.1131173716814319
12.413715999999996,5.935670972452014,0.1129139834247405
12.416111999999998,5.940840552787973,0.1127396652855916
12.418499999999998,5.948431542750928,0.1125136647562117
12.42088,5.948293668981936,0.1123847434086418
12.423275999999998,5.950018126332503,0.1122363850901421
12.425663999999998,5.951463044429348,0.1121046905752465
12.428044,5.95477029364575,0.1119531029282014
12.430443999999998,5.9652945499149,0.1116936766885638
12.432827999999995,5.982104647677023,0.1113407890249653
12.435212,6.00142870286476,0.1109771318051797
12.437607999999996,6.020612988425637,0.1106219392386698
12.439995999999995,6.038726338799875,0.1102838554187016
12.442376,6.05791062436075,0.1099293356027548
12.444779999999998,6.074953039548349,0.109611999075108
12.447167999999998,6.091715915482229,0.1093113957215773
12.449548,6.1094099569758855,0.1090042851874455
12.451943999999996,6.128826559962239,0.1086871140953657
12.454331999999996,6.151967825187705,0.1083339120910361
12.456716,6.176319795226672,0.1079534881810697
12.459111999999998,6.191592427093331,0.1076941521599537
12.461499999999996,6.205002727840435,0.1074543449563797
12.46388,6.222417230080373,0.1071634071930449
12.466279999999998,6.233685660454199,0.1069603402016527
12.468667999999996,6.250029227507499,0.106686011099447
12.471048,6.264650233068101,0.1064239559901497
12.473443999999995,6.282763583442338,0.1060977539511396
12.475831999999995,6.300225307510519,0.1057659211982659
12.478216,6.3107495637796704,0.1055237107343611
12.480611999999995,6.310983777063017,0.1054236228148162
12.482999999999995,6.3094954288536655,0.1053331031272756
12.485384,6.309217785457816,0.1052187092931849
12.487779999999995,6.310802473181521,0.1050873923997823
12.490167999999995,6.311595764972307,0.1049570914127934
12.492552,6.308524624897122,0.1048677703073307
12.494947999999996,6.3046620888890175,0.1047790513521303
12.497335999999995,6.300008156947994,0.104691132604225
12.49972,6.297496095380251,0.1045714553975884
12.502115999999996,6.29205076750631,0.1044843249929826
12.504507999999998,6.2911214978044,0.1043642033529559
12.506888,6.297409235155239,0.104146854594537
12.509292,6.301415332505943,0.1039679804288893
12.511675999999998,6.303419329110229,0.1038147526592038
12.514059999999995,6.310358692767126,0.1036049221220377
12.516455999999998,6.317018517170304,0.1034114720104407
12.518839999999996,6.323538571946622,0.1032260430280023
12.521235999999998,6.324983490043467,0.1031044924962532
12.523632,6.327219804073232,0.1029829186052291
12.52602,6.326522851796799,0.1028921808252343
12.528399999999998,6.331180575453559,0.1027220420918973
12.530804,6.337840399856737,0.1025290863158748
12.533192,6.341706727580581,0.10236025485423
12.535571999999998,6.343990263438587,0.1021922295317775
12.537972,6.34734473448323,0.1020092958048462
12.54036,6.358847378140404,0.1017257194814917
12.542739999999998,6.373283288103773,0.1014122985087999
12.545143999999995,6.383854766201167,0.1011371705451028
12.547532,6.390701582059449,0.1008946600160189
12.549912,6.401040742731365,0.1005927037302134
12.552308,6.407934780417889,0.1003086944864806
12.554696,6.415108357358134,0.1000116447475487
12.557076,6.428288236537629,0.0996483181397028
12.559472,6.436672518291372,0.0993277005040915
12.56186,6.441052598552281,0.0990518252096759
12.564244,6.447993858067049,0.0987268745525362
12.56664,6.455074887208677,0.098394989887842
12.569024,6.46415801709672,0.0980406508194932
12.571403999999998,6.472449751051848,0.0976872309623985
12.573804,6.485537082432725,0.0972887648651927
12.576192,6.497553478626966,0.0969067002523166
12.578571999999998,6.50663660851501,0.0965545158886277
12.580968,6.517442299895751,0.0961949043871569
12.583355999999998,6.530110322396047,0.0958220550067957
12.585735999999995,6.540356935269347,0.0954930659476033
12.588144,6.544597245903398,0.0952294174542293
12.590528,6.54697522541789,0.0949806078605349
12.592907999999998,6.5522864712385775,0.0947031479632607
12.595308,6.559599817805683,0.0944054757117092
12.597692,6.565283150678708,0.0941528456748836
12.600075999999998,6.571618109857791,0.0939089437631382
12.602472,6.577393990529434,0.0936950470503785
12.60486,6.584520345641436,0.0934568581580588
12.607239999999996,6.597513233365827,0.0931660875947866
12.60964,6.615860797023411,0.0928102513671233
12.612028,6.63085578549422,0.0925044852144251
12.614407999999996,6.647713105084584,0.0921886176001528
12.616799999999998,6.666153216540787,0.0918763303858836
12.619187999999998,6.687526594303184,0.0915424665702534
12.621584,6.710250446505939,0.0911855235375783
12.62398,6.734976399455112,0.0908131497275797
12.626364,6.76263561871048,0.0904185778589292
12.628743999999998,6.7890841331523495,0.0900426095963193
12.631144,6.8155326475942175,0.0896694512406431
12.633527999999998,6.845333737222862,0.0892537460116503
12.635924,6.878207862784564,0.0888084206941572
12.63832,6.911081988346263,0.0883647529132982
12.640704,6.946749610587299,0.0879089079988852
12.643083999999998,6.979344196895278,0.0874837226082245
12.645484,7.007282955404365,0.0870833861570795
12.647872,7.0344303179805365,0.0866835446903517
12.650251999999998,7.060926054250648,0.0862770671070211
12.652656,7.079133848281373,0.0859548421904159
12.655044,7.098412577498734,0.0856248067755538
12.657424,7.1152698970891,0.0853350950252833
12.659827999999996,7.132266986306326,0.0850394488546631
12.662212,7.145399643657577,0.0847710933257047
12.664596,7.157229048396713,0.0844880621835324
12.666991999999995,7.163052150896599,0.0842546048323288
12.669376,7.167524778956128,0.0840469744961686
12.671755999999998,7.167853435895959,0.0838781978425613
12.674159999999995,7.163526265036901,0.0837331589939848
12.676548,7.162691438991478,0.0835417693959055
12.678928,7.163718944065613,0.0833421999418299
12.681324,7.1626045787664685,0.0831652808871718
12.683712,7.164283710146661,0.0829762222329674
12.686092,7.167685403019549,0.0827852936662889
12.688492,7.167222664026464,0.0826188315671737
12.690876,7.168622256152936,0.0824432652116073
12.693255999999998,7.174957215332019,0.0822325251244402
12.695652,7.179150304137824,0.0820427939265766
12.69804,7.184274558503409,0.0818492798829451
12.700436,7.197267446227801,0.0816022016249213
12.702831999999995,7.203322866153163,0.0814044142121805
12.705216,7.205374084585692,0.081236060892773
12.707596,7.205283432644944,0.0810887100872181
12.709999999999996,7.20905721257017,0.080917840390637
12.712387999999995,7.214413784361231,0.080751956437406
12.714768,7.223774557645127,0.080556116169991
12.717164,7.235137431675439,0.0803472218263496
12.719552,7.249573341638809,0.080113184964766
12.721932,7.269736014587706,0.0798488843643476
12.724328,7.289619148282884,0.0796001562807523
12.726716,7.3037755189925315,0.0793824033275288
12.729095999999998,7.317140493769261,0.0791625742930612
12.731499999999995,7.323288461493242,0.0790020565456191
12.733888,7.326782702164746,0.0788476547468251
12.736268,7.332279043582668,0.0786794406285584
12.738667999999995,7.339777485747007,0.0784980677221821
12.741052,7.352211294963957,0.0782882286570429
12.743436,7.368509536046881,0.0780574660161938
12.745839999999998,7.383597072316308,0.0778432728716427
12.748223999999995,7.390955744853786,0.0776711273387629
12.750604,7.406183050750074,0.0774516999105286
12.753,7.427696198139332,0.0771805776353272
12.755391999999995,7.453213547021422,0.0768832062741092
12.757772,7.477799730343733,0.0765919575198685
12.760168,7.497962403292632,0.0763449083202071
12.762556,7.520918572920864,0.0760901267349854
12.764936,7.540010310683124,0.0758567192166842
12.767339999999995,7.558822509191664,0.0756362775205409
12.769727999999995,7.575213298073204,0.0754479226066592
12.772108,7.5894622165814685,0.0752789192893709
12.774504,7.608366962888624,0.0750931869050568
12.776892,7.627783565874978,0.0749215817164244
12.779272,7.651623679234746,0.0747066954321732
12.781668,7.677046584460351,0.074497318976539
12.784056,7.701119015245596,0.0743094938669611
12.786451999999995,7.721047474911148,0.0741527793274722
12.788847999999998,7.732967531591031,0.0740472093083495
12.791235999999998,7.743165026778218,0.0739429411010892
12.793616,7.751639960472709,0.0738390498459316
12.79602,7.764770721966093,0.0737184637941029
12.798407999999998,7.775899382713058,0.0736117809101398
12.800787999999995,7.78353569864639,0.0735440168511841
12.803183999999998,7.789030144206441,0.0734942363522575
12.805571999999998,7.793453654579856,0.0734534526582736
12.807952,7.802719984207265,0.0733548906421939
12.810347999999998,7.805328385289366,0.0732834777512673
12.812735999999996,7.809007721558105,0.0732033736500273
12.815116,7.81017310040123,0.0731207765582237
12.817511999999995,7.810826622565157,0.07302418536328
12.819899999999995,7.812690849542583,0.0729134420151757
12.82228,7.814974385400589,0.0727864823866426
12.824679999999995,7.822892136445509,0.0726072371135641
12.827067999999995,7.830390578609848,0.0724454733306877
12.829448,7.83723739446813,0.0722757095015149
12.831844,7.847576555140047,0.0720709667513947
12.834232,7.863270391745156,0.0718256719205569
12.836627999999996,7.882177033910183,0.0715558236795037
12.839023999999998,7.902014841634985,0.0712844083935513
12.841407999999998,7.924925685292844,0.0709943918805091
12.843791999999995,7.948395607458144,0.0706840309359694
12.846187999999998,7.967069932197692,0.070392306637601
12.848575999999998,7.986303335444681,0.0700789576162721
12.850959999999995,8.009820479438224,0.069736103914168
12.853351999999996,8.033197853804907,0.0693989309738253
12.855739999999996,8.056295688917869,0.0690761567628643
12.85812,8.083118186269944,0.0687431555575135
12.860515999999995,8.109940683622021,0.0684111046895873
12.862904,8.14048784321321,0.0680704303024958
12.865299999999998,8.168101736498205,0.0677416991670076
12.867696,8.190128636424527,0.0674263686828312
12.870084,8.207871795604298,0.0671429891472973
12.872467999999998,8.21746678217154,0.0669068336227742
12.874864,8.226689681686443,0.0666520679308998
12.877247999999998,8.237914681947764,0.0663886860958804
12.879631999999996,8.245554789596833,0.066130231980159
12.882027999999998,8.24811976056643,0.0658990041942305
12.884415999999998,8.246960069296913,0.0656758169783473
12.886799999999996,8.246219686907976,0.0654374455464283
12.889191999999998,8.246550239705678,0.0651929129128952
12.891579999999998,8.247951727690019,0.0649424879245363
12.89396,8.254428352353832,0.0646670625704717
12.896359999999998,8.262907077764062,0.0643840756915117
12.898747999999998,8.264588105002122,0.0641247562255683
12.901128,8.26883031149404,0.0638369992566273
12.903527999999998,8.26720598537357,0.0635694634553726
12.905915999999998,8.265069802573898,0.0632885890831463
12.908296,8.260931519027814,0.0630156775352493
12.910691999999996,8.253859969175531,0.0627531810736148
12.913079999999995,8.250001224883166,0.062469506809219
12.915475999999998,8.253731574695887,0.0621673951605902
12.917872,8.262816600441802,0.0618323886030121
12.920264,8.275626288426828,0.0614905527355282
12.922643999999998,8.286294106038577,0.061162135030419
12.925044,8.292306095851435,0.0608415700334758
12.927428,8.296548302343353,0.0605527681208575
12.929811999999998,8.300790508835274,0.0602627795861157
12.932208,8.310340169432141,0.0599746906268183
12.934596,8.315466319655595,0.0597181607459916
12.936979999999998,8.316448498759353,0.0594831661349939
12.939376,8.3142178723032,0.0592683109764143
12.941764,8.310776541033544,0.0590658777321772
12.944143999999998,8.303051469017337,0.0588891349542816
12.946548,8.297468267374407,0.0586987373747109
12.948936,8.28760132498492,0.0585337319088158
12.951315999999998,8.283740684834685,0.0583456247769149
12.953712,8.278669339870952,0.0581687793470069
12.9561,8.277602196400052,0.057977111362503
12.958479999999998,8.280958563302566,0.057756170899467
12.960884,8.288830988377113,0.0575366957326703
12.963272,8.291768046399046,0.0573330156635725
12.965652,8.285485996621812,0.0571681978608611
12.968048,8.275479284605467,0.0570069788387169
12.970436,8.267195134081819,0.0568484285515096
12.97282,8.26235610654356,0.0566957431815887
12.975216,8.26194058937872,0.056513924601912
12.977604,8.269673244826404,0.0563007439120188
12.979983999999998,8.27167913728856,0.0560980486695713
12.98238,8.27768923124355,0.0558813603966763
12.984768,8.28863469225115,0.0556508291383759
12.987147999999998,8.298229678818393,0.0554355922990711
12.989548,8.305822564639218,0.0552273716500655
12.991931999999998,8.313694989713763,0.0550082313226287
12.994315999999998,8.322870667400425,0.0548079952381285
12.996712,8.334979611393281,0.0546003247450468
12.9991,8.344806915386002,0.0544103277153937
13.001479999999995,8.355705154565358,0.0542147907748315
