Time,Force,Position
11.51168,4.003221840091659,0.1589709218110551
11.514064,4.014998335428945,0.158955463726353
11.516456,4.027333909273671,0.1588824253774544
11.518859999999998,4.036503899386725,0.1588535898650241
11.521247999999998,4.051121113231589,0.1586999341650428
11.523628,4.071465090061982,0.1583906993838694
11.526027999999998,4.092647684653537,0.1579992614173706
11.528415999999998,4.1137377314464745,0.1575617270800112
11.530796,4.141066397904139,0.1570055765231867
11.5332,4.1710015695860365,0.156469486911848
11.535583999999998,4.205685116865443,0.1558681317456724
11.537964,4.24623519675724,0.1550805231536972
11.540368,4.296004384448202,0.1539871641261323
11.542751999999998,4.344749858780769,0.1528749300083243
11.545132,4.385486930127669,0.1520184677791713
11.54754,4.424361670355013,0.1512365263268653
11.549924,4.467659920955769,0.1502936504595097
11.552303999999998,4.503556068906543,0.149454054606946
11.554708,4.535262919767249,0.1486443657493159
11.557096,4.563432099843945,0.1478592684527218
11.559475999999998,4.584151955442415,0.1472478923685868
11.561868,4.598865508801635,0.1468012969610174
11.564256,4.614277910295154,0.1462920438468914
11.566636,4.631552642908232,0.1457465869707944
11.569031999999998,4.645754339588252,0.1452970013744721
11.571419999999998,4.661119519253528,0.1448747379599302
11.5738,4.676577246717423,0.1445038614903522
11.576204,4.686727520076368,0.1442309175352977
11.578587999999998,4.689335921158468,0.1440699287924507
11.580968,4.689849673695535,0.1439097732601337
11.583372,4.689851569553404,0.1437343026939685
11.585755999999998,4.693857666904107,0.1434619260162702
11.588136,4.694139102015698,0.1432667292940556
11.590531999999998,4.690556105261313,0.1431567539276769
11.592916,4.691256849253484,0.1429263226644806
11.595296,4.686882456566182,0.1428235724463207
11.597699999999998,4.684230625371576,0.1426953156239
11.600087999999998,4.691169989028474,0.142362387997456
11.602468,4.695687943058374,0.1421114822572901
11.604864,4.6980168048867545,0.1419799502042914
11.607248,4.707515451939643,0.1417251210885067
11.609643999999998,4.724323653843896,0.1413358940680764
11.61204,4.739269524628591,0.1409825245179501
11.614423999999998,4.751049811681614,0.1406597697180346
11.616804,4.758965666868664,0.1404182664196976
11.619208,4.761434298323905,0.1402749563788847
11.621591999999998,4.765532943473224,0.1400572643504947
11.623976,4.768420883809045,0.1398774315594331
11.626371999999998,4.76902718414473,0.1397685214311942
11.628756,4.768283010040054,0.1397133076411761
11.631136,4.771915124480553,0.1395887897247611
11.635927999999998,4.76930861925632,0.1395706370890349
11.638308,4.774011668883455,0.1394189800059532
11.640703999999998,4.776433078510453,0.1393379075134617
11.643091999999998,4.786303812615677,0.1391141580128256
11.645472,4.794172445974484,0.1389406662375201
11.647875999999998,4.797385251534399,0.1388567403067362
11.650263999999998,4.803019466721313,0.1386952856233957
11.652644,4.8104234652291655,0.1384494978710072
11.655039999999998,4.8142425711247645,0.1382631364834186
11.657424,4.813405849221473,0.1381617916212296
11.659819999999998,4.813360523251099,0.138054037271711
11.662224,4.810893787653727,0.1380234595990693
11.664608,4.8142935846687465,0.1378684984055951
11.666987999999998,4.824863166908271,0.1375998390459264
11.669388,4.835153209894077,0.1373559264432497
11.671776,4.85224095105205,0.1369721611895118
11.674151999999998,4.874264059262634,0.1364804763596512
11.67656,4.899732290458613,0.1359436516519307
11.678944,4.918263053855563,0.1355606780645051
11.681323999999998,4.934931486132956,0.1352097359221776
11.683728,4.954672954343404,0.1347871880325472
11.686116,4.96826835068774,0.1345117777035733
11.688496,4.986007718151772,0.1341421023962696
11.690896,4.995366595577798,0.1339201610517811
11.700456,5.000581501884131,0.1337951163118452
11.702836,5.004538481548721,0.1337672486212662
11.705235999999998,5.012359893079284,0.1336648259690874
11.707624,5.021903866102546,0.1335410448247012
11.710004,5.037174602111337,0.1333096834528762
11.712407999999998,5.050443237373711,0.1331239606628058
11.714792,5.057752792225077,0.1330087496293777
11.724336,5.064223729315281,0.1329563455437712
11.726732,5.070789110061973,0.132795607475417
11.729116,5.079868448234278,0.1326097138670435
11.731495999999998,5.089459643085782,0.1324417837963919
11.7339,5.104777600922815,0.1321764274556001
11.736284,5.117022522826793,0.131978829540202
11.738663999999998,5.139277948462856,0.13159082173467
11.741068,5.166840828203869,0.1311333448329318
11.743452,5.197197204624216,0.1306306390922545
11.745831999999998,5.232488948097176,0.1300295658099431
11.748236,5.2664774389580185,0.1294258798542562
11.750624,5.294878936460192,0.1289126489391916
11.753004,5.319695541350113,0.1284517055442917
11.755408,5.344372376613172,0.1280029129048998
11.757792,5.367326650383536,0.1275784312386143
11.760172,5.394704434527316,0.1270612407824857
11.762575999999996,5.424596176096708,0.1265221381005371
11.764964,5.454348148039241,0.1259932987213871
11.767344,5.489547343713582,0.1254008067538607
11.769747999999998,5.529821676067396,0.1247154980738609
11.772132,5.565440180622319,0.1241005891715806
11.774512,5.593981447751352,0.1236231425762199
11.776915999999998,5.621871088574328,0.1231414084902841
11.779303999999998,5.647246771971689,0.1226822464412628
11.781684,5.6661042964506025,0.1223139481622637
11.784079999999998,5.683518798690539,0.1219437003102605
11.786464,5.693995833131447,0.1216948270889665
11.788844,5.7061028812664345,0.1213924040120719
11.791247999999998,5.720491569401559,0.1210429566931546
11.793632,5.733577004924568,0.1206838396196369
11.796012,5.745871044514659,0.1203298553392607
11.798415999999998,5.759236019291388,0.1199529058723829
11.800803999999998,5.773252620374175,0.119581739329322
11.803184,5.785686429591125,0.1192163203513118
11.80558,5.7930451021286045,0.1189347443025191
11.807964,5.791184666866917,0.1188146146762167
11.810344,5.790534936418728,0.1186654507524546
11.850972,5.674671952562197,0.1185443350444723
11.853352,5.682028729241807,0.1184155466977659
11.855755999999998,5.69460041222775,0.1181954051048097
11.85814,5.7040990592806375,0.118026791054527
11.86052,5.712666540773745,0.1178699356320247
11.862923999999998,5.72882311637194,0.1176156558666853
11.865308,5.747773188649471,0.1173298277727826
11.867688,5.774591894285807,0.116936098013095
11.870091999999998,5.802201995855063,0.1165418131547582
11.872479999999998,5.824736960744846,0.1162309894010733
11.874856,5.853557767127599,0.1158133383255232
11.877256,5.877722745711462,0.1154526925848551
11.87964,5.9052402994821005,0.1150254636191057
11.88202,5.925028989520793,0.1146968930646086
11.884424,5.9458886147461225,0.1143478779098711
11.886812,5.96809871441181,0.113959063438291
11.889192,5.989657187771442,0.1135656495152655
11.891588,6.004557732585764,0.1132524897173372
11.893972,6.0177357159073885,0.112952621988751
11.896356,6.025838562549542,0.112732327220705
11.898759999999998,6.028866272512223,0.1125925040953227
11.901144,6.029472572847908,0.1125094672949291
11.903524,6.029939103556732,0.1124352561082665
11.90592,6.032407735011972,0.1123319005509081
11.927435999999998,5.970960287355949,0.1122961914071863
11.929819999999998,5.9676096080270415,0.1122230143308395
11.9322,5.966400799071412,0.1121144322475157
11.934603999999998,5.969056421981756,0.1119601593223521
11.936991999999998,5.9745055415714345,0.1117789942900304
11.939368,5.98917376896028,0.1114651686230961
11.941764,6.004773161908904,0.1111418146295723
11.944148,6.027589561910277,0.1107145976252587
11.946528,6.048264091538372,0.1103158790490821
11.948931999999996,6.06256023187488,0.1099729646064116
11.95132,6.075925206651609,0.1096408754241089
11.9537,6.088359015868559,0.1093194836437522
11.956103999999998,6.096369314712097,0.1090755266139331
11.958491999999998,6.107033340608108,0.1088107980593024
11.960872,6.114903869824785,0.1085745332881123
11.963264,6.121563694227963,0.1083617586165337
11.965652,6.129014914564059,0.108149358923535
11.968032,6.136326365273295,0.107945334054885
11.970435999999998,6.142287341542171,0.1077753078053017
11.972823999999996,6.146525756318351,0.1076156684552335
11.994331999999998,6.075813874892787,0.1075761355435562
11.996712,6.072043886683301,0.1075254683123502
11.999107999999998,6.068134128846953,0.1074827250624407
12.001495999999998,6.065155536570385,0.107431165810829
12.00388,6.067671389853869,0.1072879942736305
12.006284,6.073539818324128,0.1070890796597228
12.008667999999998,6.081922204220001,0.1068797019423027
12.011051999999998,6.097521597168625,0.1065714235831051
12.013456,6.109396327878136,0.1062979459171373
12.01584,6.122481763401145,0.1060012622819825
12.018219999999998,6.139711170043848,0.1056487803689647
12.020624,6.161596404485442,0.1052555560807766
12.023008,6.17412276150101,0.1049926752359666
12.025391999999998,6.1894426151959125,0.1047052835087347
12.027788,6.2063452607566525,0.1044172887825691
12.030176,6.233118640422615,0.1040135457095029
12.032555999999998,6.262173660088715,0.1035700160058767
12.034952,6.299516621994203,0.103019834191189
12.03734,6.332715612779998,0.1025299011177185
12.03972,6.371920905805042,0.1019682445541315
12.042124,6.403257565471279,0.1015019104421364
12.044508,6.431521189204462,0.1010802901676335
12.046891999999998,6.462066452937783,0.1006237207820934
12.049288,6.493962191111462,0.1001423851078742
12.051671999999998,6.52664932521806,0.0996686315432472
12.054052,6.554261322645185,0.0992590910947561
12.056456,6.5824323985797495,0.0988228158367135
12.058839999999998,6.605947646715423,0.0984273200229947
12.06122,6.634258492276849,0.0979910921210532
12.063615999999998,6.661638172278496,0.0975643847365087
12.066,6.687155521160586,0.097156484011059
12.068395999999998,6.710950308549981,0.0967593570226958
12.070792,6.742753498925042,0.0962776306302212
12.07318,6.772834127807407,0.0958047514752987
12.075559999999998,6.804265231130131,0.0953080711688769
12.077964,6.832343759266079,0.0948649125288089
12.080348,6.85828041702875,0.0944495771838114
12.082727999999998,6.875929132552034,0.0941317110836203
12.085132,6.893577848075317,0.0938126465180985
12.08752,6.907082592478906,0.0935413052675538
12.089899999999998,6.924311999121609,0.0932449485183199
12.092296,6.944055363189926,0.0929456660064592
12.094684,6.961517087258106,0.0926813326056357
12.097063999999998,6.97534669688579,0.0924775266054687
12.09946,6.985451644274361,0.0922995806406376
12.101843999999998,6.995277052409212,0.0921346315415345
12.104224,7.003891755730563,0.0919901808743518
12.106628,7.01394948129089,0.0918544028936533
12.109016,7.016929969425328,0.0917878799765769
12.111396,7.019630918306046,0.0917350425112906
12.113791999999998,7.022471636813624,0.0916758117718907
12.116179999999998,7.021447923455228,0.0916470163676805
12.11856,7.020563979723694,0.0916116752326637
12.120964,7.020750971178797,0.0915639381896305
12.123352,7.017864926700845,0.091546712953893
12.125731999999998,7.014606795170556,0.091508496835994
12.128127999999998,7.010417498080487,0.0914759085361572
12.130515999999998,7.005297035430641,0.0914491404879486
12.132896,7.007253810206684,0.091355702332538
12.1353,7.01442549128906,0.0912081021582337
12.137688,7.0188036756921015,0.0910777026491144
12.140067999999998,7.019596967482888,0.0909633560787138
12.142464,7.01866769778098,0.090853231752421
12.144851999999998,7.01936844177315,0.0907042859991977
12.147232,7.020581042444519,0.090569501190978
12.149636,7.024354822369744,0.0903906148087882
12.152024,7.028128602294969,0.0902118700857947
12.154403999999998,7.034044252593471,0.0900102688190935
12.1568,7.049179010691142,0.0897209748772682
12.159183999999998,7.066595408788947,0.0894028805644133
12.161568,7.082661332446396,0.0891108985888373
12.163963999999998,7.10552495427601,0.088770207876037
12.166347999999996,7.121311338679738,0.0884924600389498
12.168743999999998,7.136166557523684,0.0882211986626942
12.171144,7.151952941927413,0.0879446352604091
12.173528,7.165737225584722,0.0876849962590271
12.175907999999998,7.183945019615446,0.087373206410073
12.178308,7.209509590325781,0.0869882397397171
12.180696,7.227345297304166,0.0866606660237981
12.183075999999998,7.241456342043439,0.0863561239476509
12.18548,7.259571588275547,0.0860212980988318
12.187864,7.279037308948012,0.0856632338210431
12.190248,7.301436295926673,0.0852845928138122
12.192644,7.323555743651615,0.084919676889093
12.195028,7.348236370630413,0.0845158248750776
12.197411999999998,7.370495587982215,0.084147653112944
12.199808,7.393034344587736,0.0837679597949874
12.202196,7.410917273394366,0.083412863898884
12.204575999999998,7.424144374402105,0.0830845271560835
12.206976,7.436300540223204,0.0827690440849814
12.209364,7.448876014924884,0.0824355850906509
12.211743999999998,7.454653791454396,0.0821455843337766
12.21414,7.464435769476741,0.0818243290274076
12.216527999999998,7.474077977872227,0.0815096595059427
12.218924,7.481857855148156,0.0812029902971873
12.221324,7.494293560222975,0.0808758941090016
12.223712,7.504307855670798,0.0805836370295301
12.226092,7.510178179998926,0.0803286027091658
12.228488,7.516979669886835,0.0800688112883349
12.230876,7.521779059028324,0.0798230452543976
12.233256,7.523505412236759,0.0796027337373378
12.235659999999998,7.521739420631558,0.0794241305518833
12.238044,7.519182033093439,0.0792437284398749
12.240428,7.517975119995679,0.079041589262997
12.242827999999998,7.511553300591586,0.0788828408444892
12.245215999999996,7.50834428674741,0.0786946026496779
12.247596,7.506066438463011,0.0785028541296931
12.249999999999998,7.506721856484807,0.0782937108794457
12.252387999999998,7.504164468946688,0.0781132522866794
12.254768,7.496811483982817,0.0779569324759709
12.257163999999998,7.490389664578724,0.0777969088646544
12.259551999999998,7.488903212227242,0.0776063193371931
12.261932,7.4918402702491775,0.0773727347807105
12.264335999999998,7.497198737898108,0.0771094151961639
12.266723999999998,7.505490471853234,0.076829600400191
12.269104,7.510988709129026,0.0765617079306427
12.271499999999998,7.518628816778095,0.0762763560016919
12.273887999999998,7.526408694054023,0.0759856950335525
12.276268,7.534048801703092,0.0757004682404478
12.278664,7.545553341218134,0.0753966991327652
12.281052,7.558408355173535,0.0750732655034215
12.283432,7.575686879502351,0.0747070698239029
12.285828,7.593756799764084,0.0743450098699955
12.288216,7.608474144839041,0.074016187896617
12.290596,7.62826662659347,0.0736539978561611
12.292996,7.64819887797476,0.0732896064261507
12.29538,7.665849489355912,0.0729493839784779
12.297759999999998,7.6842914966699825,0.0726143117809466
12.300164,7.708460266969584,0.0722561015467522
12.302548,7.738495569881576,0.0718683483599594
12.304928,7.765318067233652,0.0715071205823756
12.307332,7.789067528652673,0.071167787761342
12.309716,7.804529047832306,0.070887296765131
12.312096,7.814496121451885,0.0706556567865361
12.3145,7.823671799138547,0.0704220036214988
12.316888,7.832847476825209,0.0701887895538393
12.319268,7.837879183392176,0.0699839608199573
12.321671999999998,7.845564617011618,0.0697778782796811
12.324059999999998,7.854181216190838,0.0695690258594799
12.326436,7.857443139436866,0.0694017259549113
12.328839999999998,7.858423422682757,0.0692569443622655
12.331227999999998,7.860986497794484,0.0691191479443483
12.333608,7.86354957290621,0.0689818669381655
12.336011999999998,7.873189885443827,0.0688055937540659
12.338395999999998,7.879896931675247,0.0686429478491618
12.340776,7.88432233790653,0.068502475417882
12.343172,7.888096117831755,0.0683528999647831
12.34556,7.888005465891007,0.0682185418297422
12.34794,7.884981547644065,0.0680972595972599
12.350343999999998,7.878744823837206,0.0679995418021952
12.352731999999998,7.873579035216986,0.0678936699031946
12.355112,7.869623951410265,0.0677742920191137
12.357511999999998,7.87353750096235,0.0676201062555236
12.359899999999998,7.882526187193908,0.0674378179777766
12.36228,7.892026730104664,0.0672702931510445
12.364675999999998,7.900456337828782,0.0671105775296233
12.367067999999998,7.912098751112815,0.0669277104850186
12.369448,7.914661826224542,0.0667918710490609
12.371843999999998,7.917364670963129,0.0666506398639869
12.374231999999996,7.927424292381325,0.066461142318811
12.376612,7.936412978612883,0.0662787413406934
12.379008,7.943539333724886,0.0661020244714997
12.381396,7.950665688836888,0.0659260820324619
12.383776,7.952856676896277,0.0657729269358882
12.386172,7.95891209682164,0.0656068415703504
12.38856,7.960823545627309,0.0654643439439874
12.390956,7.971534793351564,0.0652889636567906
12.393347999999998,7.982246041075818,0.0651128664051398
12.395739999999998,7.991234727307377,0.0649351593652896
12.39812,8.00371575835257,0.0647253157633353
12.400515999999998,8.02034076051746,0.0644928687889543
12.402903999999998,8.038688324175043,0.0642634179974514
12.405284,8.051169355220237,0.0640568688112135
12.40768,8.059925724026318,0.0638579888957303
12.410064,8.070172336899617,0.0636372576465555
12.412448,8.082421050519335,0.0634080593763343
12.414844,8.095461160071968,0.0631838823064676
12.417232,8.117860147050628,0.0629065721358181
12.419627999999998,8.141190299589068,0.0626287091173351
12.422032,8.158653919515118,0.0623730989609406
12.424416,8.178259409814444,0.062103365417686
12.426795999999998,8.194791864180717,0.0618490224808071
12.4292,8.211603857800707,0.06158574672747
12.431588,8.2284158514207,0.061323080859394
12.433967999999998,8.23950108205516,0.0610755102907315
12.436372,8.256220527876536,0.0607831803220369
12.43876,8.262789700338965,0.0605388404672836
12.44114,8.273223304667368,0.0602837558948301
12.443536,8.286450405675106,0.060024507546821
12.445924,8.298187262615626,0.0597890155774739
12.448303999999998,8.30685108362309,0.0595693380345076
12.4507,8.313652573510995,0.059353154272164
12.453088,8.324458264891739,0.0591219302082195
12.455467999999998,8.339128388138452,0.0588811037512894
12.457872,8.349794309892332,0.0586561266162708
12.460256,8.361670936459712,0.0584212555244231
12.462635999999998,8.372616397467311,0.0581888028019461
12.46504,8.380628592168717,0.0579661902328438
12.467428,8.390922426870262,0.0577281582271594
12.469808,8.404149527878001,0.0574823054372935
12.472212,8.420729204072517,0.0572155370244366
12.4746,8.438799124334249,0.0569276080571171
12.47698,8.4576604405289,0.0566457554771637
12.479383999999998,8.473448720790495,0.056375846261326
12.481768,8.492961663291204,0.0561022852340864
12.484148,8.511124131351558,0.0558457935830774
12.486551999999998,8.53357034015846,0.0555658571898865
12.488939999999998,8.55350259153975,0.0552798952699889
12.49132,8.57371438217476,0.0549857560620412
12.493732,8.592063841690214,0.054693474313932
12.49612,8.607480034899472,0.0544078101478651
12.498499999999998,8.623035997735592,0.0541179215673455
12.500896,8.635798463892375,0.0538312426091499
12.503284,8.645767433369823,0.053547555772934
12.505663999999998,8.656667568407048,0.0532626989889
12.50806,8.663563501951444,0.0529906320768563
12.510447999999998,8.667805708443362,0.0527155296084824
12.512828,8.670976979748641,0.0524458784448341
12.515223999999998,8.668002179187813,0.0521990719918168
12.517611999999998,8.664096213067204,0.0519531463880427
12.519992,8.65683767175982,0.0517286805338014
12.522391999999998,8.652093087878049,0.0515128355489854
12.524775999999996,8.641202432130168,0.05131807197406
12.52716,8.633524581942202,0.0511070438195729
12.529555999999998,8.625846731754237,0.0508964310224027
12.531943999999998,8.620170982312688,0.0506807994175012
12.534328,8.611561966564944,0.0504706225160036
12.536723999999998,8.60160247637684,0.0502743306279167
12.539111999999998,8.587499015069044,0.0500928492146799
12.541492,8.574746028201607,0.0498963548665327
12.543891999999998,8.565997242827002,0.0496889034895674
12.546279999999998,8.554035651892484,0.0494956961222722
