Time,Force,Position
11.922328,3.938101279526432,0.1598712590779853
11.924723999999998,3.945503382176415,0.1597504174109961
11.927111999999996,3.966872968223073,0.1592683505695932
11.929492,3.98973279833695,0.1586891947025862
11.931888,4.008123792107039,0.1581551675844011
11.934272,4.02572338994421,0.1576407382444048
11.936652,4.053565808938943,0.1568889266786209
11.939044,4.089276861292484,0.1559052482229316
11.941427999999998,4.123777208832524,0.1549573247267915
11.943808,4.1642838586118165,0.1538221651270633
11.946203999999998,4.199715371711635,0.1528481232284325
11.948587999999996,4.231095461490378,0.1520969474920368
11.950968,4.260518776493077,0.1515485312718729
11.95338,4.290686265600452,0.1510594657419013
11.955768,4.322995625081103,0.1504811916233709
11.958147999999998,4.354141501576499,0.1498790185658133
11.960559999999996,4.389943205870786,0.1491679399658404
11.962947999999995,4.429050263523607,0.1484398916237471
11.965328,4.463082184496955,0.1478570409701554
11.967731999999998,4.499442967298683,0.1471072974393185
12.01552,4.485016536624662,0.1466581007143555
12.017924,4.477569108004303,0.1466370142801648
12.020308,4.475708672742616,0.1464966891272187
12.022688,4.473428928600349,0.1463922953320076
12.02748,4.468263139980129,0.14629500700217
12.02986,4.467426418076838,0.1461868319918655
12.032263999999998,4.4634241124418725,0.1461101579226506
12.034648,4.464124856434043,0.1458680031139449
12.037028,4.467199788224968,0.1456040863587443
12.039431999999998,4.479074518934477,0.1451249427399377
12.041819999999998,4.486293421845096,0.1447460686839937
12.0442,4.493652094382575,0.1443561423672255
12.046599999999998,4.506318221025004,0.1438719105659004
12.048987999999998,4.526433672145658,0.1432309629020026
12.051368,4.543987944012455,0.1427011595439884
12.053772,4.562705698864508,0.1421988139107689
12.056155999999998,4.574066677036951,0.1418947633473325
12.058536,4.58850069114245,0.1415045905824492
12.060931999999998,4.5977197989416165,0.1412610641118043
12.063319999999996,4.6095000859946405,0.1409226943742038
12.0657,4.61932549412949,0.1405710071731929
12.068096,4.624774613719169,0.140289755122755
12.070484,4.633716078122484,0.1398931998511725
12.072864,4.63558030509991,0.139676907616575
12.07526,4.6423798991299465,0.139343270077442
12.077648,4.651041824279542,0.1389760318049531
12.080028,4.660075836481474,0.1386314709645704
12.082424,4.670133562041801,0.138323884253558
12.084808,4.677118251669072,0.1380972779727789
12.087187999999998,4.679819200549791,0.1379923242462182
12.089588,4.684894337229263,0.1378665861233793
12.101519999999995,4.684894337229263,0.1378619651538628
12.103928,4.6871759772294,0.1377923776868111
12.106312,4.691319948349095,0.1376879891730108
12.108691999999998,4.698956264282424,0.1374746516613841
12.111096,4.7053818754022565,0.1373040044887333
12.11348,4.712691430253623,0.1371766286420406
12.115859999999998,4.725308439209938,0.1369676334509222
12.118264,4.736295434472174,0.1368337477113108
12.120652,4.754219897533439,0.1365458261986434
12.123031999999998,4.768279928728732,0.1363400765699725
12.125428,4.779778780670166,0.1362253109945821
12.127816,4.793419502984878,0.1360524282348856
12.130195999999998,4.802823706381278,0.1359313572688224
12.132592,4.812507449031398,0.1357876158686031
12.13498,4.823541666121877,0.1355945857886885
12.137359999999996,4.8356468183989945,0.1353746692803691
12.139764,4.848403596982172,0.1351582818169583
12.142148,4.862091541125126,0.1349268650069685
12.144527999999998,4.873777384521664,0.1347429908520611
12.146936,4.891469530157451,0.134429141389562
12.14932,4.908602597285798,0.1341564930292705
12.151699999999998,4.929180787399539,0.1338476944772848
12.154107999999995,4.948548272699781,0.1335790868570051
12.156496,4.967496449119441,0.1333471711740043
12.158876,4.985233920725603,0.1331531760336914
12.161272,5.002319766025709,0.1329521301901118
12.16366,5.014470244273201,0.1328510797539252
12.16604,5.02890236252083,0.1326884728331431
12.168443999999996,5.039749588156205,0.1325807642611355
12.170831999999995,5.05152797935136,0.1324569784907446
12.173212,5.065588010546653,0.1322720316832333
12.175608,5.083372703981057,0.1320291060512735
12.177992,5.107675556333911,0.1316832419717516
12.180371999999998,5.134911674992959,0.13128686380394
12.182768,5.162939189584925,0.1308921948157209
12.185152,5.192409726415868,0.1305037165926358
12.187531999999996,5.226815630299423,0.1300295937000916
12.189927999999998,5.261501073436698,0.1295427940173686
12.192311999999998,5.295674659894776,0.1290432111420066
12.194692,5.325704275233159,0.1286362148026711
12.197104,5.356013429825263,0.1282053826218702
12.199492,5.380316282178117,0.1278909991466266
12.201871999999998,5.405317982665271,0.1275312316499062
12.204276,5.427014329793893,0.1271979283771123
12.20666,5.450992316922652,0.126811366579015
12.209044,5.477624031103886,0.1263943691069008
12.21144,5.508958794912254,0.1258564397012181
12.213824,5.537779601295007,0.125346221267491
12.216203999999998,5.567391803610679,0.1248343397311806
12.218608,5.599006106672768,0.1242902884891915
12.220996,5.626616208242023,0.1238181564699699
12.223371999999998,5.649430712385527,0.1234247023183582
12.225768,5.66786892798386,0.1230836943475983
12.228151999999998,5.682582481343079,0.12279614394444
12.230552,5.6915692717167685,0.1225928602616799
12.232944,5.698461413545424,0.1223831804918047
12.235332,5.7000461012691295,0.1222317715611989
12.237716,5.697114730820803,0.122132859922143
12.240112,5.6908307851857005,0.1221076649862859
12.2425,5.686968249177596,0.1220209508087912
12.244879999999998,5.687109914662325,0.121867237685622
12.247276,5.690743924960691,0.1216318528735589
12.249664,5.693958626378476,0.121424756141283
12.252043999999998,5.704762421901347,0.1211161429736334
12.254444,5.7135641166778015,0.1208420052158732
12.256832,5.72213349402878,0.1205378560311334
12.259211999999998,5.730283562499176,0.1202634795768002
12.261603999999998,5.738293861342712,0.1199983684177722
12.263991999999998,5.744581598693552,0.1197472431218671
12.266372,5.7471446738052805,0.1195412726703861
12.268771999999998,5.7550624248502,0.1192369969514712
12.271155999999998,5.762747858469643,0.1188990800732206
12.273536,5.770153752835364,0.1185789349078821
12.275952,5.778630582387724,0.1182388567214379
12.27834,5.792834174925615,0.1178215618885422
12.28072,5.805687293023146,0.1174416719496072
12.283116,5.818400641493818,0.1170696719718155
12.285504,5.832417242576605,0.1167068031000979
12.287883999999998,5.8487154836595305,0.1162903541922648
12.290288,5.859798818436124,0.1159669360454293
12.292676,5.868088656533381,0.1156807950902175
12.295056,5.873445228324442,0.1154384198179084
12.297452,5.876008303436167,0.1152293892634838
12.29984,5.869771579629309,0.1151480714050567
12.307012,5.836767163730094,0.1151368359379254
12.309392,5.825455303243763,0.1151352645970878
12.311788,5.814283212384293,0.1151248963433587
12.318952,5.785887402455728,0.1151008452975331
12.32134,5.778812060887709,0.1150690990867977
12.323736,5.770526014506191,0.1150650384380373
12.326131999999998,5.762379737751533,0.1150515191937389
12.328519999999996,5.755304396183512,0.1150190446038637
12.3309,5.751302090548548,0.1149381314266565
12.333296,5.75065236010036,0.1147924366208014
12.335684,5.752935895958366,0.1146079382607545
12.338064,5.760154798868984,0.1143548991338991
12.340463999999995,5.766023227339243,0.1141372523465823
12.342848,5.770820720622864,0.1139372805152334
12.345228,5.77869124983954,0.1136889944200389
12.347631999999996,5.78935527573555,0.1134077211407163
12.35002,5.804954668684173,0.1130566841099009
12.3524,5.820274522379076,0.1127212416816958
12.354799999999996,5.832661109767785,0.1124256170350082
12.357187999999995,5.839972560477021,0.112207374076543
12.359568,5.847795867865456,0.1120042863221638
12.361971999999998,5.854688009694111,0.1118125780225342
12.364355999999995,5.860648985962986,0.1116313059428845
12.366736,5.865958335925805,0.1114446731707408
12.369139999999998,5.8680548803287085,0.1113151716163494
12.371527999999998,5.874295395851306,0.1111193703261839
12.373908,5.875600544321292,0.1109921293014031
12.376303999999998,5.878907793537692,0.1108365667002375
12.378688,5.881004337940596,0.1107092594932887
12.381068,5.882169716783721,0.1105927706250378
12.383471999999998,5.882124390813348,0.1105034576244727
12.385859999999996,5.881427438536916,0.1104076177512286
12.38824,5.88287235663376,0.1102759843157495
12.390636,5.889392411410078,0.1100722986529998
12.39302,5.89283943025334,0.1099136015276471
12.3954,5.895355283536824,0.1097641464897325
12.397796,5.895869036073891,0.1096425869749861
12.400184,5.8975934934244565,0.1094948085300506
12.402563999999998,5.903461921894716,0.1092847038351982
12.40496,5.917338753350643,0.1089665441594906
12.407352,5.934568159993345,0.1085902612389801
12.409731999999998,5.95072663144941,0.1082310041618786
12.412128,5.968607664398169,0.1078616478324899
12.414516,5.986348927720071,0.1075031563182976
12.416899999999998,6.0088857884677225,0.1070917490462519
12.419311999999998,6.0280700740286,0.1067437183090144
12.421699999999998,6.053912288134785,0.1063255313840792
12.42408,6.077612631867693,0.1059443082375306
12.426484,6.098379709294406,0.1055974966102212
12.428867999999998,6.119146786721117,0.1052537598045271
12.431248,6.141264338588189,0.1048808803540021
12.433652,6.16296258157468,0.1045346714632305
12.436039999999998,6.18573175974781,0.1041755986169006
12.43842,6.20729023310744,0.1038461297900166
12.440815999999998,6.235925943892961,0.1034318723652786
12.443203999999998,6.268565856171314,0.1029723824245683
12.445587999999995,6.304930430688781,0.1024860360257957
12.447983999999998,6.345159437072221,0.1019665929576893
12.450367999999996,6.384037969015302,0.1014832242567653
12.452748,6.417701594652053,0.1010731860004786
12.455144,6.446429853236189,0.1007191634380616
12.457532,6.477299982193604,0.1003358107009071
12.459927999999998,6.508309880777878,0.0999472664451673
12.462324,6.537457448242595,0.099574637082396
12.464712,6.56274058384134,0.0992413753791226
12.467091999999996,6.586440927574246,0.0989066790463098
12.469496,6.604414508321625,0.0986257458746599
12.471884,6.621317153882364,0.0983587966691223
12.474263999999998,6.6399423609358,0.0980828816552807
12.476668,6.658288028735515,0.0978235525113618
12.512515999999998,6.670208085415399,0.0976320815017236
12.514899999999995,6.6800315976923805,0.0975808180718177
12.517284,6.6946507073951125,0.0974901694711184
12.519679999999996,6.712622392284621,0.097352797781075
12.522067999999996,6.732735947547408,0.0971893252188957
12.524448,6.75499137318347,0.0970014052715853
12.526851999999998,6.77966820844653,0.0967747967231004
12.529239999999998,6.80583528777681,0.0965126116549216
12.53162,6.834144237480365,0.09622580555432
12.534019999999998,6.866457388676755,0.0958983460293577
12.536403999999996,6.895604956141473,0.0955652801723188
12.538784,6.920096695807298,0.0952658527891377
12.541183999999998,6.946730305846402,0.0949389959851011
12.543571999999998,6.968708088086613,0.0946425400582129
12.545948,6.990174013647626,0.0943318976604382
12.548344,7.009917377715944,0.0940275049349091
12.550728,7.028217719545285,0.0937177752197432
12.553107999999998,7.043352477642955,0.0934078760326762
12.555512,7.055414199807568,0.09313049746332
12.5579,7.063891029359929,0.0928726404461305
12.56028,7.075860203725925,0.0925646733744333
12.562683999999996,7.0822423847332505,0.0922954223735837
12.565068,7.084248277195407,0.0920432251705591
12.567452,7.086114400030703,0.0917994497855831
12.569848,7.087468666186799,0.0915428294278541
12.572232,7.080302672678032,0.0913435692581552
12.574611999999998,7.068201312116653,0.0911858078426577
12.577008,7.060243922674967,0.0909854340439367
12.579396,7.048701640621028,0.0908004970728541
12.581771999999996,7.039720537820947,0.090572095674953
12.584167999999998,7.034883406140558,0.0903011217712332
12.586555999999998,7.030186044087031,0.0900222930337371
12.588952,7.029353113899478,0.0897168381075357
12.591348,7.034666255578036,0.0893524174782068
12.593736,7.040770793189512,0.088989312655461
12.596116,7.0512988411744,0.0885745743425099
12.59852,7.061454802106953,0.0881410488651865
12.600908,7.071051684532064,0.0877329618544811
12.603288,7.085863473263507,0.0872747353741067
12.605684,7.103468758674286,0.0868029431184862
12.608072,7.113437728151736,0.0864182858829724
12.610452,7.124337863188963,0.0860287290802884
12.612848,7.135889624532248,0.0856460858741605
12.615236,7.142785558076642,0.0852884027103717
12.617615999999998,7.147399851620897,0.0849605962497966
12.62002,7.158672073710463,0.0845896392577299
12.622404,7.175950598039278,0.0841705869227662
12.624788,7.189876547181318,0.0837952375101868
12.627184,7.201381086696359,0.0834525138793467
12.629568,7.209533051024625,0.083152809712446
12.631951999999998,7.220198972778506,0.0828540609121623
12.634348,7.23472932639836,0.0825312075064566
12.636736,7.238457780353213,0.0822838133600111
12.639115999999998,7.240044363934787,0.082059451468856
12.641512,7.2402804730760035,0.0818585578776977
12.6439,7.235022136657166,0.0817187426267576
12.646283999999998,7.228785412850308,0.0816232987383143
12.648688,7.224690559416727,0.0815062625470081
12.651072,7.216591504490311,0.0814193692215433
12.653455999999998,7.206630118444339,0.0813409421122993
12.655852,7.202954573891338,0.0812051055274997
12.65824,7.195414597472364,0.0810921960726324
12.660619999999998,7.190947656986444,0.0809538058156042
12.663016,7.191136544299416,0.0807940318883596
12.665404,7.192396366799028,0.0806236130519476
12.667787999999998,7.197660390791473,0.0804258954987507
12.670184,7.198500904410503,0.0802763305130446
12.672572,7.198410252469755,0.080130690957327
12.674968,7.206188233887815,0.0799340640452303
12.677363999999995,7.211544805678876,0.0797699410875178
12.679752,7.213828341536882,0.0796311540460618
12.682132,7.211828136648335,0.0795332576169509
12.684528,7.219698665865011,0.079369760256495
12.686916,7.226498259895049,0.0792165514456837
12.689296,7.236790198738723,0.0790208153763863
12.691692,7.250294943142313,0.0787945953551405
12.69408,7.263427600493565,0.0785473703829527
12.696459999999998,7.2745581570984,0.0783147040633438
12.69886,7.285409174449514,0.0780940668801537
12.701248,7.297331126987267,0.0778643594832719
12.703627999999998,7.309113309898159,0.0776429649082709
12.706028,7.328624356541,0.0773797034698803
12.708412,7.347064467997202,0.0771286281231517
12.710795999999998,7.362711082774068,0.0768897214398184
12.713192,7.380220028670492,0.0766450691904876
12.71558,7.390651737141026,0.0764512681302298
12.717959999999998,7.404575790425198,0.0762174869455455
12.720356,7.419570778896007,0.0759743011816072
12.722748,7.430980874754562,0.0757410937482101
12.72514,7.446162854680474,0.0754558535578885
12.727536,7.459762042740549,0.0751649138133586
12.729927999999996,7.477644971547179,0.0748367768358963
12.732308,7.492594634047615,0.0745270500335896
12.734707999999998,7.509546397294467,0.0742053059496597
12.737095999999998,7.523285354981402,0.0739125501313798
12.739476,7.535813607854838,0.0736359023069011
12.741879999999998,7.548062321474555,0.0733709082495853
12.744263999999998,7.562313135840689,0.0730941067172764
12.746648,7.5767037198336835,0.0728107306471514
12.749043999999998,7.590954534199818,0.0725349094481549
12.751428,7.602411851886616,0.0722693695495119
12.753808,7.60972519845372,0.0720353530671211
12.756211999999998,7.613825739460911,0.0718277219193858
12.758595999999995,7.619788611587657,0.0716144028157001
12.760976,7.623889152594846,0.0714078697558313
12.763379999999998,7.630131563975312,0.0711834008171862
12.765767999999998,7.632090234609224,0.070994199389228
12.768148,7.635119840429774,0.0707968232286305
12.770552,7.638009676623466,0.0706055358251554
12.772935999999998,7.640340434309714,0.0704381342157525
12.77532,7.644673292742381,0.0702593026109123
12.777715999999998,7.6459331152419905,0.0701005758832301
12.780099999999996,7.649195038488019,0.0699314061819735
12.782484,7.6545988321073235,0.0697468896115356
12.784879999999998,7.662004726473046,0.0695517886763099
12.787267999999996,7.669410620838768,0.0693568672679352
12.789652,7.677747680764267,0.0691593258616714
12.792047999999998,7.686224510316628,0.0689571425175474
12.794432,7.697774375802044,0.0687369662896288
12.796816,7.708253306100822,0.0685255191397345
12.799211999999995,7.720594567519155,0.0683097202330111
12.8016,7.734146533750987,0.0680808711306007
12.80398,7.750119909609818,0.0678244222096381
12.806383999999998,7.76502235028201,0.0675767771067123
12.808771999999998,7.78085595651398,0.067327753644193
12.811152,7.796549793119091,0.0670847895193668
12.813555999999998,7.817318766403673,0.0668145105953601
12.815943999999998,7.837947970061394,0.0665515210748724
12.818324,7.859508339278895,0.0662874673484467
12.820719999999998,7.878926838123117,0.0660388895089146
12.823107999999998,7.902069999206453,0.0657842103664292
12.825488,7.926144325849567,0.0655274462935587
12.827892,7.948076782119406,0.0652874130223592
12.830279999999998,7.967587828762246,0.0650753640842253
12.83266,7.988030040964864,0.0648628779438276
12.83506,8.011405519473678,0.0646405006177439
12.837447999999998,8.038785199475326,0.0644017105892523
12.839828,8.06695627540989,0.0641684879256181
12.842232,8.092845711344317,0.0639562551229032
12.84462,8.117664212092107,0.0637510952071624
12.846999999999998,8.1412720080264,0.0635590657410718
12.849396,8.161946537654496,0.0633780839392332
12.851784,8.186345729521703,0.0631920397965146
12.854163999999995,8.211024460642632,0.0629962265806776
12.856559999999998,8.23570319176356,0.0628017267996471
12.858947999999998,8.261313088444268,0.0626061872405146
12.861328,8.285852049938338,0.0624198137998461
12.863732,8.30932007624577,0.0622410532802934
12.86612,8.332788102553199,0.0620634884659679
12.868499999999996,8.360679639234043,0.0618549505736886
12.870904,8.385637909608695,0.0616585147958974
12.873292,8.41380898554326,0.0614441011356054
12.875671999999998,8.443190766291323,0.0612191986032284
12.878068,8.470989755173552,0.0609874770325245
12.880456,8.496926412936222,0.0607600024366104
12.882835999999998,8.517276077340224,0.0605416161898609
12.885231999999998,8.531759209131835,0.0603425579024526
12.887619999999998,8.54344884424411,0.0601481860104486
12.89,8.55462662267719,0.0599401782607973
12.8924,8.56529254443107,0.0597179825877173
12.894783999999998,8.581313142118145,0.0594663606703446
12.897168,8.602269106857829,0.0591994310498864
12.899572,8.617638078238844,0.0589413361629679
12.901955999999998,8.633798445552777,0.0586879615867688
12.904335999999995,8.648236251374014,0.0584326101786591
12.906731999999998,8.663233135702693,0.0581589618901343
12.909119999999998,8.675576292978898,0.0578845988619844
12.9115,8.687128054322182,0.0576064317263297
12.913895999999998,8.697748650105689,0.0573300518179981
12.916283999999996,8.704504814023222,0.0570638337394631
12.918679999999998,8.711540517194473,0.0567890047903721
12.921076,8.713780622939979,0.0565244336999008
12.923464,8.713087462379283,0.0562673219876567
12.925843999999998,8.715607107378505,0.0559937995834532
12.92824,8.716404190885031,0.0557168165254817
12.930628,8.723207576630807,0.0554210609187832
12.933007999999996,8.734154933496278,0.0551082987248201
12.935403999999998,8.747244160735024,0.054785159649981
12.937791999999998,8.764197819839747,0.0544560227628758
12.940172,8.785807306743356,0.0541247520131947
12.942576,8.796614893981967,0.0538201344472686
12.944964,8.803697818981465,0.0535192121694408
12.947347999999998,8.811432370287019,0.0532265428259435
12.949744,8.817304590473018,0.0529353480449955
12.952132,8.824107976218794,0.0526437761467438
12.954515999999998,8.825975994911959,0.0523638403491886
12.956912,8.824770977672069,0.0520935384457942
12.959295999999998,8.824636895618816,0.0518179434854917
12.961679999999998,8.822780252072869,0.0515380869692877
12.964076,8.81985267334028,0.0512626616976516
12.966459999999998,8.809708087554943,0.0510124202332058
12.968843999999995,8.800354897702524,0.0507657227058094
12.971239999999998,8.793143578223383,0.0505082026256326
