Time,Force,Position
11.5749,2.699764420909382,0.1811905002307683
11.577296,2.850720781636553,0.1786807680342683
11.579684,2.995442314414734,0.175793061923103
11.582059999999998,3.1297850481242326,0.1731016387298817
11.584452,3.244203113883918,0.1713295152559256
11.58684,3.356109118075858,0.169565631239519
11.589232,3.4545613914081903,0.1683401635710832
11.591628,3.5531100042548784,0.1665567772780289
11.594012,3.6370886250849455,0.1649737634926089
11.596391999999998,3.7227463772952047,0.1629541137521012
11.598796,3.8010492486837233,0.1611930662600118
11.601184,3.873999339996919,0.159530658720907
11.651367999999998,4.028074062627519,0.1582316046010654
11.653748,4.033706381956565,0.1582160183312442
11.656152,4.04441383796508,0.1580358480336571
11.65854,4.058054560279792,0.1577676247445138
11.660919999999996,4.071695282594503,0.1574989809076341
11.663324,4.087011344573668,0.1572689445090818
11.665708,4.105492990284504,0.1569891107166414
11.668087999999996,4.124905801555119,0.1566811713227624
11.670492,4.147299100960173,0.1562303828344798
11.67288,4.168948226260552,0.1557308651108788
11.675259999999998,4.187943624508455,0.1552983990228499
11.677664,4.215087195368887,0.1546094801240367
11.680048,4.241858679176981,0.1538985408681379
11.682432,4.275195543731766,0.1529541751591819
11.684832,4.310814048286688,0.1519547869231121
11.68722,4.339355315415722,0.1511874124699321
11.6896,4.36426446810426,0.1505725222191731
11.691996,4.389405938218274,0.1499872195249959
11.694384,4.411334602772373,0.1494920105748278
11.696763999999998,4.432052562512974,0.149045274131541
11.69916,4.452910291880435,0.1486025257648142
11.701548,4.477772222740729,0.1480614261292296
11.703927999999998,4.502773923227883,0.1475105575225489
11.706324,4.525541205543144,0.1469754409996039
11.708711999999998,4.548867566365845,0.1463940571989312
11.711091999999995,4.573451853830288,0.1457166446027703
11.713496,4.601668255735227,0.1449162486364239
11.715884,4.630583505774467,0.1440589282831043
11.718263999999998,4.652701057641538,0.1433754765273345
11.72066,4.673607904695111,0.1427431311193548
11.723048,4.692372881375407,0.1421713556726143
11.725424,4.706574578055428,0.1417496768416496
11.727832,4.723802088840263,0.1413179287496068
11.730216,4.738887729251818,0.1409537363712664
11.732599999999998,4.745453109998509,0.1407658472558779
11.735004,4.752298029998921,0.140554853893929
11.737388,4.7630073818653065,0.1402633781458135
11.739767999999998,4.777860704851387,0.1398659015210793
11.742164,4.800350343770795,0.1392514177466878
11.744547999999998,4.824190457130565,0.1385863735126762
11.746928,4.841093102691305,0.1380824194297385
11.749319999999996,4.855574338625045,0.1376682255824318
11.751707999999995,4.871498596797764,0.1372554911546709
11.754088,4.888074481276538,0.1368470660777652
11.756491999999998,4.903719200195535,0.1364581919922596
11.758875999999995,4.9175941357935935,0.1361584169353334
11.761256,4.93049068400363,0.1359398730479852
11.763659999999998,4.94562165038556,0.1357190882757651
11.766043999999996,4.963266574193105,0.1354700474657977
11.768428,4.98133080688123,0.1351927546525474
11.770827999999998,5.003539010689051,0.1348219351387269
11.773215999999998,5.030962120803203,0.134333058502225
11.775592,5.054008942372184,0.1339070239673385
11.777995999999998,5.0744020368886895,0.133517789645603
11.780383999999998,5.1006616640175855,0.1330117301031693
11.782764,5.128783622266038,0.1324778467973289
11.785168,5.154112083835157,0.1319991051818975
11.787551999999998,5.177438444657858,0.1315648352288343
11.789932,5.194199424733868,0.1312941770496335
11.792336,5.20895830406346,0.1310641751931668
11.794719999999998,5.226370910445528,0.1307941434347792
11.7971,5.242852351267818,0.1305414844657099
11.799504,5.257751000224271,0.1303005394026099
11.837716,5.260593614589719,0.1300183348274589
11.840111999999998,5.263247341642193,0.1299859054691725
11.842503999999998,5.264458046455693,0.129952043411178
11.844891999999998,5.263946189776495,0.1299368175746712
11.847272,5.2643654986570745,0.1299074397122377
11.849667999999998,5.264505268283934,0.129897749875305
11.852052,5.268928778657348,0.129794373073677
11.854447999999998,5.271722275336682,0.1297531110227055
11.856844,5.283175801307744,0.1295727149828204
11.859232,5.297655141383616,0.1293857766528527
11.861611999999996,5.318093561870496,0.1291396953265176
11.864016,5.337461047170738,0.1289121967453423
11.866404,5.359110172471117,0.128627393748277
11.868783999999998,5.383180707398494,0.1282769959337907
11.87118,5.411255443818703,0.1278527680406838
11.873563999999998,5.43574528762666,0.1274738463920388
11.875944,5.459211418076221,0.1270635524168446
11.878348,5.475228224047556,0.1267619008672995
11.880736,5.489522468526193,0.1264812700160925
11.883115999999998,5.502745777818193,0.1262258513386225
11.885512,5.511964885617359,0.1260461406233811
11.887899999999998,5.521183993416525,0.125868567015963
11.890279999999995,5.535198698641444,0.1256154911155867
11.892675999999998,5.550284339053,0.1253390642752445
11.895059999999996,5.563507648345,0.1250899998006909
11.897455999999998,5.573797691330805,0.1248912532181921
11.89986,5.580223302450635,0.1247562198749139
11.902248,5.587627300958489,0.1245555591380164
11.904628,5.585440104614838,0.1245046138748096
11.90702,5.580506633420095,0.1244398466387876
11.909408,5.575620384053595,0.1243229318384761
11.911787999999998,5.576368349874009,0.1240788009990111
11.914192,5.575393754201726,0.1238507343687298
11.91658,5.573068684089084,0.1236630277858382
11.918959999999998,5.566599642856748,0.1235523716920475
11.921356,5.563995033490386,0.1233829732551274
11.92374,5.56325275524358,0.1231889581067199
11.926123999999998,5.568377009609163,0.122900441096521
11.92852,5.57243032878811,0.1226334745007158
11.930908,5.5764836479670565,0.1223667755344899
11.933287999999996,5.58160790233264,0.1220780069431725
11.935683999999998,5.583287033712833,0.1218208123568773
11.938067999999998,5.584174769160106,0.1215692618471012
11.940464,5.583060403860963,0.1213504675086485
11.94286,5.587021175241293,0.1210456880358437
11.945248,5.590981946621621,0.1207397288624921
11.947627999999998,5.597596445054425,0.1204074604038598
11.950032,5.60258092979315,0.1201324446568285
11.95242,5.607285875278153,0.1198723777098423
11.9548,5.611943598934914,0.1196630769171313
11.957196,5.616833640017153,0.1194893863721553
11.959584,5.618510875539475,0.1193805117621064
11.961963999999998,5.621770902927635,0.1192660800057817
11.96436,5.624099764756014,0.1191633256486841
11.966748,5.633785403264005,0.1189251320778717
11.969127999999998,5.64081731471952,0.1187141892252142
11.971532,5.650642722854369,0.1184721004586356
11.973916,5.658745569496523,0.1182444980996545
11.976299999999998,5.668710747258233,0.1179946109006689
11.978696,5.68067802576636,0.1177153493277915
11.98108,5.69678927539418,0.1173699247274004
11.983476,5.714483316887839,0.117018859590079
11.985879999999998,5.732456897635218,0.116656146528844
11.988263999999996,5.758578650995123,0.116171066099377
11.990644,5.7764124621156405,0.1158229956274703
11.993039999999995,5.797179539542353,0.1154360746210667
11.995428,5.815292889916591,0.1150733703909312
11.997808,5.835408341037246,0.1146808379516644
12.000207999999995,5.858596828090956,0.1142364123086992
12.002596,5.88755929995844,0.1136755096322302
12.004976,5.913868044773448,0.1131393761312236
12.007379999999998,5.937383292909121,0.1126317950888337
12.009763999999995,5.959967375485015,0.1121358914456711
12.012144,5.985624493993966,0.1115938437771885
12.01454,6.004064605450169,0.1111718347031849
12.055152,5.962917704512035,0.1108043095674629
12.057547999999995,5.964500496377871,0.1108019769434359
12.059936,5.967014453803486,0.1107908231775576
12.062316,5.973253073468214,0.1107435035525171
12.064719999999998,5.979911002013521,0.1106721271051044
12.067107999999998,5.993366628731,0.1105187555475184
12.069488,6.0089641258217545,0.1103328302307952
12.071883999999995,6.030335607726282,0.1100384995921306
12.074271999999995,6.053197333698027,0.1097046423994574
12.076652,6.074988124483136,0.1093843372981592
12.079048,6.0986412463878,0.1090481775415607
12.081436,6.12536740422552,0.1086668726479364
12.083816,6.156377302809793,0.1082134214606627
12.086212,6.191251633260044,0.1077178855864267
12.0886,6.220771287777098,0.1073080108517586
12.090979999999998,6.250011403040432,0.1069142288390162
12.093384,6.280322453490406,0.1065057339280552
12.095772,6.305837906514627,0.1061566162811296
12.098152,6.33056196360593,0.1058097675099924
12.100548,6.355425790324093,0.1054571621565991
12.102936,6.377496120362921,0.1051333978493349
12.105331999999995,6.3957020185357765,0.1048564784906747
12.107727999999998,6.408041384096243,0.1046467478622597
12.110111999999996,6.41865818816401,0.1044473337428225
12.112492,6.430345927418417,0.10423279183217
12.114895999999998,6.444315306672961,0.1039812622300441
12.117283999999998,6.455910498128751,0.1037340626474637
12.119664,6.463873575144044,0.1035582535529116
12.122063999999998,6.46927547290548,0.1034361296559504
12.124451999999998,6.477098780293914,0.1032672945755242
12.126832,6.486272562122705,0.1030705278459595
12.129236,6.495865652832078,0.1028526748946571
12.131624,6.505598513168312,0.1026287319696422
12.134003999999996,6.514539977571627,0.1024076065698887
12.136399999999998,6.527625413094636,0.1021330323029432
12.138787999999998,6.541130157498225,0.101836585018061
12.141171999999996,6.553703736342036,0.101549086016391
12.143563999999998,6.5672084807456255,0.1012550605015567
12.145951999999998,6.580573455522355,0.1009685605196827
12.148328,6.592867495112445,0.1006975506619779
12.150724,6.607163635448953,0.1004057416454316
12.153112,6.62118023653174,0.1001289013114145
12.155507999999998,6.641063370226918,0.0997939288916185
12.157908,6.660015338362316,0.0994661851284567
12.160296,6.6769652057513,0.0991611361341562
12.162675999999998,6.690981806834087,0.0988878938946579
12.16508,6.7047188686631545,0.0986302768079564
12.167468,6.717804304186164,0.0983648781581226
12.169847999999998,6.732519753403252,0.0980559904757071
12.172244,6.751239404113174,0.0977085002601546
12.174632,6.764464609263043,0.0974397454174735
12.177011999999998,6.777689814412911,0.0971731720106795
12.179412,6.788121522883445,0.0969272968103196
12.1818,6.795899504301505,0.096695793561931
12.184179999999998,6.803957024973285,0.0964515457961745
12.186584,6.813085480831703,0.0961948039793698
12.188972,6.821282771130344,0.0959447585640405
12.191351999999998,6.826826334376508,0.0957072951013602
12.193748,6.833860141689891,0.0954362547452295
12.196132,6.8394509267643,0.0951566976676979
12.198515999999998,6.83945471848004,0.0949153913221461
12.200907999999998,6.8348026823968855,0.0947052519243765
12.203295999999998,6.824423883328203,0.0945413348878322
12.205676,6.814976249819297,0.0943706157793258
12.208075999999998,6.809532817803226,0.09416010173107
12.210463999999998,6.801016349854099,0.0939823782643018
12.212844,6.790358011531696,0.0938313377007651
12.215239999999998,6.782772709142347,0.0936467068143738
12.217627999999998,6.775978802685917,0.0934627157749192
12.220011999999995,6.761967889176737,0.0933579582591157
12.222403999999996,6.750378385294555,0.0932124046989558
12.224791999999995,6.735576075852458,0.0931065369450517
12.227187999999998,6.725569363836112,0.0929617500469549
12.229588,6.71821637887224,0.092805128828591
12.231976,6.708581753908232,0.0926815668274366
12.234355999999998,6.699738524877143,0.0925587590815048
12.236752,6.691407152525251,0.0924505178863095
12.23914,6.685729507225832,0.0923308287303767
12.241519999999998,6.676559517112778,0.0922636363799423
12.243916,6.66962394517162,0.0922059554009087
12.246304,6.66841513621599,0.0921050006689936
12.248683999999995,6.675866356552086,0.0919358768027898
12.251088,6.689044339873712,0.0917241896201873
12.253472,6.705435128755254,0.0914762123761154
12.255855999999998,6.719823816890378,0.0912496292457271
12.258252,6.74222090801117,0.090951682633966
12.260635999999998,6.767551265438158,0.090629403637673
12.263019999999996,6.787806486185673,0.0903564839163989
12.265415999999998,6.808061706933187,0.0900856616220529
12.267803999999998,6.832740438054117,0.0897579318073948
12.270184,6.858350334734824,0.0894264992042185
12.272579999999998,6.888755828841283,0.0890613959216273
12.274967999999998,6.9139464166414095,0.0887525127629248
12.277359999999998,6.934061867762065,0.0884912508610053
12.27976,6.956179419629136,0.0882124527462887
12.282148,6.975223935563152,0.0879646708171266
12.284527999999998,6.997481257057084,0.0876821664862344
12.286924,7.020018117804737,0.0873884791447018
12.289312,7.046047323366026,0.0870455720099502
12.291691999999998,7.072775377061616,0.0866716196641424
12.294088,7.101505531503622,0.086286528548979
12.296475999999998,7.126511023706516,0.085925955389067
12.298859999999998,7.148862788856934,0.0855772636139893
12.301256,7.166139417327879,0.0852744998739088
12.303643999999998,7.181413945052409,0.084988592183113
12.306023999999995,7.190542400910826,0.0847596701958528
12.308428,7.2027438927023,0.0845062718700629
12.310812,7.221882852292802,0.0842021884554133
12.313191999999995,7.242092747069943,0.0838898796410469
12.315587999999998,7.260812397779866,0.0836087007219635
12.317975999999998,7.278600882930009,0.0833333289154576
12.320372,7.292944245094761,0.0830648730507554
12.322768,7.308777851326731,0.082766011749563
12.325156,7.329826363865033,0.0824198413875044
12.327535999999998,7.34822114935086,0.0820808324813237
12.329939999999995,7.367966409277047,0.0817187373804142
12.332328,7.385057942150759,0.0813663086161434
12.334708,7.398005503904776,0.0810493963343401
12.337104,7.411464922337991,0.0807491276947733
12.339492,7.425575967077266,0.0804594089554465
12.341872,7.433820479204149,0.0802080847338768
12.344268,7.44299615689081,0.079953536373984
12.346656,7.452823460883527,0.0797080388146247
12.349035999999998,7.46651519674222,0.0794409101989018
12.35144,7.480067162974054,0.0791792330165574
12.353824,7.493758898832747,0.0789107927353948
12.356203999999998,7.502794806892548,0.0786641675839188
12.358608,7.507826513459516,0.0784468902543206
12.360996,7.510576580026347,0.0782560820231026
12.363376,7.516539452153093,0.07803700593592
12.365779999999996,7.5214313890932,0.0778276101864034
12.368164,7.527114721966225,0.0776205982963355
12.370544,7.537314113011282,0.0774026097351736
12.37294,7.545371633683063,0.0772047509814845
12.375328,7.558084982153734,0.0769898246595002
12.377707999999998,7.572520892117102,0.0767751168385306
12.380108,7.588819133200026,0.0765550929632833
12.382492,7.611123676522201,0.0762975293867466
12.384871999999998,7.632636823911459,0.0760393939823292
12.387268,7.650425309061602,0.0757954461651202
12.389656,7.670355664585022,0.0755331903485634
12.392052,7.688423688988887,0.0752783120909993
12.394447999999995,7.703698216713416,0.0750332608746632
12.396836,7.71603947813175,0.074804589511597
12.399216,7.731453775483139,0.074555270093786
12.401619999999998,7.749801339140723,0.0742914284276342
12.404004,7.766798428357949,0.0740475215700218
12.406384,7.7799310857092,0.0738210139776479
12.40878,7.792272347127535,0.0735917153082704
12.411168,7.803682442986091,0.0733679920233257
12.413548,7.81909674033748,0.0731215492680179
12.415951999999995,7.833300332875371,0.0728896494200386
12.418336,7.843779263174149,0.072671755560641
12.42072,7.855329128659564,0.0724458218549387
12.423116,7.865156432652284,0.0722219522216684
12.425504,7.870839765525308,0.0720268234881802
12.427884,7.87237912727864,0.0718604318208916
12.43028,7.869774517912279,0.0717228645746677
12.432668,7.86530757742636,0.0715909696426905
12.435047999999998,7.865356695112471,0.0714508100133685
12.437452,7.868059539851058,0.0713086151171963
12.43984,7.872624715709201,0.0711611638781149
12.44222,7.881054323433318,0.0709975376943013
12.44462,7.89348813265027,0.0708129843357378
12.447004,7.901266114068329,0.0706418366003987
12.449388,7.909183865113248,0.0704665042719842
12.451791999999998,7.92203698321078,0.0702677914135022
12.454176,7.941967338734202,0.0700295225158927
12.45656,7.965110499817538,0.0697685177733767
12.458955999999995,7.987042956087374,0.0695228125682544
12.461344,8.007113081237655,0.069284441347895
12.463724,8.029185307134354,0.0690360447649907
12.46612,8.048184497097996,0.0688050206094584
12.468508,8.065181586315223,0.0685846684326936
12.470888,8.082178675532447,0.0683658297229208
12.473291999999995,8.099455304003394,0.0681349399955834
12.475679999999995,8.119665198780535,0.0678914257688669
12.47806,8.14401906467737,0.0676236164182833
12.480456,8.16995572244004,0.0673624242186127
12.482844,8.192307487590458,0.0671063514100485
12.485224,8.210794820874904,0.0668659054508021
12.48762,8.22807144934585,0.0666390466450504
12.490008,8.244556681883875,0.0664107063316472
12.492403999999995,8.255827008115572,0.0662149927900096
12.494799999999998,8.273755262892575,0.0659999455406235
12.497187999999998,8.288750251363384,0.0657974779508012
12.499568,8.298018476848663,0.0656130355378772
12.501967999999998,8.306075997520443,0.0654427527635112
12.504355999999998,8.310780943005447,0.0652997854158693
12.506736,8.314554722930671,0.0651590437612918
12.509131999999996,8.311111495803148,0.0650574509588408
12.511519999999996,8.30687687274271,0.0649526573901294
12.5139,8.307717386361738,0.0648224181951651
12.516295999999995,8.311910475167544,0.0646659820292464
12.518684,8.314892859159853,0.0645221994389464
12.521064,8.32388154539141,0.0643525176997577
12.52346,8.334220706063327,0.0641666385127728
12.525848,8.339764269309494,0.0639953119310356
12.528228,8.34493574550332,0.0638056434822716
12.530628,8.35024699132401,0.0636107189909453
12.533016,8.357420568264253,0.0634125649233991
12.535411999999996,8.366875785204634,0.0631964657811299
12.537807999999998,8.375120297331518,0.0629928205640642
12.540195999999998,8.3857862190854,0.0627651858813334
12.542576,8.39072537785375,0.0625532147687316
12.54498,8.3956645366221,0.0623410164566438
12.547368,8.405539062443061,0.0621109032003341
12.549747999999996,8.412620091584689,0.0618860257458782
12.552143999999998,8.422122530353315,0.0616381836072455
12.554531999999998,8.428040076509687,0.0613903684214752
12.556911999999995,8.443176730465224,0.0610977502060593
12.559311999999998,8.462457355540455,0.0607865003932461
12.561699999999998,8.481598210988826,0.0604826215790358
12.564079999999995,8.498317656810203,0.0602032573659873
12.566475999999998,8.516247807445076,0.0599134510145963
12.568863999999998,8.531244691773752,0.0596352420382456
12.571244,8.543168540169376,0.0593717878880299
12.573639999999996,8.555092388564999,0.0591075660695262
12.576027999999996,8.5667366977069,0.0588539267487341
12.578408,8.577310071662165,0.058606097621827
12.580803999999995,8.58765112819195,0.0583356711044541
12.583192,8.59533845766926,0.0580646349152489
12.585587999999998,8.602374160840515,0.0577848675703093
12.587984,8.60982917289235,0.0574911326285223
12.590372,8.620217451250383,0.057189606016486
12.592751999999996,8.629674564048633,0.0568884822341588
12.595156,8.638340280913965,0.0565851363122587
12.597544,8.645143666659742,0.0562826845369916
12.599923999999998,8.648874016472464,0.0559929176187215
12.60232,8.656608567778017,0.0556889743494111
12.604712,8.660478687217598,0.0553945676605098
12.607087999999996,8.654338302925096,0.0551323305805805
12.609492,8.6447527956472,0.0548634112379658
12.61188,8.629720064637494,0.0545923400684741
12.614264,8.612825002508231,0.0543224484495939
12.61666,8.593136443699633,0.0540540084474114
12.619044,8.57144578414462,0.0537905064478074
12.621423999999998,8.552548621268942,0.0535244490502013
12.623824,8.529787026527288,0.0532645744184852
12.626207999999998,8.510610324397888,0.0530068662405433
12.628587999999995,8.490734774134188,0.052773270102381
12.630992,8.471650619803405,0.0525432556433043
12.63338,8.45535996215196,0.0523114955826098
12.635759999999998,8.435157650806294,0.0521195365425115
12.638156,8.41495533946063,0.0519274659313532
12.640543999999998,8.398757229607797,0.0517234032231224
12.642923999999995,8.378275379008414,0.0515398503573932
