Time,Force,Position
11.241852,2.591777188570556,0.1854676980468877
11.244236,2.736402381834382,0.1820015852095764
11.246628,2.860126415618243,0.1798819810203909
11.249016,2.970910471079563,0.1781088344080225
11.251392,3.072012679748632,0.1765039029911178
11.253787999999998,3.165108381289902,0.1752270413973358
11.256171999999998,3.255971560517147,0.1737402856638906
11.258552,3.345208517766052,0.171861747127318
11.260944,3.417314303744478,0.1705441293890436
11.263328,3.4682374951313504,0.1700336247800811
11.265707999999998,3.518835821294128,0.1694725227275858
11.268123999999998,3.571717683314912,0.1686017753301062
11.270507999999998,3.624184028170854,0.1673098929909579
11.272888,3.665153416943231,0.1661308765609875
11.27528,3.688525103736306,0.1654333764516908
11.277664,3.704587235678015,0.1649850306289119
11.280043999999998,3.7180881883658654,0.1646797083699168
11.28246,3.733311702546413,0.1643253172795725
11.296815999999998,3.7721788593422794,0.1641262301161326
11.2992,3.783815585052704,0.1640816400548289
11.30158,3.8014586130023793,0.1638232509483103
11.303972,3.819333958377533,0.1636226136471222
11.30636,3.835439520431746,0.163550623042533
11.308739999999998,3.8565276713668153,0.1632307440018754
11.311151999999998,3.8845079641305382,0.1625193322923424
11.323088,3.91052769040248,0.1624499119510021
11.32548,3.916020240104664,0.1624383592026605
11.327868,3.9258890783520175,0.1623269704018265
11.330263999999998,3.942648162570159,0.1620724110343104
11.33266,3.968579132759223,0.1615876082721872
11.335043999999998,4.001727110001035,0.1608544848028818
11.33742,4.034642769817371,0.1600816613587223
11.339823999999998,4.064951924409474,0.1593059004912492
11.342207999999998,4.096891092695658,0.1584362321153921
11.344588,4.133253771355256,0.1574018616424419
11.346991999999998,4.169663671843096,0.156318144219196
11.349379999999998,4.197320995240594,0.1554462636740482
11.351756,4.222464361212479,0.1546285564868954
11.354152,4.248259353490421,0.1538274329722349
11.356536,4.271725483939982,0.1531780976088484
11.358916,4.292071356628244,0.1526950743297664
11.361332,4.3258728560339845,0.1518357758796893
11.36372,4.360325981745784,0.1509852622193592
11.366099999999998,4.391706071524526,0.1502447426050119
11.368504,4.425600118728882,0.1494651428120781
11.370888,4.461076957799075,0.1486684904796117
11.444952,4.402662907679343,0.1482099372803174
11.447356,4.40606270469436,0.148035469830835
11.449744,4.418913926934024,0.1476439645919584
11.452124,4.428924430666108,0.1473829444512968
11.454527999999998,4.436373755144334,0.1472238383616116
11.456915999999998,4.447919828914012,0.1470154390095567
11.459296,4.462771256042221,0.1467596709309866
11.461695999999998,4.479857101342326,0.1464921481555666
11.464083999999998,4.502809479254821,0.1460861405509205
11.466464,4.527484418660011,0.1456608702888062
11.468859999999998,4.54694445175887,0.1453826212798528
11.471244,4.569849607843121,0.1450506512093033
11.473624,4.597038504673926,0.1445966624047747
11.476027999999998,4.625997184825672,0.1440534722850452
11.478416,4.657377274604415,0.1434175623101912
11.480796,4.681587579158651,0.1429157309455652
11.483192,4.705378574832306,0.142455242003968
11.485576,4.727167469759544,0.1420474567710194
11.487956,4.754962666926033,0.1414941332490821
11.490352,4.783828799279161,0.1409070140857978
11.49274,4.812555162005428,0.1403432946520366
11.495119999999998,4.836997783985143,0.1399124137035557
11.497524,4.857855513352604,0.1395521930002306
11.499912,4.880203486787284,0.1391334105036218
11.502287999999998,4.902319142796487,0.1386758201295804
11.504684,4.922991776566713,0.1382283195483769
11.507068,4.945946050337077,0.1377177105982696
11.509464,4.965874510002627,0.1372203201347548
11.511867999999998,4.982637385936506,0.1367583416954509
11.514252,4.9962346781387135,0.1363239711889245
11.516632,5.009320113661722,0.1358680317399525
11.519035999999998,5.020822757318895,0.1354262521024767
11.52142,5.027390033923455,0.135089085528828
11.5238,5.031675670527879,0.1348168819188202
11.526203999999998,5.038894573438497,0.1344881903496775
11.528591999999998,5.050629534521146,0.1340871202005359
11.530972,5.061293560417157,0.1337136454642014
11.533376,5.07223712556689,0.1333189408658317
11.535759999999998,5.078524862917729,0.1330080236265929
11.53814,5.081227707656317,0.1327482689286955
11.540544,5.080485429409512,0.1325321173117284
11.542927999999998,5.0812333952299245,0.1322593301081709
11.545312,5.08226090030406,0.1319670904874008
11.547703999999998,5.081705613512357,0.1316865016272889
11.550092,5.081941722653573,0.1314007445133039
11.552472,5.076823155861596,0.1312430966937049
11.554875999999998,5.071425049815898,0.131106499838585
11.557259999999998,5.069611836382453,0.1309193448088397
11.562043999999998,5.056299771007573,0.1308313163553259
11.564431999999998,5.052949091678667,0.1307568316403267
11.566812,5.051320973842457,0.130662399098476
11.569216,5.050903560819746,0.1305314539330816
11.571604,5.051976391864256,0.1303433247781011
11.57398,5.048253625483012,0.1302422065716614
11.576375999999998,5.046393190221324,0.1301114168012717
11.57876,5.046022999026857,0.1299250099962592
11.58114,5.043790476712831,0.1297678316043042
11.583536,5.041557954398806,0.1296102033777814
11.58592,5.045703821376369,0.1293576764575492
11.588299999999998,5.051013171339187,0.1291257819278552
11.597872,5.03867759749446,0.1291239228483962
11.605047999999998,5.036862488203147,0.1290960508858223
11.607432,5.037561336337449,0.1290442411645061
11.609816,5.046408357084278,0.1288219455583789
11.612208,5.053113507457829,0.1286514760659137
11.614596,5.055023060405628,0.1285646932755887
11.616976,5.059726110032763,0.1284340986038085
11.619372,5.067874282645291,0.1282680967858933
11.62176,5.079747117496933,0.1280449639792175
11.62414,5.08789529010946,0.1278808347066939
11.626544,5.093622053094991,0.1277857191567657
11.628932,5.104796039812329,0.127617031185812
11.631312,5.115550717649088,0.1274770481831067
11.633715999999998,5.129657970672623,0.1272624513122022
11.636103999999998,5.146978029256074,0.1269797096128644
11.638484,5.1693732245189965,0.1266014128509395
11.64088,5.1988456572078094,0.1260893273238724
11.643264,5.231530895456537,0.1255044027312891
11.645644,5.262633341839428,0.1249344155487385
11.648044,5.293084161916261,0.1243651348589975
11.650428,5.324326377926012,0.1237911591574467
11.652812,5.35850186024196,0.1231701726426
11.655216,5.387462436251574,0.1226525393954438
11.6576,5.409345774835298,0.1222709360455863
11.65998,5.432160278978802,0.1218775183727605
11.662372,5.459910150174917,0.1213983206709195
11.66476,5.4847267550648375,0.1209698573151156
11.667139999999998,5.505678928088784,0.1206078869000222
11.669531999999998,5.524768769993175,0.1202743396560096
11.671919999999998,5.5457209430171215,0.1199164106077025
11.6743,5.568163360108287,0.119507967704249
11.676692,5.588231589400699,0.1191161201122237
11.67908,5.611931933133607,0.1186336929770152
11.681456,5.625761542761291,0.1183139877109757
11.683872,5.636657886082779,0.1180420567035095
11.686255999999998,5.641408157538156,0.1178782500807025
11.688636,5.639360730821365,0.117816156560542
11.691052,5.636382138544796,0.1177658775356553
11.695832,5.626653069924302,0.1177639686175417
11.698236,5.623115399140294,0.1177497907022801
11.70062,5.619437958729423,0.1177443118366378
11.702999999999998,5.622697986117581,0.1176321592593411
11.705404,5.626749409438657,0.1175164326369505
11.707788,5.629729897573098,0.1174214314248541
11.710167999999998,5.632850155334396,0.1173186017307692
11.712572,5.640905780148307,0.1171428594990632
11.71496,5.6489614049622165,0.1169671172673571
11.717339999999998,5.657668656082185,0.1167982945099916
11.719744,5.666096367948433,0.1166479459779111
11.722132,5.677689663546353,0.1164906806422897
11.724512,5.691377607689307,0.1163468910130529
11.726916,5.705158099630878,0.116246675854831
11.7293,5.724525584931119,0.1160819404979997
11.73168,5.744824235791139,0.1159072237196799
11.734084,5.770198023330631,0.1156524648126354
11.736472,5.802509278669152,0.1152987981200269
11.738852,5.83668286512723,0.114927398625233
11.741255999999998,5.87020482527925,0.1145482572553918
11.74364,5.906939590991184,0.1141162302982818
11.74602,5.942743191143341,0.1136998021892408
11.748416,5.9791058698029405,0.1132572802746766
11.750804,6.009741785477009,0.1128868546409293
11.753184,6.043730276337852,0.1124540359270172
11.755587999999998,6.081071342385471,0.1119630436123165
11.757972,6.117201703619592,0.1115036882657532
11.760352,6.145323661868043,0.1111556937472172
11.762755999999998,6.176798195303272,0.1107508825449585
11.76514,6.208552267992221,0.1103320230183883
11.76752,6.239514944748253,0.1099152410344134
11.769916,6.266101332959111,0.1095330654504989
11.7723,6.284586770385687,0.1092185118266339
11.774679999999998,6.30083778964037,0.1089023207021752
11.777084,6.315506017029214,0.1085907829633752
11.779472,6.331384949231557,0.1082566962814777
11.781852,6.346472485500984,0.1079268162599913
11.784256,6.358906294717936,0.1076205908975641
11.78664,6.371619643188607,0.1073022389038957
11.78902,6.386335092405696,0.1069594477314875
11.791424,6.396394713823892,0.1066614098140262
11.793812,6.402450133749253,0.106412280212353
11.796192,6.406084144047618,0.1062123872266934
11.798595999999998,6.413862125465677,0.1059557130160705
11.800983999999998,6.421779876510597,0.1056940632935082
11.803364,6.426624591622461,0.1054742179821658
11.805768,6.431236989308848,0.1052257461207059
11.808156,6.444137329234623,0.1048674424606925
11.810536,6.452893698040706,0.1045660992536401
11.812931999999998,6.464862872406701,0.1042225223850608
11.815319999999998,6.477251355653278,0.1038573701975987
11.8177,6.488568903713219,0.1035057187003796
11.820104,6.505752984385548,0.1030894011411067
11.822487999999998,6.524008000244516,0.1026600109970612
11.824868,6.542123246476624,0.1022389659697459
11.827263999999998,6.557584765656254,0.1018359870293502
11.829651999999998,6.572115119276109,0.101442457047699
11.832032,6.584643372149545,0.1010727111341089
11.834435999999998,6.594098589089927,0.1007417330734532
11.836819999999998,6.601691474910751,0.1004263752501915
11.8392,6.61286925334383,0.1000890947030071
11.841603999999998,6.628330772523463,0.0996918209130618
11.843991999999998,6.638996694277343,0.0993358231204266
11.846372,6.643796083418834,0.0990394973745055
11.848776,6.646453602187047,0.0987742555530689
11.889383999999998,6.343118538311803,0.0985730546326327
11.89178,6.329013181146137,0.0985603937598544
11.894168,6.324359249205116,0.0984697708064871
11.896548,6.3187741517043134,0.0983859865854999
11.898943999999998,6.315842781255989,0.0982882442194565
11.901331999999998,6.318126317113996,0.0981256099071136
11.903712,6.3284182559576685,0.0978785847024256
11.906104,6.342854165921036,0.0975818160587583
11.908492,6.362457760362494,0.0972641524725006
11.910872,6.384854851483286,0.0969253559019562
11.913275999999998,6.406413324842917,0.0966346537058049
11.91566,6.426481554135329,0.096381782571232
11.91804,6.4474809489875184,0.0961203192393471
11.920443999999998,6.470202905332405,0.0958527464447137
11.922831999999998,6.496277436864068,0.0955352471092789
11.925212,6.518207997276035,0.0952656646607314
11.927616,6.540790183994061,0.0950013892608812
11.929999999999998,6.560578874032753,0.0947575244997218
11.93238,6.5834406000045,0.0944790932538958
11.934784,6.602577663737132,0.094228496123906
11.937172,6.621714727469766,0.0939812417097652
11.939552,6.640060395269481,0.093737477977893
11.941956,6.6526793000836655,0.0935439192443421
11.944344,6.66636914008449,0.093336818721549
11.946723999999998,6.682480389712311,0.0930899027694394
11.949115999999998,6.6967293082205765,0.0928575643732956
11.951503999999998,6.704971924489589,0.0926864364967848
11.953884,6.713354310385464,0.092510172888106
11.956279999999998,6.722295774788777,0.0923076483500909
11.958667999999998,6.729514677699396,0.0921105001126919
11.961052,6.73435939281126,0.0919108164726144
11.963447999999998,6.738412711990207,0.0917099085470312
11.965832,6.743816505609512,0.091482230423065
11.968216,6.748848212176479,0.091233541999025
11.970612,6.753740149116587,0.0909930034940835
11.973,6.763335135683829,0.0906807102707811
11.97538,6.7777729415050665,0.0902923726929877
11.977776,6.798356819192415,0.0898449946390362
11.980164,6.817078365760207,0.0894115230635228
11.982539999999998,6.842318071246447,0.0889411254253539
11.984944,6.86476428005335,0.0884893950709
11.987332,6.88320628736742,0.0880741402035112
11.989712,6.901927833935211,0.0876464745438
11.992108,6.92265148124942,0.0872042593811446
11.994496,6.9410934885634905,0.0867954501416176
11.996876,6.959395726250701,0.0863940744904158
11.999272,6.976627028751272,0.0860028401391169
12.00166,6.98971436013215,0.0856531367450144
12.004056,6.998006094087276,0.0853362566264035
12.006451999999998,7.0121643606547925,0.0849787266392425
12.00884,7.0293956631553645,0.0845949077929006
12.01122,7.0497000015889935,0.0841847476315169
12.013623999999998,7.072797836701955,0.0837637426349473
12.016011999999998,7.097478463680754,0.0833494090276849
12.018392,7.120156989913136,0.0829519478621663
12.020796,7.142276437638079,0.0825833490658894
12.023184,7.159832605362745,0.0822743570770682
12.025564,7.171382470848159,0.0820134779963696
12.027959999999998,7.187727933759327,0.0817272160134067
12.030347999999998,7.20006919517766,0.0814730139431178
12.032728,7.213062082902052,0.0812269987329565
12.035123999999998,7.232712899171753,0.0809466641072689
12.037511999999998,7.251944406560874,0.0806857460195441
12.039896,7.267963108390077,0.0804571576690448
12.042288,7.287846242085254,0.0802079842198345
12.044676,7.310802411713487,0.0799364645950655
12.04706,7.337762782834553,0.0796369478975787
12.049456,7.366725254702037,0.07932236355388
12.051844,7.399132849554913,0.0790033650585702
12.054224,7.426325538101458,0.0787330219954474
12.056627999999998,7.450165651461226,0.0785005007294054
12.059015999999998,7.470792959261078,0.0782990589425374
12.0614,7.488207461501014,0.0781289729256632
12.063795999999998,7.500267287807759,0.0780079525340198
12.06618,7.517262481167115,0.0778570953031125
12.06856,7.533186739339833,0.0777164628418244
12.070963999999998,7.5491109975125505,0.0775753190542178
12.073348,7.568899687551242,0.0774135792880894
12.075728,7.579748809044487,0.0773101587315383
12.078131999999998,7.589806534604814,0.0772043606030403
12.080519999999998,7.600935195351781,0.0770891209380383
12.0829,7.606476862740077,0.076996933189409
12.085304,7.610156199008816,0.0769117706100725
12.087687999999998,7.617048340837472,0.0767980793626745
12.090068,7.617003014867098,0.0767277525183107
12.092472,7.610811617030612,0.0767028029687342
12.094855999999998,7.605551384753906,0.0766741763803739
12.097236,7.601362087663839,0.0766360794053939
12.099636,7.597172790573771,0.0765980373595016
12.102019999999998,7.591121162364146,0.0765668960592973
12.1044,7.587071634900938,0.076522879163877
12.106804,7.585303747437868,0.0764542360417861
12.109191999999998,7.584746564788296,0.0763704927262367
12.111572,7.589683827698778,0.076234186553626
12.113976,7.590477119489565,0.076129861710531
12.116359999999998,7.592620885720711,0.0760049022072184
12.11874,7.600910723817968,0.0758378638901281
12.121135999999998,7.607198461168808,0.0756838393396145
12.123523999999998,7.617630169639343,0.0754985510289106
12.125904,7.631274683669793,0.0752870512590454
12.128308,7.640403139528211,0.0750853803926678
12.130691999999998,7.648460660199991,0.0748922207435983
12.133076,7.660801921618323,0.0746634194452182
12.135471999999998,7.672212017476879,0.0744395360476088
12.137859999999998,7.690187494082125,0.0741573454497542
12.140244,7.713517646620566,0.0738309960002308
12.142648,7.73526500729317,0.0735025591528094
12.145032,7.756081202405995,0.0731784590145213
12.147415999999998,7.778527411212901,0.0728254819961806
12.14982,7.804326195206581,0.0724414575573774
12.152204,7.829333583267343,0.0720559698782719
12.154583999999998,7.854201201701245,0.0716784677954834
12.156988,7.875204388269173,0.0713175625553973
12.159372,7.894345243717546,0.0709644717180096
12.161751999999998,7.911111911367164,0.0706018796946215
12.164156,7.926016247897224,0.0702458180047
12.166544,7.93226055513556,0.0699263370911833
12.168924,7.937993005694697,0.0695927904036864
12.171328,7.946798492186891,0.0692422681341621
12.173716,7.949597676439834,0.0689234014477303
12.1761,7.957983854051446,0.0685889538556197
12.178492,7.968511902036335,0.0682379576342031
12.18088,7.977829245207726,0.0679026682533744
12.18326,7.984073552446062,0.0675858183667111
12.185656,7.987896450057399,0.0672980230802421
12.188044,7.988506542108822,0.0670343189509243
12.190423999999998,7.98497266304055,0.0667958087914935
12.192828,7.983720423972416,0.0665371418821892
12.195216,7.978324213784589,0.0663037463698796
12.197596,7.967573327663567,0.0661077015267293
12.199992,7.956822441542546,0.0659114993746421
12.20238,7.945280159488608,0.0657119543057092
12.204759999999998,7.938673244487282,0.0654907991481933
12.207156,7.934068430232371,0.0652606372812864
12.209544,7.932908738962854,0.0650328321886085
12.211923999999998,7.9322609043725345,0.0648191314226818
12.21432,7.935058192767608,0.0646074148155012
12.216708,7.939298503401658,0.0644083574567066
12.219088,7.936321806982958,0.0642500226429574
12.221492,7.936138607243594,0.0640849515115514
12.22388,7.933301680451753,0.0639205066724287
12.226259999999998,7.928183113659776,0.0637758834281748
12.228656,7.920131280561605,0.063642182251677
12.231044,7.9148729441427665,0.0635026522043831
12.233423999999998,7.904819010298178,0.0633774433236763
12.235828,7.893833910893811,0.0632536316053957
12.238216,7.885782077795638,0.063118206646217
12.240595999999998,7.874377669510691,0.0630101185978901
12.242992,7.865766757905078,0.0628963112216941
12.245375999999998,7.866235184471772,0.062739221630162
12.247759999999998,7.864841279918908,0.0625853836578333
12.250156,7.862376440179405,0.0624386498497622
12.252544,7.8591202045069855,0.0622887028373382
12.254924,7.85265116327465,0.0621600883471835
12.257319999999998,7.844599330176477,0.0620237423749236
12.259707999999998,7.840971007451719,0.0618547244150117
12.262088,7.839624324727098,0.061666973547075
12.264487999999998,7.839488346815976,0.0614678097687765
12.266875999999998,7.845638210397825,0.0612327139654087
12.269268,7.856863210659147,0.0609757452928207
12.271672,7.871812873159582,0.0607145374657502
12.27406,7.891977441966349,0.0604262448136194
12.27644,7.9173569170794496,0.0601116548607919
12.278843999999998,7.939291269207156,0.0597918725641148
12.281228,7.965881449133755,0.0594646811577932
12.283608,8.000619801672881,0.0591043461679833
12.286011999999998,8.036429089398645,0.0587394308288411
12.2884,8.073169542684187,0.0583733961628658
12.29078,8.106185333730618,0.0580124682117521
12.293183999999998,8.133474361791517,0.0576674324206308
12.295571999999998,8.163696656158612,0.0573145606558485
12.297952,8.19764361276482,0.0569592018279913
12.300347999999998,8.227446598251333,0.0566241817207729
12.302735999999998,8.25645818780493,0.0562844907416427
12.305116,8.289054669970778,0.0559479608596983
12.307515999999998,8.315784619524235,0.0556304992974974
12.309903999999998,8.341723173144777,0.0553115515323577
12.312284,8.361795194152926,0.0550082871136672
12.314688,8.382938150347714,0.0547025112052728
12.317075999999998,8.401147840236307,0.0544071731977134
12.319456,8.413490997512511,0.0541270184145615
12.32186,8.422900888482522,0.053855774238089
12.324248,8.429097973892612,0.0536030278184028
12.326627999999998,8.441673448594294,0.0533515503677565
12.329024,8.454808001803416,0.0530815953482054
12.331411999999998,8.45979438240001,0.0528425630201588
12.333792,8.463570058183103,0.0526143625205252
12.336187999999998,8.46776504284678,0.0523718164046375
12.338575999999998,8.47475352418979,0.0521273033013952
12.340956,8.483604336652357,0.0518823902517777
12.343351999999998,8.491384213928285,0.051643486263542
12.34574,8.495579198591962,0.0514022131854017
