Time,Force,Position
11.639332,3.566994376203309,0.1722053941871027
11.64172,3.576024596689503,0.1721653809823917
11.6441,3.5857536653099973,0.1720465483653737
11.646504,3.5985557698635477,0.1718098385213368
11.648888,3.618807198895323,0.1713508005053525
11.651272,3.6428758379648314,0.1708317406922976
11.653668,3.672531470393008,0.1701328646155616
11.656056,3.706842930620076,0.169261602825303
11.658436,3.7400834556605056,0.1684386074567225
11.660832,3.776769103686328,0.1675526955778687
11.66322,3.817411731376741,0.166576578766776
11.665616,3.86112739500021,0.1654725614259332
11.668012,3.902748410078644,0.1644212862968643
11.6704,3.9450682732913807,0.1633264764800793
11.67278,3.989157919825056,0.1621472454723019
11.675176,4.032316400798952,0.1610574012510461
11.677564,4.069236262108123,0.1601192330811988
11.679944,4.10299053968562,0.1592152455138437
11.682348,4.13530179502414,0.1583030574584531
11.684732,4.159464877750134,0.1577024509022094
11.687116,4.184791443461383,0.157128843559157
11.689512,4.209558930665191,0.1566202633593968
11.6919,4.239401554548471,0.1559614788798624
11.694284,4.2685925521256936,0.1553115009372425
11.69668,4.296852384143138,0.1547179412471262
11.699068,4.32767339541444,0.1540265218916739
11.701452,4.355700910006405,0.1534083106121836
11.703848,4.387500308665729,0.1526498306358812
11.706236,4.419998555459353,0.1518311636564182
11.70862,4.447329117774888,0.1511174514019847
11.711016,4.476289693784501,0.1503277730280202
11.7134,4.506321204980755,0.1495168013368054
11.715784,4.533279680243952,0.1487983205469635
11.71818,4.553068370282643,0.1482223619594189
11.720568,4.568992628455361,0.147749100127387
11.722948,4.579701980321745,0.1474299266337969
11.725348,4.59571878629308,0.1470111520888644
11.727736,4.617462355249946,0.1464594645254484
11.730116,4.647354096819338,0.1456974118954513
11.732512,4.676733981709533,0.1449138312622941
11.7349,4.705322470666809,0.1441459554991314
11.737284,4.731257232571612,0.1434244647350225
11.73968,4.74760079962491,0.1429272492393548
11.742068,4.760639013319675,0.1424742414834952
11.744452,4.76930093846927,0.1421025708612637
11.746848,4.7750295973126695,0.1418040040519287
11.749236,4.779547551342571,0.1415452882316776
11.751632,4.778850599066139,0.1414292012318784
11.754028,4.781366452349623,0.1412254615849731
11.756416,4.782811370446468,0.1410501951187747
11.758796,4.781974648543176,0.1409463625777261
11.7612,4.779927221826384,0.1408835446110223
11.763584,4.778019564736454,0.1408093211371608
11.765964,4.783049375445552,0.1405746516224015
11.76836,4.788498495035231,0.1403067558837509
11.770748,4.792736909811412,0.1400768718679658
11.773128,4.796323698281534,0.1398443354089851
11.775524,4.797676068579763,0.1396229448318097
11.777912,4.789716783280208,0.1395772349645525
11.780292,4.78389936835393,0.1394743340350138
11.782688,4.775008917494596,0.1394463110155295
11.785076,4.769703359247515,0.1393593536546968
11.78746,4.772266434359242,0.1390986674266857
11.789864,4.778693941336943,0.1387579845443945
11.792252,4.779766772381451,0.1385575244151206
11.794632,4.778650511224439,0.1384758318382036
11.797028,4.783400782679816,0.1382649813672254
11.801796,4.781168260365791,0.1381016654575933
11.804196,4.777770359208642,0.1380899629818688
11.806584,4.7783766595443256,0.1379837944403004
11.808964,4.778191563947091,0.1378844346132258
11.811368,4.780148338723135,0.1377274041418029
11.813756,4.778752538312401,0.1376683729961105
11.816136,4.776657889767368,0.1376648437992702
11.818532,4.7827114138348605,0.1374693194530691
11.82092,4.789835873088993,0.137248380847419
11.8233,4.797332419395463,0.1370562163993585
11.825696,4.808785945366523,0.1368330701573147
11.828084,4.8206115583899205,0.1366391577260686
11.83048,4.839514408839207,0.1362893636392559
11.832876,4.856554928168936,0.1359748051723719
11.835264,4.87145357712539,0.1357197829629158
11.837644,4.882999650895068,0.1355562955904621
11.840052,4.902414358023552,0.1352302380994361
11.842436,4.931235164406306,0.1346380928283153
11.844816,4.958473178923225,0.1340708035176621
11.847216,4.986642358999921,0.1334838209490849
11.8496,5.023751107622063,0.1327072206671609
11.85198,5.060440547363624,0.131964338666101
11.854384,5.09419672079899,0.1312914144846315
11.856772,5.128884059794134,0.130607165211318
11.859152,5.158216722856087,0.1300458855963259
11.861556,5.18633868110454,0.1295174559323409
11.863944,5.212458538606575,0.1290235509927539
11.866324,5.230849532376665,0.1286814101681636
11.86872,5.246167490213699,0.1284076497253902
11.871108,5.259623116931176,0.1281649731570429
11.873488,5.272566886969455,0.1279071019838363
11.875888,5.287140670701814,0.1275881531928479
11.878276,5.295056525888864,0.1273855128098866
11.904552,5.274669118945966,0.1272406211916394
11.90694,5.272342152975456,0.1271979014334098
11.90932,5.272436596631942,0.1270896864580645
11.911716,5.275092219542286,0.1269054497357713
11.914104,5.279610173572186,0.1266931082248072
11.916484,5.286130228348504,0.1264438790866161
11.918884,5.292091204617381,0.1262322120955847
11.921268,5.298843576819175,0.1260172820116248
11.923652,5.299310107527999,0.1259334346783143
11.926048,5.3033615308490765,0.1258047066802873
11.928436,5.306993645289573,0.1257065606607343
11.930832,5.323057673089152,0.1253599217525229
11.933228,5.334046564209258,0.1251105931425458
11.935616,5.340751714582809,0.1249524447992015
11.937996,5.35360293682247,0.1246708341230789
11.940396,5.363800432009658,0.1244215575400843
11.942784,5.372135596077289,0.124202365802801
11.945164,5.379260055331421,0.1240163791914083
11.94756,5.385965205704972,0.1238614951875994
11.949948,5.398117579810332,0.1236377088865699
11.952328,5.415996716901224,0.1233306890504799
11.954724,5.43131467473826,0.1231000084146143
11.957112,5.444211222948296,0.1229321238403214
11.959496,5.458550793397308,0.1227684666377949
11.9619,5.475963399779375,0.1225514236067718
11.964288,5.492305070974804,0.1223570663634984
11.966668,5.514141187730286,0.1220484671622584
11.969064,5.536117074112627,0.1217331404226316
11.971452,5.564099262734221,0.1213167176970129
11.973836,5.590219120236257,0.1209271563906424
11.976232,5.613545481058958,0.1205750357521061
11.97862,5.632867640388825,0.1202985176427223
11.981004,5.655123066024888,0.1199767650695799
11.9834,5.686457829833256,0.1195095190652884
11.985788,5.72058609032096,0.1190161137271569
11.988172,5.75536597711472,0.1185274485913877
11.990568,5.786933058348566,0.1180977265798399
11.99296,5.820502240328829,0.1176383515641446
11.99534,5.84927582488334,0.1172432118266702
11.99774,5.875255912758516,0.1168857326933747
12.000128,5.894158763207805,0.1166448736706927
12.002508,5.911618591418116,0.1163999331760737
12.004904,5.931639598882283,0.1160893223064461
12.007292,5.951148749667254,0.1157667989364543
12.009672,5.964511828586114,0.1155453445364598
12.012072,5.978945842691612,0.1153050973211755
12.014456,5.991237986423834,0.115108294652308
12.01684,6.002459194969416,0.1149314299402354
12.019236,6.011026676462524,0.1147797443885639
12.021624,6.018523222768995,0.114646547588409
12.024008,6.028161639448741,0.1144756311785376
12.026404,6.03579795538207,0.1143353891087505
12.028792,6.043434271315401,0.1141958478491828
12.033572,6.037522412732637,0.1141854969756885
12.03596,6.03226218045593,0.1141816187161469
12.03834,6.032356624112417,0.1140863097640578
12.040752,6.0299371103432895,0.1140046306736797
12.04314,6.02751759657416,0.1139224649396045
12.045520000000002,6.026308787618531,0.1138136641905006
12.04792,6.028452553849677,0.1136410615194197
12.050308,6.035531687133436,0.1134031720247412
12.052692,6.041400115603695,0.1131927087201942
12.055088,6.047268544073956,0.1129835860709794
12.057472,6.062356080343381,0.112640089938957
12.059852,6.079305947732363,0.112281060763995
12.062248,6.092111844001652,0.1119841685646181
12.064635999999998,6.105057509897801,0.1116794498700226
12.067016,6.11679247098045,0.1114002204066614
12.06942,6.132811172809655,0.1110526652358915
12.071808,6.148690105011998,0.1107154903567222
12.074188,6.163498102027705,0.110395231516974
12.076592,6.176723307177574,0.1100781915653606
12.07898,6.191950613073859,0.1097332423774295
12.081359999999998,6.211693977142176,0.1093512305055275
12.083756,6.232368506770271,0.1089621937018651
12.086144,6.248107669345756,0.1086371438136804
12.088524,6.264498458227298,0.1083186698486184
12.09092,6.28596438378831,0.1079299933605854
12.093304000000002,6.3044970430431295,0.1075769685644446
12.095684,6.3182341048721975,0.107276436492312
12.098088,6.325033698902235,0.1070649282002374
12.100472000000002,6.332764458492051,0.1068450615137361
12.102852,6.338632886962309,0.1066437628251956
12.105256,6.333839185394427,0.1065648616061185
12.107644,6.323738029721595,0.1065229973153503
12.110024,6.317408758116119,0.1063992408834364
12.112424,6.31322135688392,0.1062423788080597
12.114812,6.31131559565186,0.1060446473271922
12.117192,6.3055454025538245,0.1058895152367716
12.119596,6.295771007962955,0.1057840861416346
12.12198,6.286136382998949,0.105670676153895
12.12436,6.27622221878122,0.105572718296729
12.126768,6.26630805456349,0.1054745546579906
12.129152,6.251877832173731,0.10541109221162
12.131531999999998,6.236376674597332,0.105363336464221
12.133928,6.222737848140492,0.1052984445441011
12.136316,6.2095183305642285,0.1052096431271289
12.138696,6.198720222614965,0.1050721669160053
12.141092,6.191786546531675,0.1048939580165337
12.143479999999998,6.194583834926748,0.104612180834391
12.14586,6.2045981303745705,0.104237227920952
12.148264,6.2118189291430586,0.1038860075866147
12.150652,6.223695555710438,0.103497831269772
12.153032,6.241810801942545,0.1030669874217167
12.155428,6.262300235973407,0.1026334325035819
12.157816,6.280088721123549,0.1022630018443827
12.160196,6.2957353359004165,0.1019261632540972
12.162591999999998,6.307237979557589,0.1016429509713401
12.164980000000002,6.318600853587901,0.1013668495274316
12.167372,6.335318403551407,0.1010134514127691
12.169776,6.354177823888189,0.1006303304508994
12.172164,6.376250049784886,0.1002028875581658
12.174544,6.400603915681722,0.0997410180113997
12.176948,6.427611508631031,0.0992639878207576
12.179336,6.457692137513397,0.0987540234193179
12.181716,6.490706032701958,0.0982188726927193
12.184119999999998,6.524371554196575,0.0976943895037618
12.186504,6.5545447308775575,0.097237413559903
12.188884,6.580573936438846,0.0968315753959219
12.19128,6.599525904574245,0.09650953205929
12.193668,6.611121096030034,0.0962810213650452
12.196048,6.627651654538436,0.0960050758330088
12.198452,6.63645334931489,0.0957984482345674
12.20084,6.643951791479229,0.0955775834404651
12.20322,6.6535921040168455,0.0953300856107269
12.20562,6.663651725435042,0.0950603224940046
12.208004,6.674642512413017,0.094784708741223
12.210384,6.691220292749662,0.0944690889245654
12.212788000000002,6.709660404205864,0.0941406534808383
12.215172,6.726750041221708,0.0938433390681161
12.217552,6.742628973424052,0.0935682227733107
12.219956000000002,6.757436970439757,0.0933092207007119
12.222344,6.769823557828465,0.0930926024484831
12.224724,6.779276878910977,0.0929015885888467
12.22712,6.786728099247072,0.0927319063959022
12.229508,6.792456758090472,0.0925691361697528
12.231888,6.799256352120509,0.0923946498777296
12.234284,6.804985010963907,0.0922333223129359
12.236668,6.814997410553861,0.0920212281554079
12.239052,6.824218414210896,0.0918072348050274
12.241448,6.838235015293684,0.0915559851114483
12.243836,6.851180681189833,0.0913206401772859
12.246216,6.87092404525815,0.0910306701818225
12.24862,6.891319035632525,0.0907500759300018
12.251008,6.909711925260483,0.0904895758829701
12.253384,6.929687606754277,0.0902316504032976
12.255792,6.948871892315156,0.089973891586914
12.258176,6.964611054890639,0.0897266082587224
12.26056,6.983283483772318,0.0894590135250408
12.262956,6.998882876720941,0.0892208140305487
12.265344,7.014342500042704,0.0889894767333846
12.267724,7.027660252991192,0.0887828140718629
12.270128,7.041117775566537,0.0885696623127791
12.272512,7.059510665194495,0.0883167390528278
12.274896,7.075901454076038,0.0880819551864543
12.277292,7.087868732584163,0.0879014652046258
12.279676,7.09382970885304,0.0877730963447344
12.28206,7.099930454748778,0.0876381476362375
12.284464000000002,7.105891431017654,0.0875111311529958
12.286848,7.114506134339006,0.0873746223520178
12.289228,7.123679916167798,0.0872132467451731
12.291632000000002,7.129780662063534,0.0870810860942847
12.294020000000002,7.131737436839577,0.0869896693001284
12.2964,7.134765146802258,0.0868871770711478
12.298799999999998,7.136582151951441,0.0868026379892858
12.301188000000002,7.140820566727622,0.0866828748761001
12.303568,7.144779442250082,0.0865761358054525
12.305964,7.149529713705459,0.0864708731037005
12.308352,7.148692991802168,0.0863956909963623
12.310732,7.156144212138264,0.086244009658569
12.313128,7.162804036541441,0.0860906285883796
12.315516,7.171745500944756,0.0859087647075613
12.317896,7.178964403855375,0.0857298792800508
12.3203,7.183250040459797,0.08557269235754
12.322688,7.18832707299714,0.0854169603144276
12.325068,7.196756680721257,0.0852206336326489
12.327464,7.212263525871263,0.084965181110604
12.329852,7.227910140648129,0.084703901816283
12.332232,7.2406234891188,0.0844641509920722
12.334628,7.253756146470052,0.0842066214218985
12.337016,7.262465293447891,0.0839998040103743
12.3394,7.272245375612366,0.0837818041173611
12.341796,7.284586637030701,0.0835232886860294
12.344184,7.2941344017697,0.0832795014879999
12.346564,7.307174511322335,0.082991394623762
12.348964,7.31406854900886,0.0827560524806831
12.351348,7.321381895575964,0.0825021777805446
12.353744,7.3297661773297085,0.0822383184413919
12.356140000000002,7.33894185501637,0.0819755181547005
12.358528000000002,7.340109129717364,0.0817746113699288
12.360908,7.344489209978273,0.0815427523220834
12.363304,7.349660686172099,0.0813142310376184
12.365692,7.357625659045263,0.0810732128216556
12.368072,7.366801336731924,0.0808165413039889
12.370472,7.376396323299167,0.0805417873675306
12.37286,7.386131079493269,0.0802615510373755
12.37524,7.394003504567815,0.079991673591903
12.37764,7.40187592964236,0.0797222564103725
12.380024,7.409608585090045,0.0794582933156966
12.382408,7.415199370164455,0.079214791760174
12.384804,7.42321156486586,0.0789385615504708
12.387192,7.431643068447846,0.0786446508993721
12.389572,7.437932701656557,0.0783712944623237
12.391972,7.443151399678627,0.0781070430728271
12.394356,7.443294961021225,0.0778801393888624
12.39674,7.447442723856657,0.0776253608497624
12.399136,7.452661421878728,0.0773616900305684
12.401524,7.457088723967881,0.0770964595201637
12.403904,7.462447191616812,0.0768273734251866
12.406304,7.466734724079104,0.0765663615587154
12.408692,7.468880386168119,0.076325978371995
12.411076,7.467161616391161,0.076106299154124
12.413468,7.463440745867786,0.075899930032719
12.415852,7.457717774597995,0.0757067351109375
12.418232,7.452646429634261,0.0755222673417522
12.420628,7.4462246102301695,0.0753591443570696
12.423011999999998,7.436729754893022,0.0752182002446484
12.425392,7.428305834742512,0.0750677171184622
12.427804,7.421372158659222,0.0748895076357858
12.430192,7.41564918738943,0.0746956400852398
12.432568000000002,7.410857381679417,0.0744986246950541
12.434983999999998,7.404575331902185,0.0743285960069643
12.437368,7.399224447684731,0.0741550496340906
12.439748,7.400811031266306,0.073941817147087
12.442151999999998,7.408403917087131,0.0736920700437052
12.444536,7.416276342161677,0.0734318253829141
12.446916,7.422798292795863,0.0731932087732045
12.449319999999998,7.432113740109385,0.0729471674029661
12.451704,7.442779661863264,0.072681602110052
12.454084,7.461593756229673,0.0723652080980238
12.456487999999998,7.478545519476525,0.0720544689184842
12.458872,7.498290779402711,0.0717350346569699
12.461252,7.521109075261953,0.0713967618257956
12.463644,7.545929471867612,0.0710482544525577
12.466032,7.569027306980575,0.0707002828365575
12.468407999999998,7.595477717280312,0.0703224080705273
12.470824,7.623790458699608,0.0699384496441976
12.473208,7.651172034559124,0.0695594740346717
12.475588,7.679484775978418,0.0691806230948357
12.477984,7.709659848517271,0.0687994055780855
12.480368,7.739834921056121,0.0684210667930266
12.482748,7.773362568781749,0.068014243099385
12.48514,7.809823482813571,0.0675978081842657
12.487528,7.838415763486585,0.0672203145146144
12.489908000000002,7.866216648226683,0.0668446594601987
12.492323999999998,7.89373799371306,0.0664827147067456
12.494708,7.920467943266518,0.0661177195228177
12.497103999999998,7.945475331327279,0.065755302830912
12.4995,7.968201079387906,0.0654147680501926
12.501884,7.985060294836139,0.0651008836251632
12.504264,8.007786042896765,0.0647660869063966
12.506668,8.029999934278193,0.0644185357313433
12.509052,8.05221382565962,0.0640740584639814
12.511432,8.071354681107993,0.0637462998687185
12.513836,8.090495536556363,0.0634184324219642
12.516224,8.109496622377875,0.0630988627161727
12.518604000000002,8.129848182639746,0.0627629063634161
12.521004,8.148989038088118,0.0624396444568248
12.523392,8.167850354282772,0.0621288673919875
12.525772000000002,8.18778260566406,0.0618144073930519
12.528168,8.205572986672074,0.061514337795651
12.530551999999998,8.222012893239727,0.0612333905300095
12.532932,8.236590468687822,0.0609577311654403
12.535336,8.254241080068976,0.0606667884646371
12.537719999999998,8.268399346636492,0.0604072070203298
12.5401,8.278553411711176,0.0601633719914372
12.542492,8.291500973465194,0.0599160128554815
12.54488,8.301235729659297,0.0596886061456645
12.54726,8.312832816972954,0.0594586547440505
12.549672,8.325081530592671,0.0592378340843218
12.55206,8.332255107532918,0.0590403252592936
12.554436,8.34115124596586,0.0588464049319084
12.556831999999998,8.3488366795853,0.0586649121327972
12.559220000000002,8.359315609884078,0.0584796972883969
12.561611999999998,8.368071978690159,0.05829137428646
12.564008,8.374826246749823,0.0581113337008398
12.566396,8.380230040369128,0.0579481833392761
12.568776000000002,8.389777805108126,0.0577661753356663
12.57118,8.399465339473986,0.0575800082202674
12.573564,8.403937967533514,0.0574196669041458
12.575944000000002,8.412414797085873,0.0572458604732649
12.578335999999998,8.420379769959036,0.0570586941361105
12.580723999999998,8.425131937272283,0.0568893921964941
12.58312,8.431466896451365,0.0567287372014308
12.585516,8.437941625257311,0.0565628065040208
12.587904,8.450422656302504,0.0563766189190689
12.590284,8.460110190668363,0.0561937690318596
12.592676,8.470728890593998,0.0560095624723387
12.595064,8.481766899400217,0.0558113952144373
12.597444,8.491873742646657,0.0556140487350344
12.599848,8.504774082572434,0.0554145830191066
12.602236,8.51660348731157,0.0552220745241916
12.604615999999998,8.528852200931288,0.0550158049007694
12.60702,8.542451388991362,0.0547953805053552
12.609404,8.563220362275944,0.0545798206124624
12.611783999999998,8.583849565933667,0.0543695735383146
12.614188,8.606480870337805,0.0541540360211004
12.616576,8.622546793995252,0.0539766451257174
12.618956,8.635399912092785,0.0538159224170718
12.62136,8.649184195750095,0.0536539768076708
12.623744,8.657101946795015,0.0535060307187047
12.626128,8.662458518586075,0.0533834838629587
12.628528,8.67195906149683,0.0532440769003752
12.630916,8.67973704291489,0.0531015786185467
12.633296,8.691519225825783,0.0529477284889012
12.635692,8.701439077617119,0.0527961875564718
12.63808,8.71429219571465,0.0526388956316808
12.64046,8.729007644931738,0.0524807867597303
12.642864,8.745445655641523,0.052327928956398
12.645252,8.761883666351308,0.0521749554288473
12.647632,8.774736784448839,0.0520193432348052
12.650035999999998,8.785308262546234,0.0518789122248093
12.652424000000002,8.791456230270214,0.051763809339283
12.654804,8.793460226874503,0.051664741349313
12.6572,8.789877230120117,0.0515684125644175
12.659584,8.787504938179232,0.0514624099442626
12.661968,8.780476818439453,0.0513579910507975
12.66436,8.775218482020618,0.051224334769339
12.666748,8.770891311161558,0.0510899151889523
12.669128,8.768845780302636,0.0509406271169167
