Time,Force,Position
14.213971999999998,2.6624636131522497,0.1574151476564696
14.216368,2.6750787262506965,0.1572764253824841
14.218756,2.686902443416225,0.1571577910863955
14.221135999999998,2.7023110531940064,0.1569129184589614
14.223532,2.718511058904706,0.1566457629911589
14.22592,2.733919668682488,0.1564015094559549
14.228303999999998,2.7471864080869923,0.1562680518092067
14.2307,2.761663852304995,0.1560472399564278
14.233088,2.777771310217078,0.155699870970898
14.235467999999996,2.7983022785025744,0.1551171633922702
14.237863999999998,2.8153881238026788,0.1546373546049685
14.240251999999998,2.8355470050358385,0.1540281604675582
14.242632,2.8569165910824963,0.1533235503026575
14.245036,2.8781464075022942,0.1526232760261297
14.247424,2.900307389481871,0.1519024436883606
14.249803999999996,2.922468371461448,0.1511980830856821
14.252204,2.941276778254248,0.1506951401085804
14.254592,2.955941213927354,0.1503818624657395
14.256971999999998,2.9716765847871,0.1500118965279832
14.259367999999998,2.9864807900870662,0.1496761514253343
14.261755999999998,3.001564534640754,0.1493113935087821
14.264139999999998,3.0085001065819137,0.1493037544250113
14.266536,3.01757754889635,0.1491999925089017
14.268923999999998,3.0289366312109243,0.1489858639442378
14.271303999999995,3.044439684645192,0.1486035738134166
14.273704,3.0627362347587943,0.1481461342816273
14.276091999999998,3.082523028939616,0.1475896959919777
14.278471999999995,3.108595664613409,0.1467922953961872
14.280867999999998,3.130384559540648,0.1461820412859874
14.283255999999998,3.1500315840946103,0.1456786591880372
14.285636,3.172472105327907,0.1450928910525804
14.288031999999998,3.1911879643220904,0.1446271656553287
14.290419999999996,3.2151187296226063,0.14397331374524
14.292815999999998,3.245475106042953,0.1430828415775073
14.295212,3.276902417649939,0.1421765989904376
14.2976,3.3075383333240063,0.1412922021358031
14.299983999999998,3.3376623923188764,0.1403881395924534
14.38362,3.4673965200577266,0.1394266777685735
14.386,3.468187915990644,0.1394184215573272
14.388399999999995,3.47070187341626,0.1393777402303594
14.393168,3.4745190834539894,0.1393490612132824
14.395564,3.477731889013905,0.1392325325584235
14.397952,3.4878821623728493,0.1389023111918332
14.400336,3.501757097970907,0.1384762146143812
14.402732,3.5116278320761314,0.1381832776268674
14.40512,3.5245716021144102,0.1377907222414019
14.407495999999998,3.53751537215269,0.1374018864618973
14.409903999999996,3.550319372564109,0.1370286224095044
14.412288,3.5608417329753905,0.1367466221006564
14.414668,3.5744371293197283,0.1363625828498575
14.417071999999996,3.591245331223982,0.1358827800646073
14.419459999999996,3.6133609872331847,0.1353079655546707
14.42184,3.63333477286911,0.1348061178518702
14.424236,3.653168788878175,0.1343311379760101
14.42662,3.681430516753488,0.1335951939047866
14.428999999999998,3.710902949442299,0.132815981302632
14.431403999999995,3.737581885451776,0.1321122102318103
14.433792,3.7616070944087783,0.1314638459937077
14.436172,3.784049511499944,0.1308207086124977
14.438575999999998,3.807702633404609,0.1301320757837705
14.440963999999996,3.834428791242329,0.1293506090904025
14.443344,3.857522834639553,0.1287197614945543
14.445739999999995,3.876892215797664,0.1281768592465755
14.448128,3.8965411362094944,0.1276178051125782
14.450508,3.918052387740882,0.1270246160449082
14.452904,3.9401227177797113,0.1263918240950648
14.455292,3.9623328174454,0.125751876843287
14.457676,3.987476183417284,0.1250521337972248
14.460075999999995,4.016903290135722,0.1242349036415763
14.462463999999995,4.048472267227437,0.1233713427719262
14.464844,4.070030740587067,0.1227514140109391
14.46724,4.0858624509611685,0.1222545594772102
14.469628,4.102904866148768,0.1217128341083484
14.472012,4.117665641336231,0.1212471929347463
14.474404,4.121717064657307,0.121081377054649
14.476792,4.127491049471081,0.1208971039998659
14.479187999999995,4.133265034284854,0.1207133089265476
14.538923999999998,4.1038474068557615,0.1204545545207286
14.541311999999998,4.108363465027793,0.1203915478335534
14.543692,4.131177969171297,0.1199252365155496
14.546091999999998,4.147614084023213,0.1195524595315019
14.548479999999998,4.167914630741102,0.1191096347701407
14.55086,4.192079609324964,0.1185991259685613
14.553255999999998,4.218246688655244,0.1180536336737401
14.555643999999996,4.248837278358937,0.1173889191244207
14.558024,4.281802055861385,0.1167109802471689
14.560419999999995,4.315186142244413,0.1160116694795508
14.562808,4.348989537508022,0.1152815840880301
14.565192,4.383165019823968,0.1145986063341417
14.567587999999995,4.417480271766776,0.1139000944724097
14.569976,4.445928991097192,0.1133226829591814
14.572371999999998,4.474098171173889,0.112770256279312
14.574768,4.5007771071833655,0.1122732977223562
14.577156,4.533462345432093,0.1116595295357249
14.579535999999996,4.558977798456313,0.111136714112196
14.581936,4.582071841853537,0.1106884842140347
14.584324,4.61140450491549,0.1101779511678641
14.5867,4.64180810316408,0.109635834622054
14.589099999999998,4.664482837680724,0.1092354909498444
14.591483999999998,4.679521256264037,0.1090244458291715
14.593864,4.7000068985791605,0.1087470554013924
14.596267999999998,4.717838813841809,0.1085002872359597
14.598655999999998,4.731806297238483,0.1083158560775503
14.601035999999995,4.74456307582166,0.1081675089893442
14.60344,4.756109149591336,0.1080544508095654
14.605828,4.770356172241731,0.1078586348237034
14.608207999999998,4.781250619705351,0.1077402403185018
14.610604,4.791213901609192,0.1076343718244187
14.612991999999998,4.801596492393614,0.1075010316672763
14.615371999999995,4.816914450230649,0.1072950951998584
14.617767999999998,4.835025904747018,0.1070578274558287
14.620155999999998,4.85169433702441,0.106812040607016
14.622536,4.871855114115439,0.1064838739209809
14.624935999999998,4.887080524153855,0.1062320222154005
14.627323999999998,4.906449905311965,0.1059062146383399
14.629704,4.927449300164154,0.1055202269108257
14.632099999999998,4.943001471284536,0.1051956618654018
14.634487999999996,4.9625578438977485,0.1048122640564819
14.636883999999998,4.981974446884102,0.10443593449451
14.63928,4.999668488377761,0.1040696024457731
14.641668,5.016571133938499,0.1037076317480329
14.644047999999998,5.036267276178575,0.1033185112302011
14.646448,5.058105288791925,0.1028903163224448
14.648832,5.076870265472221,0.1025104665836567
14.651215999999998,5.095635242152516,0.102132794068548
14.653612,5.111047643646036,0.1018288933166605
14.656,5.128601915512833,0.1014855912137943
14.658383999999998,5.148018518499186,0.1011250757262218
14.66078,5.161428819246291,0.1008534712732716
14.663168,5.171766084060338,0.1006347847346764
14.665547999999998,5.179170082568192,0.1004552005855659
14.667948,5.187645016262683,0.1002567194036148
14.670336,5.194769475516815,0.1000974193289792
14.672715999999998,5.207620697756477,0.0998734579656312
14.67512,5.222706338168034,0.0996622894729604
14.677508,5.238862913766229,0.0994364852383963
14.679887999999998,5.254088323804646,0.0992196975341577
14.682288,5.265169762723369,0.0990673872405697
14.684676,5.2813263383215645,0.0988455806342637
14.687055999999998,5.300695719479674,0.0985714561724566
14.689452,5.318202769518228,0.0983156233532607
14.691844,5.332916322877447,0.0980885254047227
14.694223999999998,5.347350336982945,0.0978810137025214
14.69662,5.367930422954556,0.0975885425196726
14.699008,5.388790048179885,0.0972809391709964
14.701391999999998,5.410580838964993,0.0969658220407511
14.703788,5.434373730496518,0.0966303378010338
14.706176,5.456164521281626,0.0963220815213077
14.70856,5.479026247253373,0.0959920903291062
14.710956,5.499606333224982,0.0957045109361665
14.713344,5.522048750316148,0.0954003373136902
14.715723999999998,5.545142793713372,0.0951071166856419
14.71812,5.568516376364316,0.0947981896404043
14.720508,5.589236231962786,0.0945102828135389
14.722887999999998,5.604648633456306,0.0942543735313646
14.725288,5.617639625322829,0.0940500637153697
14.727671999999998,5.632492948308908,0.0938306662613617
14.730055999999998,5.6494881416682645,0.0935786563775488
14.732452,5.659825406482312,0.0933907772550123
14.734839999999998,5.666158469803524,0.0932509277214447
14.737223999999998,5.673282929057657,0.09311168101845
14.73962,5.679476222752011,0.0929800642538309
14.742007999999998,5.686880221259863,0.0928251927056235
14.744391999999998,5.691630492715241,0.0926865886138626
14.746796,5.694238893797341,0.0925794833073848
14.74918,5.694193567826968,0.0924859159785028
14.751559999999998,5.6900042707369005,0.0924466366542558
14.753956,5.689167548833609,0.0923528516174644
14.756344,5.696478999542844,0.0921631224926499
14.75874,5.705280694319299,0.0919333220664938
14.761136,5.715432863536113,0.0916742547936852
14.763524,5.726144111260367,0.0913848040156384
14.765904,5.737134898238343,0.0910813486654803
14.7683,5.743981714096625,0.0908279318755728
14.770684,5.7537617962611,0.0905463449331053
14.773068,5.763821417679296,0.0902486562534033
14.775464,5.7689456720448815,0.0899991869966049
14.777852,5.776351566410602,0.089714952085794
14.780231999999998,5.789623993388715,0.0893760564215079
14.782632,5.807831787419438,0.0889897909456355
14.78502,5.82818145182344,0.0885769968173929
14.787404,5.848531116227441,0.0881631883833575
14.7898,5.86487657913861,0.087791852376854
14.792188,5.876007135743445,0.0874831188096857
14.794567999999998,5.887557001228861,0.0871497991000998
14.796972,5.901760593766752,0.0868046800135782
14.79936,5.914381394438806,0.0864536291271291
14.80174,5.919645418431252,0.086196616258285
14.80414,5.913548464251253,0.0860759182601622
14.806528,5.907311740444394,0.0859630988709582
14.808908,5.900795477383815,0.0858664408909298
14.811304,5.892788970256016,0.0858075820843774
14.813696,5.882640592754941,0.085776496433016
14.816076,5.878498517493116,0.0856847133780976
14.818479999999996,5.870352240738457,0.0856331160250172
14.820864,5.862345733610659,0.0855732881009565
14.823248,5.8624873990953885,0.0854251035958361
14.825644,5.858624863087284,0.0853171024789001
14.828028,5.852620456705904,0.0852367397669946
14.830407999999998,5.842611848831689,0.0851948965265193
14.832808,5.831672075397695,0.0851581172234572
14.835192,5.822594633083258,0.0851098544684289
14.837588,5.815379521888378,0.0850503255604259
14.839983999999998,5.812028842559472,0.0849600777209393
14.842371999999996,5.809981415842681,0.0848895076922182
14.844752,5.806211427633194,0.0848225253356462
14.847151999999998,5.8072370368494575,0.0847192642937911
14.849536,5.812546386812277,0.084561000408846
14.85192,5.825352283081566,0.0843062535063345
14.854315999999995,5.838158179350854,0.0840519741361335
14.856703999999995,5.846308247821251,0.0838264179578963
14.859084,5.854598085918509,0.0835931544033664
14.86148,5.865029794389043,0.083333473693649
14.863868,5.870526135806966,0.0831185715489352
14.866252,5.884030880210554,0.0828293701209577
14.868644,5.896464689427505,0.0825536612084474
14.871032,5.903683592338124,0.0823385876113881
14.873411999999998,5.91127458230108,0.0821486853450309
14.875808,5.916211845211562,0.0819673147396189
14.8782,5.925432848868597,0.0817348967276644
14.880595999999995,5.931580816592577,0.0815337565527043
14.882991999999998,5.940010424316693,0.0813014222134092
14.885379999999998,5.952072146481306,0.0810106422041577
14.88776,5.965624112713139,0.080686036747449
14.890159999999998,5.980945862265911,0.080314253879971
14.892547999999998,5.9985492518188215,0.079911651633941
14.894928,6.012148439878898,0.0795439535595343
14.897327999999998,6.02760995905853,0.0791691234779682
14.899711999999996,6.040929607864886,0.0788214069181275
14.902096,6.055320191857879,0.0784630766303959
14.904491999999998,6.074366603649765,0.0780816985902992
14.906879999999996,6.092621619508733,0.0776977191824263
14.90926,6.107384290554064,0.0773640073758677
14.911655999999995,6.122286731226255,0.077020608409351
14.914044,6.130111934472557,0.0767412067089007
14.916428,6.137797368092,0.076468402585875
14.918823999999995,6.146553736898082,0.0761833528961258
14.921211999999995,6.154658479398104,0.0758871186371106
14.923592,6.1649976400700215,0.0756064942006839
14.925995999999998,6.172123995182023,0.0753639037617946
14.928379999999995,6.18232338622708,0.0750930362932153
14.930764,6.188239036525582,0.0748708110735248
14.933159999999996,6.188380702010312,0.0747296322383002
14.935544,6.189965389734017,0.0746029302178692
14.937928,6.18591586227081,0.0745478722459847
14.940324,6.179305155553745,0.074537271731373
14.942712,6.177769585516152,0.0744843203959448
14.945107999999998,6.17516308029192,0.0744427586431176
14.947499999999998,6.173068431746886,0.0744187877183082
14.949887999999998,6.170834013574992,0.0744019544654453
14.954667999999998,6.164083537231065,0.0743973207035705
14.957055999999998,6.168646817231339,0.0743395768830527
14.959436,6.181078730590422,0.0742317751845868
14.961831999999998,6.197235306188617,0.074109069350315
14.964219999999996,6.219118644772344,0.0739586190306962
14.9666,6.242864314475626,0.0738021224187256
14.968999999999998,6.269822789738823,0.0736152498228645
14.971387999999996,6.296409177949682,0.0734046854182363
14.973768,6.319782760600626,0.0732242031746636
14.976163999999995,6.343016573624711,0.0730523161257405
14.978551999999995,6.368112717768351,0.072873272200341
14.980947999999998,6.398283998591464,0.0726556109839408
14.983344,6.423659681988825,0.0724635473416529
14.985732,6.4531793365058805,0.0722351243898249
14.988115999999998,6.484561322142492,0.0719987070895902
14.990512,6.511659567032549,0.0718060955017977
14.9929,6.537035250429912,0.0716146609103957
14.995279999999998,6.559757206774797,0.0714262533063453
14.997675999999998,6.581547997559905,0.0712423382550522
15.000063999999998,6.60534088909143,0.0710461949577773
15.002447999999998,6.629553089503535,0.0708306323516638
15.004844,6.644825721370195,0.0706740742669043
15.007231999999998,6.653952281370744,0.0705668497558592
15.009611999999995,6.660425114318818,0.0704630304820244
15.012007999999998,6.665734464281637,0.0703343525382395
15.014395999999998,6.669321252751759,0.0702058867340324
15.016779999999995,6.674910141968299,0.0700665679667944
15.019175999999998,6.682501131931255,0.0699158045004067
15.021567999999998,6.697588668200681,0.0697001873369255
15.023947999999995,6.710022477417632,0.069486856708898
15.026343999999998,6.721944429955385,0.069257797758017
15.028731999999998,6.730421259507745,0.0690282878868956
15.031115999999995,6.743042060179799,0.0687689644281506
15.033511999999998,6.75794450085199,0.0684876633328003
15.035899999999998,6.775687660031761,0.0681596223750028
15.03828,6.7959919984653885,0.0677955269407995
15.040675999999998,6.817227502458794,0.067429356214741
15.043063999999998,6.842886516825615,0.0670229454395778
15.045444,6.867102508953457,0.0666028553787612
15.047843999999998,6.8866626732824106,0.0661955786047233
15.050231999999998,6.904500276118666,0.0657881053535457
15.052628,6.9269011589551965,0.0653316507035773
15.055024,6.950000889926028,0.064845121681056
15.057416,6.975661800150719,0.0643246836405754
15.0598,6.994105703322658,0.0638529194581371
15.062196,7.015902181681374,0.063353960210166
15.064584,7.028898861121504,0.0628933150653667
15.066964,7.038962274255439,0.0624466843694467
15.069364,7.045021485896539,0.0620240275178161
15.071748,7.057086999776891,0.0615739292001227
15.074132,7.067010643283967,0.0611392951461955
15.076528,7.077865452350821,0.0607032988167054
15.078916,7.085926764738339,0.0602742267887212
15.081295999999998,7.091054810819662,0.059859043862796
15.083692,7.089897015408015,0.0594845076255707
15.08608,7.089810155183007,0.0591045175413311
15.088463999999998,7.0915856260775545,0.0587228730025962
15.09086,7.091219226598823,0.0583575957413696
15.093248,7.092156079732209,0.0580126234477843
15.095627999999998,7.096957364731568,0.0576558071518317
15.098028,7.101479110477207,0.0573103695472814
15.100416,7.107443878461822,0.0569818045046176
15.102795999999998,7.110847467192579,0.0566849651312431
15.105192,7.11047917185598,0.0564331061956922
15.10758,7.112624833944995,0.0561879010264903
15.109959999999996,7.109136280847098,0.0559906546301542
15.11236,7.112305656294509,0.0557787440212443
15.114748,7.115614801368781,0.0555606532525088
15.117127999999996,7.1197153423759705,0.0553480776773928
15.119528,7.117250502636468,0.0551838838299981
15.121916,7.116787763643383,0.0550113530762572
15.124295999999998,7.114974550209939,0.0548574427230668
15.126691999999998,7.116606459761888,0.0547119570013858
15.129084,7.118750225993034,0.0545835022695347
15.131463999999998,7.126760524836571,0.0544380637595004
15.13386,7.131138709239612,0.0543309415471018
15.136247999999998,7.133654562523096,0.0542259971548918
15.138644,7.136542502858917,0.0541437327488332
15.14104,7.1445055798742105,0.0540409058012562
15.143431999999995,7.153120283195562,0.053949570519165
15.145812,7.165599418382887,0.0538501381477758
15.148211999999996,7.179149488756849,0.0537456250212716
15.150599999999995,7.19470165987723,0.0536339127084488
15.15298,7.213187097303805,0.0535141524240109
15.155379999999996,7.233023009170739,0.0533765962511988
15.157764,7.253138460291393,0.0532267902795798
15.160148,7.270320645105853,0.0530854662360929
15.162547999999996,7.289085621786149,0.0529549466039816
15.164935999999996,7.304637792906529,0.0528434398848866
15.167316,7.319678107347713,0.0527143783377941
15.169711999999995,7.335509817721813,0.0525910527805366
15.172103999999996,7.352552232909413,0.052455762393467
15.174484,7.363076489178563,0.0523247303674215
15.176883999999998,7.370295392089182,0.0521786809258289
15.179271999999996,7.375512194253384,0.0520405854016925
15.181652,7.381939701231083,0.0518903473853399
15.184051999999998,7.389298373768562,0.0517401305210904
15.186439999999996,7.396936585559762,0.0515789317266862
15.188824,7.399127573619151,0.0514161637855333
15.191219999999998,7.39666273387965,0.0512553745229874
15.193607999999998,7.390613001527894,0.0510909395197387
15.195992,7.379488132496667,0.0509452506504099
15.198387999999998,7.3666407019727425,0.050794079688874
15.200779999999998,7.350348148463427,0.0506324150164228
15.20316,7.334055594954109,0.0504703741747809
15.205559999999998,7.3196253725643485,0.0503071953997741
15.207947999999998,7.305474689428309,0.0501320254823115
15.210331999999998,7.288390739986074,0.0499629198041814
15.212727999999998,7.270794933864641,0.0497758719358618
15.21512,7.257063559609183,0.0495815118625918
15.217499999999998,7.23960752311461,0.0493873184326313
15.2199,7.22014938587362,0.0491983859600076
