Time,Force,Position
14.046443999999996,2.5455548344256496,0.1638329758290464
14.048831999999996,2.5559355293522024,0.1636681353234619
14.051216,2.566875302786196,0.1634226797059686
14.053611999999998,2.5748818099139936,0.1633277287696812
14.065559999999998,2.5992261965214825,0.1632015355468405
14.067956,2.606441307716363,0.1631191551038722
14.070344,2.61388873633672,0.1631055253292681
14.072723999999996,2.6239898920095523,0.1629961548214767
14.075124,2.634091047682384,0.162881475714962
14.077512,2.6435405770491585,0.1627748677941753
14.079891999999996,2.656063142348988,0.1625136155081634
14.0823,2.6722178220893142,0.1619974136022938
14.084684,2.687860645150442,0.161459600739746
14.087063999999998,2.702991611532372,0.1609165162619679
14.089468,2.718541886794884,0.1603179515313083
14.091856,2.7353028668708936,0.1596227533613352
14.094236,2.7463370839613725,0.1591738466846561
14.096632,2.7509929117602647,0.1589818250617056
14.09902,2.754298265118798,0.1588927056937052
14.101404,2.7603971151566653,0.1586948968421402
14.1038,2.7668680522468696,0.1585465263345796
14.106188,2.773478758963935,0.1583747120596449
14.108567999999998,2.786887163853169,0.1579018406374393
14.110964,2.806721179862234,0.1570792459332965
14.113352,2.823761699191964,0.1563799995050486
14.115735999999998,2.837077556282581,0.155837517732638
14.118132,2.8492299303879425,0.1552661808770333
14.12052,2.856074850388354,0.1548712544051975
14.122899999999998,2.862547683336428,0.1544288973911346
14.125296,2.865667941097727,0.1541770925899753
14.127684,2.864504458112472,0.1541494377166545
14.130063999999996,2.867857033299248,0.153968098149327
14.132464,2.872001004418941,0.153773198685914
14.134852,2.8767966018446924,0.1535885927973566
14.137231999999996,2.881033120763004,0.1534808632060376
14.139632,2.8882029059875105,0.1532576941329831
14.14202,2.904312259757462,0.1526709956431465
14.144399999999996,2.922563483900691,0.151976258035091
14.146804,2.940302851364722,0.1512605444531596
14.149188,2.9579024492018937,0.1505864697851533
14.151571999999998,2.9780632262929223,0.1497891725785506
14.153976,2.998363773010811,0.1489664629564349
14.156364,3.0158708230493647,0.1482500414470371
14.158744,3.0312360027146417,0.1476443032878415
14.16114,3.0466011823799186,0.147036297630015
14.163528,3.063549153911032,0.1464051587432581
14.165907999999998,3.082219686934841,0.1457373377699127
14.168304,3.103404177384265,0.1450050048944403
14.170696,3.126962855632444,0.1442398718037771
14.173075999999998,3.152383865000179,0.143408245613729
14.175476,3.1839509462340243,0.142337399909359
14.213704,3.2497255647491063,0.1419132767720816
14.216084,3.2577320718769043,0.1418941442568313
14.218484,3.2641557871388662,0.1418931861318912
14.223256,3.2771902091178937,0.1417964920719711
14.225652,3.2860353340068533,0.1416900069293818
14.22804,3.3015383874411213,0.1414084050502166
14.23042,3.327843340540392,0.140801590370698
14.232816,3.35479991994572,0.1402119876135091
14.235204,3.3845499960303838,0.1395630342098116
14.237588,3.416953799167521,0.1388619443147506
14.239984,3.452151098983993,0.1380883197563611
14.242372,3.4913526002932995,0.1371924152004041
14.244756,3.5388420438419934,0.1360282390514471
14.247152,3.5839572995919333,0.1348641105896591
14.24954,3.6329369872078474,0.1336167932860016
14.251924,3.6780522429577873,0.1324885519401943
14.25432,3.724006116468889,0.1312942151521566
14.256708,3.766375097367737,0.1302001385154566
14.259092,3.8036689415871128,0.1292846807642665
14.261488,3.841102555433349,0.128374304542417
14.263876,3.873600802226973,0.1276072734669086
14.266255999999998,3.907961380140154,0.1268069456768098
14.268656,3.939760778799478,0.1261310187655744
14.271044,3.973282738951497,0.1254277689969011
14.273424,4.003871432797321,0.1247993482496392
14.275824,4.030595694777173,0.1242798287905498
14.278212,4.054526460077688,0.1238345573498153
14.280592,4.075012102392811,0.1234361242476283
14.282992,4.092704248028599,0.1230970417919498
14.28538,4.109744767358329,0.1227547120326996
14.28776,4.127623904449221,0.122343874732241
14.29016,4.144060019301136,0.1219368085219647
14.292548,4.152487731167384,0.121717152150377
14.294928,4.163708939712968,0.12144433674785
14.297328,4.16906361564616,0.1212988042550554
14.299716,4.173347356392714,0.1211805507578183
14.3021,4.175349457139131,0.1211345735693878
14.304496,4.177211788258687,0.1211011101906208
14.306884,4.1813557593783806,0.1209978241957026
14.309268,4.18228692493816,0.1209813174598685
14.311667999999996,4.183357860124799,0.1209522156671065
14.314055999999995,4.182706233818742,0.1209440488685658
14.318835999999996,4.177073914489697,0.1209161325813316
14.321223999999996,4.176609279638743,0.1208259626683405
14.323608,4.1742823136682325,0.1207686565900836
14.326003999999998,4.169953246951304,0.1207561121445291
14.337944,4.161854192024888,0.1206788018523898
14.340335999999995,4.163344436092107,0.1206152034345337
14.342724,4.167907716092381,0.1204824828525115
14.345104,4.174473096839073,0.1203056682026264
14.347507999999998,4.186672692772676,0.1199698991648121
14.349895999999998,4.196078792026946,0.1196773722066786
14.352276,4.20362256016166,0.1194142993542305
14.354679999999998,4.2060911916169,0.1192656449242942
14.357063999999998,4.21005006713936,0.1190522915731719
14.359444,4.215871273781375,0.1188073107572678
14.409616,4.1134601249265845,0.1187947972921978
14.412011999999995,4.111505246008411,0.1187684735708101
14.4144,4.110341763023155,0.1187391185210071
14.41678,4.113973877463651,0.1186249595112355
14.419176,4.124263920449456,0.1183954410311485
14.421564,4.132784180114321,0.1182488287802293
14.423944,4.142654914219546,0.1180518585319653
14.42634,4.156250310563882,0.1177979709898217
14.428728,4.178226196946224,0.1174089739748331
14.431107999999998,4.206348155194678,0.1168887092661994
14.433504,4.237263610122465,0.1163261734501263
14.435892,4.26431463318428,0.1158336524537223
14.438275999999998,4.296720332179287,0.1152043557504531
14.440672,4.327915326360794,0.114622880250162
14.443056,4.364604766102357,0.1138999046960132
14.445439999999998,4.391423471738693,0.1133743938716096
14.447836,4.41209610550892,0.1129847954685446
14.450224,4.435702005585342,0.1125467622640787
14.452603999999996,4.461310006408181,0.1120699406249344
14.455004,4.478630064991632,0.1117738429735364
14.457392,4.498883389881277,0.1114264069265145
14.459771999999996,4.517134614024506,0.1111211617523936
14.462167999999998,4.534594442234817,0.1108223620994881
14.464555999999998,4.549912400071851,0.1105769818943737
14.466936,4.564578731602827,0.1103282461473741
14.469335999999998,4.583948112760937,0.1099501319634446
14.471719999999998,4.6047605161580245,0.1095834938854592
14.4741,4.621708487689137,0.1092817907210545
14.476495999999996,4.634280170675079,0.109025113251104
14.478883999999995,4.646432544780439,0.1088078399524117
14.481268,4.6572816662736845,0.1085751230221776
14.483663999999996,4.673066154819543,0.1082634729728625
14.486051999999995,4.689781808925178,0.1079470774105801
14.488432,4.704914671164977,0.1076338127740473
14.490828,4.718557289337558,0.1073779265994211
14.493216,4.737275044189611,0.107032067055697
14.4956,4.75934537422844,0.1066099108545737
14.497996,4.778761977214794,0.1062168546811166
14.50038,4.797759271320567,0.1058561082730502
14.502764,4.825975673225506,0.1053359312085905
14.505176,4.851398578451111,0.1048519619431485
14.507564,4.877612879609633,0.1043679151140833
14.509943999999996,4.905969051141433,0.1038511011580931
14.512359999999996,4.934744531553812,0.1033083984048198
14.514744,4.962169537525833,0.102811433529047
14.517124,4.987312903497718,0.1023696180275277
14.519524,5.013527204656241,0.1019152535533758
14.521908,5.04160383693432,0.101440593505234
14.524292,5.073916988130709,0.1009496073386046
14.526688,5.101574311528209,0.1005128291112742
14.529076,5.130115578657241,0.1001263165751334
14.531456,5.154652644293442,0.0998000994886757
14.533872,5.174905969183087,0.0995521222396169
14.53626,5.197533481871488,0.0993049096461635
14.538639999999996,5.219509368253831,0.099051069826403
14.54104,5.245489456129005,0.0987489591205967
14.543423999999998,5.271190004750461,0.0984682029764697
14.545804,5.295540078931557,0.0982236313715193
14.548203999999998,5.323522267553149,0.0979030979148907
14.550587999999998,5.345358384308631,0.0976761723061471
14.615108,5.454480371110583,0.0975121042389531
14.617487999999998,5.441166409877836,0.0974938516591895
14.619892,5.430134088645225,0.0974334121844046
14.62228,5.423245738532309,0.097314799595847
14.624664,5.4187787980463895,0.097145348511218
14.62706,5.414451627187332,0.0969672074657891
14.629448,5.415199593007746,0.096725124159953
14.631828,5.412502435842766,0.0964964187899013
14.634224,5.407803177931369,0.0962902550739019
14.636612,5.410740235953302,0.0959570421967156
14.638996,5.407159135056787,0.0956799013829356
14.641392,5.397851271174743,0.0954599978298715
14.64378,5.39403785285275,0.095146904897341
14.646159999999998,5.38929326897098,0.0948404474201778
14.648556,5.391486152888239,0.0944496551456807
14.650944,5.393539267178638,0.0940666772187237
14.653327999999998,5.401738453335148,0.0935970665222777
14.655724,5.413010675424712,0.0930854250290489
14.658112,5.419207760834805,0.0926394895092152
14.660491999999998,5.4212608751252045,0.0922533289591455
14.662896,5.419170018295908,0.0919249573054791
14.665284,5.414006125533558,0.0916394408920832
14.667668,5.410704563890763,0.0913394821284813
14.670064,5.403398800755134,0.09108724663531
14.672452,5.396884433552425,0.0908363416111804
14.674832,5.39372264153649,0.0905300699006971
14.677228,5.385625482467944,0.0902777124545925
14.679616,5.382463690452011,0.0899726888346951
14.681995999999998,5.388241466981524,0.0895718954527372
14.684392,5.39094620757798,0.0892103604422716
14.68678,5.398306775973327,0.0888128573397501
14.689163999999998,5.410742481048148,0.0883579609451563
14.69156,5.424760977988804,0.0879121022039445
14.693948,5.444925546795571,0.0873978532502755
14.696344,5.462017079669283,0.0869221945606634
14.698739999999995,5.481110713289412,0.086426674561692
14.701127999999995,5.497643167655683,0.0859863094233472
14.703512,5.513616543514513,0.0855813807846566
14.705907999999996,5.53717901347843,0.0851197516262594
14.708295999999995,5.563674749748543,0.0846316933712425
14.71068,5.5948263138175465,0.0841125801005515
14.713075999999996,5.625558569005968,0.0836187889820264
14.715463999999995,5.653217788261336,0.0831631443105054
14.717848,5.684601669755817,0.0826842750676826
14.720243999999996,5.716776947183217,0.0822126692761852
14.722631999999996,5.742107304610203,0.081851386276217
14.725012,5.765807648343112,0.0815338509105938
14.727408,5.787226352075884,0.0812551996592851
14.729796,5.799425948009487,0.0810786196307679
14.732176,5.8142792709955655,0.0808940214597447
14.734572,5.8302035291682826,0.0806979046427451
14.73696,5.840633341780948,0.0805785346693659
14.739344,5.849061053647196,0.080479653561365
14.74174,5.849200823274055,0.0804717601465395
14.744128,5.853065255140028,0.0804426264946391
14.746512,5.859583414058477,0.0804062699745182
14.748908,5.868383212977063,0.0803363167286933
14.751296,5.87760232077623,0.0802436372723561
14.75368,5.881886061522783,0.0801926216808558
14.756076,5.886169802269337,0.0801421097234302
14.758468,5.889522377456113,0.0800969767376492
14.760848,5.892223326336831,0.0800414196313646
14.763251999999998,5.899719872643301,0.0799545928685851
14.765639999999998,5.90707664932291,0.0798761757200538
14.768024,5.913502260442741,0.0798032052900076
14.770419999999998,5.924211612309127,0.0796806958977017
14.772807999999998,5.9385530786160095,0.0794984752126136
14.775192,5.955315954549888,0.0792785921988102
14.777587999999998,5.9772937367901,0.0790034250628076
14.779975999999998,5.998340353470533,0.0787354102272592
14.782359999999995,6.015522538284993,0.078494413662748
14.78476,6.033124031980033,0.078228545362269
14.787147999999998,6.048723424928656,0.0779798758725242
14.789527999999995,6.072191451236088,0.077671354474282
14.791928,6.091003649744626,0.0773875145601979
14.794315999999998,6.103577228588437,0.0771225824348131
14.796699999999998,6.113869167432111,0.0768893719095769
14.799091999999998,6.124161106275784,0.0766577528176154
14.801479999999998,6.137665850679375,0.0763916049858467
14.803856,6.149028724709686,0.0761495128697277
14.806259999999998,6.157598102060665,0.0759205307861172
14.808647999999998,6.171102846464255,0.0756571828760469
14.811028,6.176878727135897,0.075443188474751
14.813423999999998,6.179349254449007,0.0752244988628164
14.815811999999998,6.180097220269421,0.0750071193979335
14.818192,6.182987056463111,0.0747686031457866
14.820595999999998,6.185876892656801,0.0745313697539468
14.822979999999998,6.188487189596772,0.0743104418917854
14.82536,6.194030752842936,0.0740732343294739
14.827755999999995,6.197851754596403,0.0738367848013049
14.830143999999995,6.20367485709629,0.0735853416251829
14.832524,6.213362391462148,0.0733124015421501
14.834927999999998,6.223189695454868,0.0730316141686117
14.837315999999998,6.228221402021836,0.0727780191855703
14.839696,6.235906835641279,0.0725202679555936
14.8421,6.246757852992394,0.072275667163656
14.844487999999998,6.265105416649978,0.0719602305482919
14.846871999999998,6.27823807400123,0.0716891165571221
14.849268,6.290160026538983,0.071437714104912
14.851655999999998,6.305015245382931,0.0711695371449086
14.854035999999995,6.322663960906215,0.0708909295137103
14.85644,6.335377309376886,0.070645672755281
14.858823999999998,6.353817420833088,0.070372398654428
14.861207999999998,6.375842424901542,0.0700939639851996
14.863604,6.399729760089554,0.0698101058070025
14.865987999999998,6.419473124157871,0.0695620329289306
14.868368,6.437866013785829,0.0693390729687111
14.870767999999998,6.45411703304051,0.0691374698075288
14.873151999999996,6.466363850802358,0.0689641279586819
14.875532,6.4801934604300415,0.068798573599933
14.877935999999998,6.494674696363784,0.0686441965963321
14.880323999999998,6.509016162670665,0.0684982399820196
14.882707999999996,6.525219960097103,0.0683467505066916
14.885103999999998,6.544357023829736,0.0681807180965491
14.887491999999998,6.561119899763616,0.0680036208994174
14.889872,6.580583724578213,0.0677831147892527
14.892267999999998,6.590688671966784,0.0676358874724031
14.894655999999998,6.610292266408241,0.0674125311751492
14.897036,6.625100263423946,0.0672083949364179
14.899431999999996,6.637254533387177,0.0670065948302831
14.901819999999995,6.650479738537046,0.0667971085910626
14.904215999999998,6.664636109246694,0.0665850205695316
14.906612,6.677069918463645,0.0663727803386815
14.908995999999998,6.686570461374401,0.066175460271811
14.911375999999995,6.695000069098517,0.0659878281183893
14.91378,6.706642482382551,0.0657740757266285
14.916168,6.719495600480084,0.0655456267353444
14.918547999999998,6.7306261570849175,0.0653150068408755
14.920944,6.7398943825701965,0.0650888237700476
14.923331999999998,6.747440046562779,0.0648611170917883
14.925711999999995,6.758338285742136,0.0646028535001094
14.928107999999998,6.767513963428797,0.0643440538869323
14.930495999999998,6.7760380148094015,0.0640756969935031
14.932879999999995,6.781768569510668,0.0638149214415663
14.935275999999998,6.792946347943748,0.0635488136171243
14.937663999999998,6.799840385630272,0.0633180058622629
14.940044,6.810086998503573,0.0630548609372651
14.942443999999998,6.814047769883902,0.0628376483706896
14.944831999999998,6.824806239436399,0.0625938135948565
14.947212,6.836356104921814,0.0623543580961559
14.949607999999998,6.846974804847452,0.0621185106795551
14.951995999999998,6.857873044026809,0.0618707910914008
14.95438,6.870773383952584,0.061614674263319
14.956775999999998,6.883673723878359,0.0613581328150416
14.959163999999998,6.894571963057717,0.0611108753621616
14.961548,6.90239716630402,0.0608823338047348
14.963943999999998,6.906357937684351,0.0606667535994115
14.966331999999998,6.915673384997872,0.060412606544427
14.968728,6.927782328990728,0.0601532875670903
14.971124,6.94296430891664,0.0598776767142996
14.973512,6.954002317722859,0.0596293921206708
14.975896,6.961967290596021,0.0593973729140436
14.978299999999996,6.968861328282545,0.0591732962469667
14.980684,6.976406992275129,0.0589598709870833
14.983064,6.97822589328218,0.0587624706183729
14.985467999999996,6.984188765408925,0.0585418397420725
14.987855999999995,6.992013968655228,0.0583196181193754
14.990236,7.000910107088169,0.058089992684804
14.992635999999996,7.006081583281997,0.0578668128489562
14.99502,7.012603533916184,0.0576250626592838
14.997404,7.018194318990592,0.0573853047995756
14.9998,7.02350556481128,0.0571578976401271
15.002188,7.023741673952495,0.0569543536031421
15.004568,7.029192689400043,0.0567224222973441
15.006971999999998,7.039998380780784,0.0564561483658198
15.009359999999996,7.050943841788385,0.0561836312317586
15.01174,7.067616065781516,0.055899267673552
15.014143999999998,7.078514304960874,0.055668521610588
15.016531999999998,7.089831853020813,0.0554214262883067
15.018912,7.100218235520973,0.055177106020157
15.021316,7.110884157274852,0.0549216345891659
15.023699999999998,7.1269047549619255,0.0546330325839009
15.026083999999996,7.147860719701612,0.0543310623096113
15.028479999999998,7.169096223695017,0.0540179443452686
15.030867999999998,7.195546633994756,0.0536797330096024
15.033248,7.215711202801523,0.0533756185154702
15.035643999999998,7.232942505302095,0.053080819139868
15.038031999999998,7.248031937429391,0.0527984809186661
15.040416,7.262981599929825,0.0525216822825632
15.042811999999998,7.275509852803261,0.0522698515048826
15.045199999999998,7.28696717049006,0.0520244853986193
15.04758,7.298564257803718,0.0517737825171275
15.049975999999996,7.313234381050434,0.0515091325435423
15.052363999999995,7.318405857244262,0.0512955575360163
15.054748,7.316080787131619,0.0511259657212356
15.057143999999996,7.315618048138534,0.0509554663302444
15.059531999999995,7.312361812466115,0.050787088827087
15.061912,7.309664655301134,0.0505947968287742
15.064308,7.304546088509157,0.0504264242179003
15.066696,7.296214716157266,0.0502762701970226
15.06908,7.287603804551653,0.0501374573002129
15.071476,7.277502648878821,0.0500220808816463
15.073864,7.260044716526379,0.0499430615086403
15.076248,7.238582582681103,0.0498760391860224
15.078643999999995,7.209763672156218,0.0498445254118059
15.081028,7.182295236071693,0.0497950777571643
15.083412,7.155478426293226,0.0497564406437649
15.085808,7.131734652447814,0.0497051098215622
15.088196,7.107990878602401,0.0496532948064366
15.090576,7.086249205503406,0.0495951017993233
