Time,Force,Position
13.621591999999998,1.8275527619352585,0.1911305671449271
13.623972,1.8428669280565533,0.1908984074811998
13.626367999999998,1.8619057564169617,0.1904154250687236
13.628755999999996,1.8837380814567055,0.1898064827125773
13.631136,1.9058499457501696,0.1891759019428912
13.633535999999998,1.933316485976826,0.1880824744146081
13.63592,1.968139802883092,0.1863202721820092
13.638304,1.9981675223636064,0.1849294900324065
13.640699999999995,2.0274038459112025,0.1835596108027325
13.643088,2.059433666138134,0.1819789693957437
13.645468,2.095048378977318,0.1801705450229774
13.647871999999998,2.130383552562782,0.1784463533111208
13.650259999999998,2.165858495775105,0.1766985029512303
13.65264,2.2039871660399046,0.1748939936891597
13.655043999999998,2.250915635223289,0.1725459413879604
13.657431999999998,2.298775269966452,0.1702061875282836
13.659812,2.343329551351081,0.1680640909514346
13.662207999999998,2.3828559178844824,0.1662070688922544
13.664595999999998,2.4184253047532924,0.1644746672101366
13.666976,2.446265827890156,0.1633026016950403
13.669371999999996,2.4754568254673783,0.1620649432576918
13.671759999999995,2.5029252615519044,0.1609313580992876
13.67414,2.5303011498378134,0.15974151659112
13.676539999999996,2.554883541444387,0.1587325886092854
13.678927999999996,2.5801175593570185,0.1577649125773098
13.681312,2.609727865814821,0.1567046633804741
13.683707999999998,2.6399897985786818,0.1556879215123337
13.686092,2.6691807961559046,0.1546924969886724
13.688476,2.7053092615321552,0.1534281607653891
13.690872,2.73957539578885,0.152230980596265
13.693256,2.7742608389261254,0.1510099324151957
13.69564,2.809365590943981,0.1497421444696216
13.698036,2.8458208174021955,0.1484020313365144
13.700424,2.8772481290091814,0.147216345043317
13.702819999999996,2.90122611613794,0.1463330089635331
13.705215999999998,2.9239933984532,0.1455309957894605
13.707603999999998,2.9500660341269933,0.1446721911038548
13.709984,2.978652627226401,0.1437629208008694
13.712383999999998,3.010963882564922,0.1427288485660219
13.807951999999998,3.241847440801083,0.1416668075826235
13.810335999999998,3.252879762033694,0.141613025231741
13.812732,3.2717807166251114,0.1412985027370678
13.81512,3.288819340096972,0.141047534644427
13.817499999999995,3.30157422282228,0.1409649997015335
13.819895999999998,3.313397939987808,0.140911492307261
13.822283999999998,3.32950539789989,0.1406939623727568
13.824664,3.343238668013218,0.1404974129017798
13.827059999999998,3.3540386718203514,0.1403962562452985
13.829447999999998,3.3623247182018696,0.1403381330083148
13.831843999999998,3.3750342749568025,0.140098173995728
13.83424,3.38467079577868,0.1399674498143339
13.836628,3.3928642943615817,0.1398486544608524
13.839012,3.401988958504261,0.1397035140619799
13.841408,3.4139071193262764,0.1394788236139434
13.843796,3.42689621533493,0.1392126743923794
13.846175999999998,3.444960448023056,0.1387743029133633
13.848576,3.461162349591625,0.1383969724710398
13.85096,3.475921228921218,0.1380211133331312
13.853343999999998,3.4890973163849743,0.1376669588696027
13.85574,3.50376364791595,0.1372271588772005
13.858128,3.515776252394451,0.1368495226139733
13.860511999999998,3.5201997627678656,0.1366797106284832
13.862908,3.5216900068350845,0.1365953437015364
13.865296,3.526393056462219,0.1363934973339472
13.867675999999998,3.528162839783159,0.1362776293495257
13.870072,3.5311433279175968,0.1361124551982462
13.872459999999998,3.540781744597344,0.135774137429966
13.874843999999998,3.5532136579564257,0.1353693445411392
13.87724,3.568439067994842,0.1348942520711681
13.879623999999998,3.5825935428466207,0.1344691665513255
13.882007999999995,3.601031758444954,0.1339021163702373
13.884403999999998,3.612113197363676,0.1335740133667252
13.886791999999998,3.625755815536256,0.1331351292818057
13.889175999999996,3.642611239268752,0.1325958702640326
13.891571999999998,3.661096676695328,0.1319743455952005
13.893964,3.6747865166961513,0.131473956187229
13.896343999999996,3.686194716696837,0.131056548600368
13.898744,3.6993254781902207,0.1306125622161327
13.901132,3.7141788011763,0.1301460825288221
13.903511999999996,3.731173994535657,0.1296228878242164
13.905907999999998,3.748308957521873,0.1290867051632133
13.908295999999998,3.773033014613176,0.1283845535719028
13.910676,3.801341964316733,0.1276156554468704
13.913075999999998,3.8303025403263473,0.1268644835424252
13.915463999999998,3.865269418575212,0.1259636365149522
13.917847999999998,3.8920881242115497,0.1252873323452607
13.920244,3.9131800668623566,0.1247454404709568
13.922631999999998,3.93026780802033,0.1243044365194961
13.925015999999998,3.950288815484498,0.1238048518991479
13.927416,3.9663056214558328,0.123405560531371
13.929804,3.979249391494113,0.1230930489678633
13.932183999999998,3.9963371326520862,0.1226595294931083
13.934584,4.009792759369564,0.1223636765129564
13.936972,4.021106515713764,0.1221360694723146
13.939351999999998,4.030650488737024,0.1220073813826361
13.941748,4.044990059186036,0.1217795673596776
13.944136,4.062542435194964,0.1214614808365958
13.946519999999998,4.079955041577032,0.1211584928325826
13.948916,4.094434381652904,0.1209209128600203
13.951304,4.104490211355362,0.1208176995666614
13.953687999999998,4.118550242550653,0.1206270471404851
13.956084,4.126743741133554,0.1205628826321774
13.958476,4.135077009343316,0.1204880851404383
13.963256,4.145644695724972,0.1204163074946187
13.965644,4.155188668748232,0.1203041094703886
13.968028,4.169388469570384,0.1201143474782095
13.970435999999998,4.189874111885508,0.1197740164298137
13.97282,4.208357653454214,0.1194851361685945
13.975204,4.231636792448672,0.1191097816577265
13.977603999999998,4.2537052266296325,0.1187701314338113
13.979991999999998,4.277496222303287,0.1184143145935474
13.982372,4.305291419469777,0.1179763667488345
13.984775999999998,4.330944746262988,0.1175904434822691
13.987159999999998,4.355806677123283,0.1172072089064836
13.989544,4.37866650723716,0.1168727553811076
13.991939999999998,4.396311431044705,0.1166566113296319
13.994323999999995,4.413025189292472,0.1164553574842907
13.996704,4.434674314592851,0.1161603511695998
13.9991,4.4613985765727024,0.1157611741643931
14.001488,4.481557457805862,0.1155316353805059
14.003872,4.501716339039021,0.1152986097813346
14.006271999999996,4.520804285085542,0.1150943369712757
14.008659999999995,4.538401987064844,0.114950979857134
14.011044,4.55879318572348,0.1147642290485736
14.013439999999996,4.5762511180759216,0.1146341132541782
14.015824,4.591846719308807,0.1145352956357214
14.022988,4.625270444088601,0.1145314491903788
14.025368,4.63942302308251,0.1144377072700879
14.027768,4.652923975770361,0.114337317831295
14.030152,4.663631431778876,0.1142770126446952
14.032536,4.677551693347308,0.1141468217195801
14.034936,4.690680558982822,0.1140178890144368
14.037324,4.70087615831214,0.1139374072207648
14.039704,4.716566203201512,0.1137275999135623
14.0421,4.73439811846416,0.1134724385630348
14.044488,4.746363501114419,0.1133171261329864
14.046872,4.754604221525564,0.1132149972504201
14.049268,4.766337286750344,0.1130214175514222
14.051656,4.783285258281457,0.1127264933566729
14.054052,4.797719272386956,0.1124472558424189
14.056447999999998,4.8128521346267545,0.112116236790172
14.058835999999998,4.82547103944094,0.1118027979667671
14.06122,4.837438317949067,0.1114800519535821
14.063615999999998,4.846472330150998,0.1112041464832319
14.066003999999998,4.849639809740541,0.1110232865868793
14.068384,4.850944958210526,0.1108671027247873
14.075552,4.8317663602232575,0.1108175754802076
14.077947999999996,4.826273810521075,0.1107709088321072
14.080335999999996,4.819989864885972,0.1107256431358005
14.08272,4.814776854437509,0.1106577197764368
14.085115999999998,4.81249711029524,0.110542561754324
14.087503999999996,4.808866891712614,0.1104708695238756
14.089884,4.804445277197068,0.1104008234825382
14.09228,4.802165533054802,0.1102862318055041
14.094668,4.797743918539257,0.1102160839396935
14.099447999999995,4.781963221709137,0.1101886333329117
14.101832,4.776470672006953,0.1101397464505319
14.104224,4.771489978983967,0.1101093069012178
14.106623999999998,4.769442552267177,0.1100342141310841
14.109007999999998,4.771259557416359,0.1099041910771955
14.111392,4.777080764058374,0.1097090823697449
14.113787999999998,4.789187812193362,0.1093948064089419
14.116171999999995,4.803017421821045,0.1090655728619457
14.118552,4.825926369621036,0.1085854437722899
14.120955999999998,4.845902051114831,0.1081414666539475
14.123343999999998,4.865598193354905,0.1077189814620059
14.125724,4.8754236014897545,0.1074510044722234
14.128119999999996,4.881756664810969,0.1072687675472505
14.130507999999995,4.88995205925174,0.1070646238076736
14.132888,4.896564661826675,0.106863720231991
14.135284,4.901314933282054,0.1066860100259963
14.137668,4.902061003244597,0.1065747123037434
14.140063999999995,4.905460800259616,0.1064399015443343
14.142459999999998,4.914075503580968,0.1062081277642704
14.144847999999998,4.920827875782762,0.1059984344433632
14.147228,4.9257179168650005,0.1058096943659052
14.166351999999998,4.869251162231962,0.1057209986722376
14.168732,4.861524194357885,0.1056592582727768
14.171136,4.854868161670446,0.1055772160534981
14.173524,4.861667755700483,0.1053210783050003
14.1759,4.8713080682381005,0.1049744482212926
14.178299999999998,4.8772237185366025,0.1046698708271277
14.180683999999998,4.886864031074219,0.1043266489245627
14.183064,4.898646213985112,0.103944196587533
14.185467999999998,4.917365864695034,0.1034639066402416
14.187851999999998,4.931057600553728,0.103007076393757
14.190232,4.938603264546309,0.1026493757703567
14.192635999999998,4.951084295591503,0.1022250763186272
14.195019999999998,4.968360924062448,0.1017410944133841
14.1974,4.988710588466451,0.1012105892364951
14.199804,5.009619331377893,0.1006427434165846
14.202191999999998,5.035695758767424,0.1000408907131846
14.204571999999995,5.061492646903235,0.0994596826963224
14.206967999999998,5.079141362426518,0.0990035773688355
14.209355999999998,5.0961384516437445,0.0985410356763134
14.211736,5.114718332726807,0.0980801699169539
14.214135999999998,5.135440084183146,0.0975791311805958
14.216519999999996,5.1505276204525705,0.097199010683689
14.218904,5.164963530415938,0.096811790057916
14.221308,5.171018950341301,0.0965127070680619
14.223696,5.177725996572721,0.0962251339028556
14.226075999999996,5.188157705043255,0.0959023846793191
14.228471999999998,5.197937787207732,0.0955753120903727
14.230855999999998,5.208649034931986,0.095243047231831
14.233251999999998,5.217358181909824,0.0949420249258217
14.235648,5.2290931429924745,0.0946525647537103
14.238036,5.246182780008317,0.0942772921125042
14.240415999999998,5.260199381091103,0.0939483047580688
14.242812,5.273284816614113,0.0936302169452712
14.2452,5.283157446577207,0.0933632616248201
14.247579999999996,5.2926107676597205,0.0931234923912147
14.24998,5.303833872063172,0.092826875200685
14.252363999999998,5.316127911653261,0.0925148848011436
14.254747999999998,5.338711994229157,0.0920671615940533
14.257143999999998,5.362739099044028,0.0916340764888303
14.259527999999998,5.387697369418678,0.0911977933456692
14.261924,5.412096561285886,0.0907959683390871
14.26432,5.436495753153095,0.0903911185577468
14.266704,5.461127262445782,0.0900235434265184
14.269087999999998,5.487993189910363,0.0896672905408794
14.271484,5.51644190924078,0.08931847323319
14.273867999999998,5.545030398198056,0.0889665861732475
14.276251999999998,5.567844902341561,0.088717716788299
14.278656,5.590519636858203,0.088481345523511
14.28104,5.607979465068514,0.0883131878719338
14.283423999999998,5.627581163652101,0.08811641995879
14.28582,5.648486114847805,0.0879439879002062
14.288208,5.671113627536204,0.0877678529457124
14.290587999999998,5.692670205037967,0.0876074979192683
14.292992,5.718370753659422,0.0873976297053193
14.29538,5.746073403027295,0.0871682254591944
14.297759999999998,5.772285808327948,0.0869826451123805
14.300156,5.796356343255324,0.0868259162012413
14.302544,5.813581958182288,0.0867810654672048
14.304923999999998,5.828805472362835,0.0867568718761154
14.307328,5.842026885796965,0.0867535351117862
14.309712,5.858740644044732,0.0866931231653587
14.312096,5.8794586037853325,0.0865933028944648
14.314492,5.900595872406514,0.0864704050259204
14.31688,5.921081514721637,0.0863376795616375
14.319259999999998,5.938913429984285,0.0862166382175846
14.321656,5.955534640433435,0.0861185759964892
14.324039999999998,5.977370757188917,0.0859583459321438
14.326423999999998,5.996273607638204,0.0858244645106618
14.32882,6.02118276032674,0.0856313131478724
14.331207999999998,6.044369351522582,0.0854454337608485
14.333604,6.059966848613335,0.0853137009471282
14.336,6.0737020145845335,0.0851942847966731
14.338388,6.0894392813021465,0.0850565578127769
14.340768,6.101032576900067,0.0849654059664451
14.343164,6.110623771751572,0.0848937901522892
14.345552,6.115559138804183,0.0848503085172582
14.347931999999998,6.123707311416711,0.0847674067205691
14.350328,6.1331134106709815,0.0846159225853744
14.352716,6.141076487686275,0.0844524853712269
14.355095999999998,6.151321204701707,0.0842561574599763
14.357492,6.160494986530499,0.0840755987620141
14.35988,6.17087947317279,0.0838780114186883
14.362276,6.181543499068801,0.0836671485819811
14.364672,6.19462893459181,0.0834182083416585
14.36706,6.208925074928318,0.0831508984220396
14.36944,6.221638423398988,0.0828795900763279
14.371836,6.233188288884405,0.0825840271794083
14.374224,6.247159563996817,0.0822504530671139
14.376608,6.256614780937199,0.0819353580700137
14.379004,6.261274400451829,0.0816508024653595
14.381392,6.271148926272791,0.0813115458531243
14.383772,6.282513696160973,0.0809398080368968
14.386168,6.290573112690622,0.0805665901638566
14.388556,6.297189506981295,0.0801789132496148
14.390935999999998,6.304225210152548,0.0797699455748555
14.393332,6.315404884443496,0.0793191908560454
14.39572,6.325001766868607,0.0788662428137672
14.398116,6.3338998011594185,0.0784490662766224
14.400511999999996,6.349315994368676,0.0780026907005228
14.402899999999995,6.363521482764437,0.0775785096824528
14.405284,6.372931373734445,0.077183843072326
14.407679999999996,6.374612400972506,0.0768394589225792
14.410067999999995,6.373360161904372,0.0765152107871669
14.412448,6.370105822089821,0.0762078651255388
14.414847999999996,6.364569842275134,0.0759302388256243
14.417235999999995,6.35596082652739,0.0756777191191293
14.419616,6.3458615667124265,0.075457280888906
14.422019999999998,6.334411832457105,0.0752621581580769
14.424403999999996,6.323613724507841,0.0750763240342182
14.426788,6.318402609917246,0.0748651112691613
14.429183999999998,6.312911956072932,0.0746685992977303
14.431571999999996,6.30499989260162,0.0745083915125994
14.433952,6.30025341286198,0.0743603513751324
14.436351999999998,6.301373465734732,0.0741746154593477
14.438739999999996,6.30435584972704,0.073982108225387
14.44112,6.305056593719209,0.0738184170437223
14.443515999999995,6.305338028830799,0.0736759054333992
14.445904,6.308832269502305,0.0735017301333583
14.448284,6.304877185695583,0.0733574072563712
14.450683999999995,6.299059770769304,0.0732202629261256
14.453068,6.298037953268779,0.0730580282079258
14.455452,6.299809632447587,0.0728838454741767
14.457848,6.30516620423865,0.0727024764722364
14.460236,6.309032531962493,0.0725524747617545
14.462616,6.314109564499834,0.0723848659240316
14.465016,6.323982194462928,0.0721915977121798
14.4674,6.337859025918855,0.0719715636807869
14.469784,6.348662821441726,0.0717750116148064
14.47218,6.362819192151374,0.0715410054179024
14.474568,6.375253001368324,0.0713084042968676
14.476963999999995,6.383030982786384,0.0710922196266489
14.479364,6.390017568271525,0.0708715416260921
14.481751999999998,6.3966320667043295,0.0706279883437989
14.484131999999995,6.399102594017439,0.0704199016404573
14.486527999999998,6.399710790210991,0.070219342184008
14.488915999999998,6.402600626404682,0.0699919035378822
14.491296,6.406421628158151,0.0697618014540762
14.493691999999998,6.407169593978564,0.0695554436978174
14.496079999999996,6.409640121291674,0.0693486576954667
14.49846,6.412390187858505,0.0691277681629469
14.500855999999995,6.413277923305778,0.0689139305025123
14.503244,6.416167759499469,0.0686874149411249
14.505624,6.41947690457374,0.0684423131097125
14.50802,6.421343027409034,0.0681812332560252
14.510408,6.423209150244331,0.0679204603348944
14.512803999999996,6.428427848266401,0.0676267094307104
14.515204,6.428571409609001,0.067367704114022
14.517592,6.430996610951736,0.0670814270390263
14.519971999999996,6.429277841174778,0.0668267152944168
14.522367999999998,6.426627905838042,0.0665744796282717
14.524755999999998,6.428773567927057,0.0663010859266759
14.527136,6.435063201135765,0.0659973033542009
14.529535999999998,6.439071194344338,0.065719562325609
14.531919999999998,6.442939417926049,0.0654478402637267
14.5343,6.446528102254043,0.0651900016198621
14.536695999999996,6.446252354716061,0.0649486322194703
14.539083999999995,6.44532498087202,0.0646968151873227
14.541468,6.4465394774012585,0.0644269187150426
14.543863999999996,6.450687240236691,0.0641437894387279
14.546251999999996,6.454415694191543,0.0638802464639531
14.548632,6.4590753137061725,0.0636151617948994
14.551028,6.464945638034301,0.0633363804646936
14.553412,6.463598955309681,0.0631055705222097
14.555811999999998,6.467979035570591,0.0628552503519785
14.558208,6.47263865508522,0.0625922671573687
14.560596,6.471943598666658,0.0623741292151955
14.562975999999995,6.47446134780801,0.0621299798996727
14.565376,6.482845629561753,0.061862974163702
14.567759999999998,6.4961652783681085,0.0615743605751872
14.570143999999996,6.512278423853799,0.0612813498568789
14.572539999999998,6.529322734899269,0.0609887686564414
14.574927999999998,6.545156341131239,0.0607134790910836
14.577311999999996,6.564062983296264,0.0604215497966877
14.579707999999998,6.589255466954261,0.0600909998044757
14.582095999999998,6.616450051358673,0.0597528339334469
14.584479999999996,6.651093960241313,0.0594043274043472
14.586875999999998,6.68652926505687,0.0590630840977102
14.589263999999998,6.722755965805345,0.0587302102182084
14.591644,6.758051500994044,0.0584019566501624
14.594039999999998,6.797491007302435,0.0580517105487093
14.596427999999998,6.835859578424188,0.0577108450668602
14.598811999999995,6.8707358047323055,0.0574065335692832
14.601207999999998,6.9144118299590085,0.0570715332719012
14.603595999999998,6.957948085558851,0.0567480878343641
14.605976,6.998783392277975,0.0564637097456989
14.608371999999996,7.0417605693703775,0.0561654507493456
14.610763999999998,7.081524940902863,0.0558900321805929
14.613144,7.115003470942377,0.0556549376039773
14.615539999999998,7.146340130608615,0.0554369229792578
14.617927999999996,7.177537020647993,0.0552271507156291
14.620312,7.207802745127592,0.0550206058404116
14.622707999999998,7.235647059980192,0.0548398769045261
14.625095999999996,7.261069965205797,0.0546859089976709
14.627491999999998,7.280067259311569,0.0545748526662474
14.629888,7.295991517484288,0.0544788625301236
14.632276,7.306980408604394,0.0544000873232076
14.634655999999998,7.315036033418305,0.0543299979401171
14.63706,7.323883054165133,0.0542655382237667
14.639448,7.331519370098463,0.0542136736830473
14.641828,7.336222419725598,0.0541704915090228
14.644228,7.342787800472291,0.05412595950019
14.646616,7.352845526032619,0.0540509949452388
14.648996,7.35996998528675,0.0539846413752258
14.651396,7.366163278981104,0.0539196886716628
14.653784,7.3794338101013475,0.0538279201879219
14.656164,7.395637607527785,0.0537298962202972
14.658564,7.414634901633557,0.0536298011075021
14.660948,7.435913835739468,0.0535119770323091
14.663332,7.454259503539184,0.053401612488729
14.665728,7.470742840219342,0.053293094365164
14.668116,7.487365946526362,0.0531800734110057
14.6705,7.508552332833656,0.0530324969512023
14.672896,7.528155927275112,0.0528746733395389
14.675284,7.550320700970426,0.0526888161963917
14.677668,7.5738359491061,0.0524862919108522
14.680064,7.59977260686877,0.0522622288804367
