Time,Force,Position
14.048015999999995,2.15987891838961,0.1653847643759731
14.091023999999996,2.495417348323317,0.1650924210845124
14.093424,2.502864776943674,0.1650858628263008
14.095812,2.510591744817752,0.1650370963330361
14.098191999999996,2.5218110575054657,0.1647642743675986
14.100592,2.530888499819902,0.164614049360803
14.10298,2.545133626612428,0.1643033028284117
14.105359999999996,2.562172250084289,0.1638730168456516
14.107764,2.582144139862345,0.1632877189900392
14.110152,2.610543741506649,0.162196736180467
14.112531999999998,2.6350789112849795,0.1612866851162809
14.114928,2.6585431458766715,0.160453270188427
14.117316,2.6841492508416405,0.1595084710480389
14.119699999999998,2.70961558617975,0.1585827824663613
14.122096,2.730146554465247,0.1579154523979903
14.124484,2.745881925324993,0.1574846871271403
14.126863999999998,2.757752864318764,0.1572166235562775
14.12926,2.7722775303650105,0.156870129349339
14.131647999999998,2.791085937157811,0.1562989113464052
14.134031999999998,2.8126878406299465,0.1556060640265162
14.136428,2.834429513728942,0.1549118587983634
14.138815999999998,2.8561711868279374,0.1542443208134001
14.141199999999998,2.8760505288073763,0.1536656850475324
14.143596,2.8953707922793743,0.1531650893027067
14.145984,2.910826623885399,0.1528294510906781
14.148363999999995,2.9254910595585057,0.1525000245692156
14.150759999999998,2.936570602619359,0.1522986261913846
14.153147999999998,2.9473706064264933,0.1521371600650183
14.157927999999998,2.965897578107704,0.1519546315652709
14.160315999999998,2.979491078594173,0.1517032119566097
14.162699999999996,2.995366219080778,0.151341510231998
14.165095999999998,3.010170424380745,0.1510382092903068
14.167483999999998,3.0241832337477934,0.1507445254901374
14.169863999999995,3.0384755823685623,0.1504074728501277
14.172259999999998,3.0521163046832736,0.1500630254031561
14.174647999999998,3.073765429983652,0.1493934240098235
14.177028,3.088477087485001,0.1490014999823352
14.179423999999996,3.09825337793374,0.1488075835025275
14.181811999999995,3.1063071068897807,0.1486575794466054
14.188996,3.117711515174729,0.1486134664937098
14.191375999999998,3.122599660399098,0.1485217731625523
14.193772,3.130421071929662,0.1483243256257965
14.19616,3.138661792340807,0.1480705242692395
14.198543999999998,3.1458315775653127,0.1478644405503548
14.20094,3.156353937976595,0.1475072540320672
14.203328,3.1668762983878764,0.1471540988739074
14.205707999999998,3.182753334732351,0.1465755760178578
14.208104,3.1921122121583774,0.1462039956574581
14.210492,3.1991894495842663,0.1459445250016188
14.212871999999996,3.2087806444357705,0.1456428797516768
14.215272,3.224378141526524,0.1451435742071335
14.217655999999998,3.242117508990556,0.1445614182190644
14.220039999999996,3.260508502760645,0.143982393853133
14.222435999999998,3.2718222591048454,0.1436563885424347
14.224823999999998,3.290353022501794,0.1430700375621819
14.227207999999996,3.311537512951218,0.1424170312266783
14.229603999999998,3.3350036434007797,0.1416672164107525
14.231991999999998,3.3584697738503406,0.1409174015948267
14.234371999999995,3.3844498617255163,0.1401224007687144
14.236767999999998,3.4121525110933884,0.1393070237774377
14.239159999999998,3.438923994901482,0.1385328727685219
14.241543999999998,3.4638331475900195,0.1378193509639291
14.243939999999998,3.4924669625176703,0.1370183173860586
14.246327999999998,3.521380316699042,0.136182972365599
14.248724,3.543216433454524,0.1355841605811654
14.251123999999995,3.5662632550235043,0.1349426995970858
14.253511999999995,3.586748897338627,0.134439014639732
14.255892,3.608957101146447,0.1338973096883254
14.258288,3.6322362401409047,0.1333225636000659
14.260676,3.651278860217052,0.1328250947546664
14.263056,3.662313077307532,0.1325724598131704
14.265448,3.675069855890708,0.1322977080022174
14.267836,3.688478260779942,0.1320291387126985
14.270215999999998,3.70617040641573,0.1316134182522874
14.27262,3.718927184998906,0.1313420296019634
14.275008,3.730240941343106,0.1310710797857932
14.29412,3.753144201569488,0.1309402972638856
14.306068,3.7658065364961777,0.1308376199806799
14.308463999999995,3.768180724294932,0.130818653608618
14.310848,3.7754902791462985,0.1306707766122701
14.313228,3.777724697318192,0.1306655128804073
14.318012,3.7793074891840295,0.1306526332362979
14.320396,3.781681676982784,0.1306339792502885
14.322792,3.786430052580292,0.1305971848823019
14.325176,3.7951826296706335,0.130453399231564
14.327572,3.806077077134254,0.1302416778294395
14.329975999999998,3.814038258291677,0.1301045114225941
14.332359999999998,3.824932705755297,0.1298958560508117
14.33474,3.8399711243386094,0.1295683314980829
14.337144,3.854730003668203,0.129266690091034
14.339531999999998,3.869349113370936,0.1289808943695134
14.341915999999998,3.883828453446808,0.128710775535962
14.368208,3.92032331830179,0.1287067523713999
14.370587999999998,3.9220458797944864,0.128681578079215
14.372984,3.9249791461006818,0.1286121938945834
14.375372,3.928052182033737,0.1285304600490425
14.377751999999996,3.933267088340069,0.1283859513288983
14.380147999999998,3.935548728340207,0.1283102669395406
14.382535999999998,3.937550829086624,0.1282615783050683
14.384915999999995,3.9390410731538426,0.1281919864303815
14.387315999999998,3.939088294982086,0.1281198441805821
14.389699999999998,3.93955482569091,0.1280096724901319
14.39208,3.944165327519428,0.127788657563392
14.394479999999998,3.954270274907997,0.1274019430121981
14.396867999999998,3.966237553416125,0.1269834399395955
14.399248,3.976714587857034,0.1266323615337147
14.401643999999996,3.987843248603999,0.1262878195777018
14.404031999999996,4.00940172196363,0.1256566561109597
14.406416,4.028166698643926,0.1250776949319973
14.408811999999998,4.0450693442046655,0.1245350948033454
14.411199999999996,4.063182694578902,0.1239521550490228
14.41358,4.080225109766502,0.1234029129408425
14.415975999999995,4.095405193834544,0.1228907564761023
14.418363999999997,4.108583177156171,0.1224319979901628
14.420744,4.117896728611823,0.1220596506964292
14.423143999999995,4.127210280067475,0.1216905986199269
14.425531999999995,4.134242191522991,0.1213933758617059
14.427912,4.145557843725061,0.1209830432611447
14.430315999999998,4.153288603314877,0.1206272613216409
14.432703999999998,4.162741924397389,0.1202510748068416
14.435084,4.1737780373457385,0.1198674406297253
14.437479999999995,4.1825325102939495,0.1195543746733397
14.439867999999995,4.193149314361717,0.1192148063149277
14.442248,4.20055331286957,0.1189634521448045
14.444644,4.207026145817645,0.118730618293747
14.447035999999995,4.218853654698911,0.1183646789582655
14.449416,4.233893969140095,0.1179223159268356
14.451819999999998,4.244371003581002,0.1176157045562591
14.454203999999995,4.255359894701108,0.1173251530832146
14.456584,4.268490656194492,0.11698203704737
14.458992,4.278129072874238,0.1167412171398161
14.461375999999998,4.286836323994207,0.1165146056083265
14.463756,4.300199402913067,0.1162168568780205
14.466164,4.311141072204928,0.1159931328962088
14.468547999999998,4.320452727802712,0.1158404025362399
14.470927999999995,4.330555779333413,0.1156866928847536
14.473323999999998,4.345454428289867,0.115448437698861
14.475711999999998,4.357652128365602,0.1153138760945772
14.478095999999995,4.373015412173009,0.115166347132034
14.480491999999998,4.391451731913472,0.1149580012381664
14.482875999999996,4.41282131796013,0.1147019953909407
14.48526,4.435401608820288,0.1144080234413286
14.487655999999998,4.452766993374112,0.1142306032673241
14.490043999999996,4.469992608301077,0.1140639874896375
14.492428,4.488009619160959,0.1138979046469093
14.497211999999998,4.5114719578947815,0.1138486533836495
14.499592,4.523762205769135,0.1137822025103592
14.501987999999995,4.5374029280838455,0.1136679828115703
14.504375999999995,4.5515555070777545,0.1135755937135018
14.506756,4.570271366071938,0.1133650440021692
14.509155999999996,4.593782822491874,0.1130819647426271
14.511543999999995,4.608913788873804,0.1129159478441659
14.513939999999998,4.631401531935344,0.1125976235394194
14.516336,4.657800928691101,0.1121526099822101
14.518724,4.679125188767385,0.1118016925781139
14.521103999999998,4.6957936210447775,0.111519098320607
14.523504,4.709016930336776,0.1112638763282617
14.525887999999998,4.719866051830022,0.1110150092040041
14.528271999999998,4.725779806270656,0.1108546439791584
14.530668,4.72489586253912,0.1108052856249011
14.533055999999998,4.724803314740504,0.1107539979377099
14.535435999999995,4.727923572501801,0.1106323305141984
14.537831999999998,4.730252434330184,0.1105123149695307
14.540219999999998,4.727134072426754,0.1104583274783159
14.5426,4.722293149030628,0.1104195607787727
14.544999999999998,4.7202457223138365,0.1103418487164153
14.547387999999998,4.715916655596909,0.1103220082462461
14.549768,4.717082034440034,0.1101759414110083
14.552167999999998,4.714662520670905,0.1100688610778495
14.554555999999998,4.711823698021196,0.1099936655958575
14.556935999999997,4.702606486079899,0.1099921580679438
14.564116,4.686453702197443,0.1099298234594985
14.566512,4.68682768510765,0.109789589633039
14.5689,4.688691912085075,0.1095970628063894
14.571279999999998,4.693489405368696,0.1093585137298955
14.573684,4.700848077906175,0.1090468000541109
14.576072,4.708486289697374,0.1087134765324545
14.578452,4.7173352063020735,0.1083434551474644
14.580848,4.72767436697399,0.1079247758275045
14.583236,4.736942592459269,0.1075291903982644
14.585615999999998,4.744348486824991,0.1071527810635611
14.58802,4.756270439362743,0.1067257395530669
14.590404,4.769542866340856,0.1062531818598713
14.592783999999998,4.777368069587158,0.1058391182621144
14.59518,4.78533304246032,0.1054148389914406
14.597568,4.7870121738405125,0.1051173495991988
14.599947999999998,4.790972945220842,0.1047648629536713
14.602344,4.791488593615778,0.1044376260993311
14.604731999999998,4.793726803503411,0.1040954924272373
14.607111999999995,4.794382221525207,0.1037584420416743
14.609507999999998,4.795037639547003,0.1034202549666614
14.611895999999998,4.793179100143186,0.1030971560204637
14.614292,4.784755179992676,0.1029123750646707
14.616688,4.774561476521226,0.1027999242159367
14.619076,4.767301039355973,0.1026442128888326
14.621455999999998,4.757479422936861,0.1025602241124859
14.623852,4.751242699130003,0.1024434617621083
14.62624,4.749661803122034,0.1022742474074753
14.628619999999998,4.74551972786021,0.1021763585127485
14.631016,4.742588357411885,0.1020482649443549
14.633404,4.748736325135865,0.1017810228025455
14.635787999999998,4.754092896926927,0.10151472769893
14.638184,4.7636859876363,0.1012311606875338
14.640572,4.783941208383815,0.1008162538542648
14.642951999999998,4.802194328384912,0.1004286272100175
14.645347999999998,4.818957204318791,0.1000858415916937
14.647735999999998,4.837163102491647,0.0997561864726108
14.650132,4.860816224396311,0.0993821177272832
14.652528,4.887914469286369,0.0989916088089904
14.654919999999995,4.912591304549429,0.0986588265905035
14.6573,4.936848830931909,0.0983524059577136
14.659703999999998,4.9629686884339455,0.0980313988328795
14.662091999999998,4.996026013735009,0.0976172077137839
14.664472,5.033367079782628,0.0971297245407927
14.666867999999996,5.06856627545697,0.0966878089769469
14.669255999999995,5.109352464489985,0.0961970171096945
14.671636,5.145203286470383,0.0957720937139378
14.674035999999996,5.180122942891004,0.0953645170386129
14.67642,5.215973764871404,0.09494794375536
14.678804,5.254618083531138,0.0945152246602918
14.681207999999998,5.286836791071043,0.0941984254923673
14.683591999999996,5.3217092256634215,0.0938697598630146
14.685972,5.352856998016686,0.0935779461900912
14.688367999999995,5.373994266637868,0.09341487126964
14.690755999999997,5.400066902311661,0.093196465082493
14.693136,5.433636084291923,0.092865278967527
14.695532,5.462689208100153,0.0925638288934715
14.69792,5.487877900042412,0.0923058619139509
14.7003,5.511623569745693,0.0920407202983063
14.702696,5.537790649075972,0.0917261485111045
14.705084,5.5694521739663045,0.0913267536777685
14.707468,5.600694389976057,0.0909577738760393
14.709864,5.627932404492974,0.0906395541727363
14.712252,5.653028548636614,0.0903565261959887
14.714636,5.677193527220478,0.0900812875666446
14.717028,5.6949801165127525,0.0898488487773636
14.719416,5.714908576178304,0.0895847315833494
14.721799999999998,5.732834935097438,0.0893443597391858
14.724196,5.751320372524013,0.0890729969408282
14.726584,5.764870442897976,0.0888541571240301
14.728963999999998,5.778560282898802,0.0886269135838057
14.73136,5.788665230287371,0.0884194956867569
14.733748,5.79984111286258,0.088197998811847
14.736144,5.815812592863542,0.0879343504091839
14.738543999999996,5.827640101744809,0.0877229141364945
14.740931999999995,5.832250603573325,0.0875991124574726
14.743312,5.842168559506792,0.0874524588936984
14.745715999999998,5.850363953947563,0.087310256806185
14.748103999999998,5.8562777083881965,0.0872053499925568
14.750487999999995,5.864193563575248,0.087081249712928
14.752879999999998,5.869967548389022,0.0869876558995755
14.755267999999996,5.874158741336959,0.0868909966930072
14.757648,5.879700408725255,0.0867652901876925
14.760043999999995,5.884590449807492,0.0866304501574013
14.762431999999995,5.890411656449508,0.0864898968928235
14.764812,5.901168230144138,0.086305027901265
14.767215999999998,5.913926904585183,0.0861021090489022
14.769599999999995,5.928827449399505,0.0858735693383287
14.771984,5.943448454960107,0.0856622788533167
14.774379999999995,5.956346899028013,0.0854531487491019
14.776764,5.971247443842335,0.0852260700961837
14.779148,5.990152190149491,0.084963222909724
14.781544,6.009056936456647,0.0847021303198441
14.783932,6.025307955711327,0.0844509153425911
14.786312,6.039976183100173,0.08419348035462
14.788708,6.055715345675656,0.0839208588943516
14.791096,6.069871716385305,0.0836464508729817
14.793491999999995,6.088683914893844,0.0833453302987392
14.795891999999998,6.110988458216019,0.0829913440284744
14.798279999999998,6.129940426351419,0.0826867251468089
14.800659999999995,6.143957027434205,0.0824241943226644
14.803055999999998,6.155180131837658,0.0821768194538928
14.805447999999998,6.164773222547031,0.0819732351364256
14.807827999999995,6.172084673256265,0.0818025283159211
14.810223999999998,6.177813332099665,0.0816277201123336
14.812611999999998,6.180329185383148,0.0814925821079462
14.814995999999995,6.1776301323603,0.0814137926574582
14.817391999999998,6.171066647471478,0.0813635069573372
14.819779999999998,6.166645032955932,0.0812878455218498
14.82216,6.169812512545474,0.0811641910552908
14.824555999999998,6.171257430642319,0.0810438084661607
14.826943999999996,6.171631413552526,0.0809367797126305
14.829324,6.16814096459676,0.0808563437219652
14.831719999999995,6.167583781947188,0.0807541083372854
14.834107999999995,6.173544758216064,0.0806184109885803
14.836492,6.184720640791274,0.0804313099913702
14.838887999999995,6.1972469978068405,0.080219955956324
14.841275999999995,6.207259397396794,0.0800099069634432
14.843656,6.213919221799972,0.0798427434222909
14.846052,6.220206959150813,0.0796515161483085
14.84844,6.229148423554128,0.0794527952911712
14.850824,6.241023154263639,0.0792326770330644
14.853219999999997,6.251594632361033,0.0789920306335668
14.855608,6.263516584898786,0.0787239579899395
14.857992,6.274647141503621,0.0784527278741521
14.860395999999998,6.283123971055982,0.0781867207744866
14.862783999999998,6.298166181355034,0.0778428494510156
14.865164,6.316281427587142,0.0774711726601213
14.867559999999996,6.326248501206721,0.077171330124983
14.869947999999996,6.327555545534575,0.0769274121978665
14.872332,6.328862589862429,0.0766837755645903
14.874727999999998,6.325234267137671,0.076476587671961
14.877115999999996,6.327752016279025,0.0762141033059996
14.879496,6.327336499114182,0.0759725366496333
14.881891999999995,6.325338190083503,0.0757274244760248
14.884279999999997,6.316542182880656,0.0755259656548194
14.88666,6.305604305304531,0.0753468762933663
14.889059999999995,6.293455722914908,0.0751854100665053
14.891444,6.283588780525423,0.0749945169090366
14.893843999999998,6.273302529255356,0.0748242178663037
14.896244,6.261713025373174,0.0746329071800807
14.898632,6.252917018170328,0.0744302597881261
14.901011999999998,6.247054277273677,0.0742085684251181
14.903408,6.24412480268322,0.0739687760779959
14.905796,6.244640451078158,0.0737281846176203
14.908175999999996,6.247018430592651,0.0734787826677466
14.910571999999998,6.245252438987449,0.0732662981691076
14.912959999999998,6.241344577008971,0.0730750967520232
14.915343999999996,6.240789290217269,0.0728427797132123
14.917739999999998,6.244377974545261,0.0725731648429191
14.920123999999998,6.245824788499975,0.072324520523802
14.922507999999995,6.249133933574247,0.0720668783774527
14.924903999999998,6.248299107528824,0.0718465127398108
14.927291999999998,6.246393346296761,0.0716360344761827
14.929672,6.241554318758505,0.071443917332767
14.932067999999996,6.24109157976542,0.071247840690308
14.934455999999996,6.239278366331975,0.0710765275869141
14.936851999999998,6.240398419204725,0.07088775915378
14.939248,6.240167997637117,0.0707242474665719
14.941636,6.241008511256148,0.0705499180332893
14.944019999999998,6.246225313420348,0.0703729911252197
14.946416,6.243573482225743,0.0702445151937882
14.948804,6.240642111777417,0.0701305258847868
14.951183999999998,6.23957307244865,0.0700108934562833
14.95358,6.236781471627182,0.0698911087548303
14.955968,6.234781266738636,0.0697749115267535
14.958351999999998,6.236505724089202,0.0696464757616422
14.960748,6.241303217372822,0.0694953391538889
14.963136,6.251827473641975,0.0693200920375911
14.965519999999998,6.263934521776962,0.0691537902008816
14.967916,6.280325310658503,0.0689491241320866
14.970304,6.298066573980404,0.0687213430472698
14.972683999999996,6.320743204354915,0.0684679012739106
14.975084,6.34863474103576,0.0681749476985395
14.977472,6.377317673649523,0.0678864996543455
14.979855999999998,6.405488749584088,0.0675832804174273
14.982252,6.43715217033229,0.0672399550745354
14.984644,6.467744655893853,0.0669090326483558
14.987023999999998,6.499827385522635,0.06655097730567
14.98942,6.536193855897971,0.0661612739493556
14.991808,6.57204846959411,0.0657600163095127
14.994191999999998,6.615911486275916,0.0653122481799125
14.996588,6.66084543814436,0.0648594572490608
14.998976,6.6979107566539975,0.0644469703530412
15.001359999999998,6.7368384062831925,0.0640330261744772
15.003756,6.778327235166243,0.0635859572011529
15.006144,6.8168827977431,0.0631557408370156
15.008523999999998,6.85222555476004,0.0627533722811745
15.010924,6.882772714351229,0.0623719786665352
15.013312,6.910526377263083,0.0619981619706467
15.015695999999998,6.934275838682103,0.0616470511509842
15.018092,6.95960809196696,0.0613068444469958
15.02048,6.978142647079648,0.0609943393988666
15.022863999999998,6.990810669579945,0.0607068483757562
15.02526,7.003898000960822,0.060401531488749
15.027648,7.0139122964086456,0.0601142718154879
15.030027999999998,7.019922390363635,0.0598471981139184
15.032428,7.024209922825928,0.0595776192919939
15.034816,7.025284649728305,0.059331664915494
15.0372,7.0182112040181535,0.0591297058141684
15.039596,7.0088561183078655,0.0589496985752039
15.041984,7.000571967784216,0.0587633788205969
15.044368,6.990705025394731,0.0585680052452743
15.046764,6.985773450057858,0.0583527306605463
15.049156,6.980050478788067,0.0581335937368062
15.05154,6.971906097891277,0.0579415471802351
15.053936,6.962830551434709,0.0577504655235907
15.056327999999995,6.952823839418362,0.0575599478594387
15.058708,6.943608523334935,0.05737382515027
15.061107999999995,6.936395307997924,0.0571790905706716
15.063499999999998,6.928762783780333,0.0570015028780671
15.065876,6.919407698070045,0.0568206505147438
15.068271999999997,6.91391704422573,0.0566284265470227
15.070656,6.915875714859643,0.0564274478282678
15.073031999999998,6.916344141426335,0.0562515965227517
15.075423999999998,6.92253933097856,0.0560637731116406
15.077807999999996,6.931388247583256,0.0558787232636836
