Time,Force,Position
16.3131,1.793285089282768,0.1776218335782628
16.3155,1.858268311864932,0.174829611016189
16.317888,1.9200406247450488,0.1721295321492042
16.320272,1.9685915241910352,0.1706197506974368
16.322668,2.0075059028151445,0.1698652905886593
16.325056,2.041579358043128,0.1692237174306888
16.327436,2.0736526083825635,0.1683224073659822
16.329832,2.0995816827137577,0.1674800909179795
16.33222,2.1178763369694917,0.1669250575282587
16.3346,2.1290484278289625,0.1666554371126332
16.336996,2.1371947045836204,0.1664823259631295
16.339384,2.145340981338279,0.1663252032914721
16.341768,2.157863546638109,0.1659855873310763
16.344164,2.1693151767513,0.1657197979677658
16.346548,2.181697972424269,0.1654106897848551
16.348944,2.193102380709217,0.1652821661091909
16.351347999999998,2.214749610151727,0.1646062766334684
16.353731999999997,2.237979631460072,0.163914862540035
16.356112,2.2626526750073936,0.1632533776552698
16.358515999999998,2.2841129129948,0.1628118551685961
16.360903999999998,2.3027796543028707,0.1624999530238376
16.363284,2.327220380424715,0.1618018245572914
16.365688,2.349659005800143,0.161224202240829
16.368071999999998,2.375030897481765,0.1604630643444347
16.370452,2.3994716236036098,0.1597479192905511
16.372856,2.4272649249122296,0.1588465658162245
16.375244,2.456780787713546,0.1579372304764432
16.377623999999997,2.489509456074779,0.156841739231646
16.380024,2.5262423259288447,0.1555695843441792
16.382412,2.563906361342689,0.1542593838703892
16.384791999999997,2.6006392311967543,0.1530131167020456
16.387196,2.635370000304404,0.1519021689384328
16.38958,2.6643740064265224,0.1510539974149987
16.391959999999997,2.693797321429221,0.1501387474945541
16.394356,2.7217776141929453,0.1492461004588422
16.396743999999998,2.7525986254642465,0.1481535150971672
16.399123999999997,2.781045448936794,0.1471560229460984
16.401528,2.803113883117754,0.1463731397597561
16.403916,2.8218769639401806,0.1456885202042779
16.406295999999998,2.839057252896771,0.1450161486908202
16.408696,2.862243844092612,0.1440983531342315
16.41108,2.877002723422205,0.1435932898549869
16.535311999999998,2.913078279396605,0.1433492288347099
16.537708,2.919224351262716,0.1431101722152568
16.540091999999998,2.927092984621523,0.1428363771198628
16.542475999999997,2.9366841794730263,0.1425203734639316
16.544871999999998,2.949860266936783,0.1421015305372494
16.547255999999997,2.9639675199603173,0.1416545598626453
16.549652,2.975653363356855,0.1413407040096603
16.552048,2.9873392067533926,0.1410210162896363
16.554436,3.0027497123890434,0.1405970351944721
16.556815999999998,3.021884880263808,0.140069528123962
16.55922,3.0459554151911843,0.1393800999189287
16.561608,3.076172021984671,0.1384506607924155
16.563988,3.106248859151298,0.1375558058653221
16.566384,3.135254761131286,0.1366881680527018
16.568768,3.1574629649391057,0.1360536808726155
16.571151999999998,3.179391629493204,0.1354643185993899
16.573548,3.193451660688496,0.135144454582811
16.575936,3.2128663678169804,0.1346111816622982
16.578319999999998,3.232281074945465,0.1340779087417855
16.580716,3.244758314274921,0.1337913431895294
16.583104,3.2616590639777905,0.1333215130033929
16.585483999999997,3.276417943307384,0.1329462916377855
16.58788,3.2902456570771985,0.1326017181773607
16.590268,3.305284075660512,0.1322029275594322
16.592647999999997,3.320881572751266,0.1317445816632989
16.595048,3.336898378722601,0.1312443398465902
16.597436,3.353614032828237,0.1306657213596529
16.599815999999997,3.3774069243597618,0.1298808895547984
16.60222,3.399756793652311,0.1291205014692168
16.604604,3.417171295892248,0.1285028997043044
16.606987999999998,3.426996704027098,0.1280741652544807
16.609384,3.436682342535088,0.127671273703529
16.611767999999998,3.4420842402965235,0.1274079750748973
16.614151999999997,3.4524215051105718,0.1270110784804771
16.616547999999998,3.4656920362308146,0.1265291540051368
16.618935999999998,3.477100236231501,0.1260900735965676
16.621332,3.490650306605464,0.1255673348674658
16.623728,3.5020585066061507,0.1251296034210786
16.626116,3.513466706606837,0.1246918719746913
16.6285,3.524874906607523,0.1242503466450956
16.630892,3.5319993658616555,0.12395624093038
16.63328,3.5400549906755656,0.1236447694760363
16.635659999999998,3.5482503851163365,0.1233215513729425
16.638064,3.5552350747436083,0.123049927942626
16.640452,3.564733721796495,0.1227536524693724
16.642832,3.5767463262749963,0.1224350687670397
16.652403999999997,3.5957870504932745,0.1222350299647049
16.654791999999997,3.6079847505690097,0.1220579693520483
16.657172,3.615107313965273,0.1220157155211615
16.659568,3.6273050140410072,0.1218354353104425
16.661956,3.639362944489882,0.1216758668471135
16.66434,3.6550057675510095,0.121461328792284
16.666736,3.674373252851252,0.1211778681797616
16.669124,3.698396565950385,0.1208109144784829
16.671504,3.72013823904938,0.1205188734292282
16.6739,3.745604574387489,0.1201641643230976
16.676288,3.772653701591434,0.1197991763406248
16.678668,3.804358656594271,0.1193464661988793
16.681064,3.8300573093578576,0.1190320439885164
16.683452,3.852403386934667,0.1188212650928275
16.685831999999998,3.877822500444533,0.1185355106535541
16.688232,3.898306246901788,0.1183670380339089
16.690616,3.913854626306429,0.1183132723104725
16.692999999999998,3.927540674591514,0.118291928347335
16.695396,3.946813716235269,0.1181652268700643
16.697784,3.96915979381208,0.1179595477790312
16.700167999999998,3.99150587138889,0.1177597859199997
16.702568,4.006774711539811,0.1177329650670422
16.726471999999998,4.118916824872969,0.1175719777261827
16.728848,4.133908021628038,0.1173915403914381
16.731247999999997,4.154393663943162,0.1170663878578041
16.733632,4.169152543272754,0.1168425825112123
16.736016,4.188334932975761,0.11650353377813
16.738411999999997,4.210869897865544,0.1160747472032023
16.740796,4.234895106822545,0.1155820474938567
16.743176,4.2545440272343775,0.1151407575412522
16.745579999999997,4.271678990220593,0.1147223486759983
16.747968,4.286160226154335,0.1143373808913667
16.750348,4.307858469140826,0.1137979558742653
16.752744,4.331698582500595,0.1132253125018154
16.755132,4.349300076195635,0.1127251170502728
16.757512,4.373978807316565,0.1120855096738624
16.759908,4.400287552131573,0.1113864850553113
16.762296,4.424082339520967,0.1107070997139532
16.76468,4.447085730977443,0.110030016907389
16.767076,4.463710733142332,0.1094330975439514
16.769464,4.485131332732972,0.1087599624095117
16.77186,4.506551932323612,0.1080883476587189
16.774255999999998,4.525830661540975,0.1074618050307967
16.776643999999997,4.535098887026254,0.1070321806181024
16.779027999999997,4.541294076578477,0.1066669005826805
16.781423999999998,4.551074158742953,0.1062600396638209
16.783811999999998,4.557641435347514,0.1059276076498707
16.786192,4.562486150459378,0.1056116285137615
16.788587999999997,4.572778089303052,0.1052409004866975
16.790975999999997,4.586794690385839,0.1048238691831027
16.793356,4.602394083334462,0.1044056486418082
16.795751999999997,4.621718138522199,0.103944513350066
16.798143999999997,4.635594969978126,0.1035490290687482
16.800524,4.643558046993419,0.1033062361706227
16.802923999999997,4.661344636285692,0.1029763919365413
16.805311999999997,4.674335628152215,0.10271509568728
16.807692,4.681552635204964,0.1025891191502854
16.810091999999997,4.6892814989369125,0.1024825475918853
16.881771999999998,4.759016888832324,0.1024711564981205
16.884159999999998,4.754548052488536,0.1024527676153802
16.88654,4.750870612077666,0.1024342430751224
16.888935999999998,4.752128538719408,0.1023447548977141
16.891323999999997,4.755109026853845,0.1022447024189214
16.893704,4.758089514988284,0.102145156555674
16.896099999999997,4.770009571668167,0.1019144234760351
16.898487999999997,4.790449888012916,0.1015793109455462
16.900872,4.809167642864969,0.1012543378751492
16.903267999999997,4.8269542321572425,0.1009415824416273
16.905655999999997,4.840457080702963,0.1007109523985583
16.908051999999998,4.8575448218609365,0.100455205199223
16.910448,4.879056073392325,0.1001133681502448
16.912836,4.907132705670403,0.0996516278360016
16.915215999999997,4.936280273135122,0.0991711614553546
16.91762,4.964356905413201,0.0987134986614145
16.920008,4.993504472877918,0.0982444132298111
16.922387999999998,5.018927378103522,0.0978199947942699
16.924792,5.0391825988510375,0.0974282232989305
16.92718,5.068005301091661,0.0968962573233594
16.92956,5.099109643332422,0.0963177724687225
16.931956,5.128119337028148,0.0957223999500532
16.934344,5.159829979604592,0.0950601698000143
16.936728,5.190097599942061,0.0943976332470254
16.939124,5.219341506921134,0.0936995332614209
16.941512,5.245140290914815,0.0930141066289709
16.943891999999998,5.264141376736326,0.0924079902352827
16.946292,5.277555469199167,0.0918511264125968
16.94868,5.292459805729228,0.0912502198256109
16.95106,5.307364142259289,0.0906501605538787
16.953456,5.325341514722405,0.0900075645255707
16.955844,5.333867461960878,0.0894521025756494
17.008391999999997,4.827037824521978,0.089285325577479
17.010787999999998,4.82298829705877,0.0892273968658056
17.013171999999997,4.821173187767457,0.0891845835568335
17.015568,4.822803201461536,0.0891307914137727
17.017964,4.83239439631304,0.0890378220108126
17.020352,4.8474328148963535,0.0889100909408385
17.022731999999998,4.8702000972116135,0.088703372335511
17.025136,4.893479236206071,0.0885196363705532
17.027524,4.919412102253004,0.0883257289163744
17.029904,4.944134263486437,0.088155817467684
17.032307999999997,4.973512252518764,0.0879471152689848
17.034695999999997,5.007965378230561,0.0876756978272146
17.037076,5.047214101368112,0.0873583127321164
17.039468,5.087393990065439,0.0870409438065917
17.041856,5.12543200838949,0.0867598951135573
17.04424,5.161048617086543,0.0865311676260453
17.046636,5.200948966530151,0.0862416579597246
17.04902,5.244573978212872,0.0859256962643847
17.051399999999997,5.282844313962402,0.0856948894065341
17.053796,5.323396289712068,0.0854265551253823
17.056184,5.363668726208011,0.0851811731307941
17.05858,5.404872328263735,0.0849353526261449
17.060976,5.443981281774423,0.0846691861758359
17.063364,5.481507443419278,0.0844004357243543
17.065744,5.515728251705597,0.0841342166696997
17.06814,5.546783476260245,0.0838634684754793
17.070528,5.577326844135696,0.0835809561479996
17.072907999999998,5.608289520891727,0.0832774522741647
17.075304,5.6376694057819225,0.0829734864603683
17.077692,5.672543736232171,0.0825958105099303
17.080076,5.705183648510524,0.0822048542706526
17.082468,5.733167732989986,0.0818456532421083
17.084856,5.758777629670694,0.0814828449177576
17.087252,5.77973169855251,0.0811486697991542
17.089651999999997,5.802827637807604,0.0807902528443411
17.092035999999997,5.825551490010359,0.0804046785430986
17.09442,5.844271140720281,0.0800591079759684
17.096823999999998,5.86392195698998,0.0797126799341084
17.099211999999998,5.882269520647565,0.0793437997354045
17.101592,5.898754753185593,0.0789878917516361
17.103987999999998,5.912726028298006,0.0786328372762936
17.106375999999997,5.920970540424889,0.078315766476037
17.108756,5.927212951805355,0.0780161243357257
17.111155999999998,5.930661866506487,0.0777300820102907
17.113539999999997,5.935321486021118,0.0774245726550563
17.11592,5.939701566282027,0.077135096858018
17.118323999999998,5.938354883557406,0.0768825782942705
17.120707999999997,5.9322126034070335,0.0766611895473347
17.123092,5.922066121763828,0.0764735620876349
17.125484,5.905913337881371,0.0763368451103788
17.127872,5.89255405067825,0.076185520751114
17.130252,5.881476403475265,0.0760016053066919
17.132648,5.872261087391838,0.0758087726844397
17.135036,5.864908102427966,0.0756065796606745
17.137415999999998,5.85490139041162,0.0754096984067582
17.139819999999997,5.845965613581914,0.0752003456291512
17.142208,5.839963103058402,0.0749709455058522
17.144588,5.8294445343628585,0.0747549294880517
17.146984,5.820648527160011,0.0745374399823361
17.149372,5.8117127503303045,0.0743273082066535
17.151752,5.803708139060375,0.0741126044684599
17.154155999999997,5.802640995589474,0.0738475114266584
17.15654,5.803156643984411,0.0735887600481873
17.15892,5.808328120178238,0.0733097698285932
17.161327999999997,5.813359826745208,0.0730398834637099
17.163715999999997,5.814527101446201,0.0727915882881607
17.166096,5.820350203946086,0.0725236782514677
17.168491999999997,5.828035637565529,0.0722463200429932
17.170879999999997,5.839585503050945,0.0719447272775296
17.17326,5.851926764469279,0.0716453415618772
17.175663999999998,5.859984285141059,0.0713927885262876
17.178047999999997,5.8637580650662855,0.0711862356049936
17.180428,5.866321140178012,0.0710001550263269
17.182827999999997,5.869815380849517,0.0708107655756887
17.185212,5.875683809319777,0.070633441690323
17.187596,5.880993159282594,0.0704865368490301
17.189992,5.88229830775258,0.0703696161449012
17.192376,5.884255082528623,0.0702636544731167
17.194771999999997,5.888213958051083,0.0701434297709108
17.197176,5.89324376876018,0.0700125758665566
17.199564,5.8981338098424185,0.0698895071414135
17.201943999999997,5.898088483872045,0.0697996127729602
17.20434,5.897111992341892,0.0697130355016846
17.206728,5.896554809692321,0.0696048486073327
17.209107999999997,5.896928792602528,0.06949395917917
17.211503999999998,5.903029538498265,0.0693556838474632
17.213891999999998,5.906197018087806,0.0692350339807041
17.216272,5.912297763983542,0.0690978988094164
17.218667999999997,5.915605013199945,0.0689702629118403
17.221055999999997,5.919983197602985,0.0688319757804923
17.223436,5.929576288312358,0.0686491292425184
17.225839999999998,5.943964976447482,0.0684430400595264
17.228223999999997,5.956491333463051,0.0682436534474039
17.230604,5.968226294545699,0.0680410240285765
17.233003999999998,5.9803805645089305,0.0678187380265004
17.235391999999997,5.995887409658938,0.0675603862360328
17.237772,6.01353612518222,0.0672812236861192
17.240167999999997,6.033326711078781,0.0669823049109352
17.242555999999997,6.051254965855785,0.0666914627404854
17.244936,6.066110184699733,0.0664235755440064
17.247339999999998,6.081105173170542,0.0661492340688864
17.249723999999997,6.096239931268211,0.0658674523552733
17.252104,6.114587494925796,0.0655571344157862
17.2545,6.131444814516162,0.0652807724991367
17.256888,6.1445774718674135,0.0650160136299915
17.259272,6.156127337352829,0.0647440511044354
17.261667999999997,6.167537433211384,0.064478436825386
17.264056,6.177876593883302,0.064224301716803
17.266451999999997,6.191288790488274,0.0639489231055574
17.268843999999998,6.20870518858608,0.0636526467491934
17.271231999999998,6.221046450004415,0.0633904237071886
17.273612,6.230594214743413,0.0631360534902678
17.276007999999997,6.2420043106019705,0.0628773772182906
17.278395999999997,6.255416507206943,0.0626090800104271
17.280776,6.267757768625277,0.0623521812991979
17.283179999999998,6.277165763737416,0.0621106100200618
17.285567999999998,6.286433989222694,0.0618762932178917
17.287948,6.295562445081112,0.0616499380563682
17.290347999999998,6.306553232059087,0.0614209422992059
17.292735999999998,6.321548220529896,0.0611710028204988
17.295116,6.3374743745604825,0.0609204104099429
17.297511999999998,6.3580563563899615,0.0606626274806999
17.299899999999997,6.373283662286246,0.0604473045268921
17.30228,6.387579802622755,0.060234182282121
17.304679999999998,6.401456634078681,0.0600399288506402
17.307067999999997,6.4179871925870815,0.059848860923448
17.309448,6.43665962146876,0.0596413854820665
17.311847999999998,6.454680424044381,0.0594236905761138
17.314231999999997,6.473352852926058,0.0592194992535475
17.316616,6.486018979568487,0.0590461288496713
17.31902,6.5036204732635285,0.0588522688428418
17.321403999999998,6.523084298078127,0.0586556675362788
17.323787999999997,6.542827662146443,0.0584476582405971
17.326183999999998,6.560289386214624,0.0582634921539535
17.328571999999998,6.573886678416831,0.058091765157478
17.330952,6.5872044313653175,0.0579333381154811
17.333347999999997,6.601593119500443,0.0577677753618467
17.335735999999997,6.615190411702648,0.0575979597866022
17.33812,6.62585443759866,0.0574394257616956
17.340515999999997,6.632514262001838,0.0572993551758808
17.342903999999997,6.639034316778155,0.0571663793014642
17.345299999999998,6.639827608568943,0.0570480219386671
17.347696,6.649188381852838,0.0568696820684967
17.350084,6.660830795136871,0.0566709371966334
17.352468,6.676756949167458,0.0564425541996098
17.354864,6.690401463197907,0.0562368677139843
17.357252,6.703906207601496,0.0560385463876952
17.359631999999998,6.716991643124505,0.0558594248660004
17.362028,6.7272835819681776,0.0556841064584503
17.364416,6.737575520811851,0.0555077491440909
17.366795999999997,6.741721387789414,0.0553628897298133
17.3692,6.746007024393838,0.0552124229870802
17.371588,6.747871251371264,0.0550890373503243
17.373967999999998,6.750806413535329,0.0549586422969508
17.376364,6.758257633871424,0.0548292763226484
17.378752,6.765057227901464,0.0546884687692444
17.381135999999998,6.773858922677918,0.054540869007248
17.383532,6.783452013387291,0.0543990549843066
17.385915999999998,6.794767665589361,0.0542616952190551
17.388295999999997,6.808364957791566,0.0541040476076638
17.3907,6.821962249993772,0.0539471777839674
17.393088,6.836350938128898,0.0537950650047092
17.395467999999997,6.846455885517469,0.0536730888331681
17.397868,6.849763134733871,0.0535685167201718
17.400252,6.8519994487636335,0.0534714057202021
17.402631999999997,6.852792740554422,0.0533575179324687
17.405036,6.854796737158709,0.0532314966697149
17.407424,6.856800733762993,0.0531054754069612
17.409803999999998,6.862669162233254,0.0529714105929225
17.4122,6.873892266636706,0.0528050361838954
17.414588,6.892751686973488,0.052587700530431
17.416971999999998,6.911750876937131,0.0523660511764504
17.419368,6.931169375781354,0.0521260983885661
17.421756,6.947934147573102,0.0518819727561438
17.424135999999997,6.962045192312375,0.0516338730071343
17.426531999999998,6.975085301865009,0.0513916859194461
17.428919999999998,6.983190044365033,0.0511644849028575
17.431303999999997,6.987430354999082,0.0509443904468423
17.433699999999998,6.992089974513713,0.0507073214208193
17.436087999999998,6.99754098996126,0.0504765798744897
17.438484,7.000989904662392,0.0502525173587669
17.44088,7.0075118552965785,0.0500161400735862
17.443268,7.009750065184211,0.0498040790903098
17.445648,7.01943759955007,0.049589110097642
17.448044,7.025912328356014,0.0493926871420813
17.450432,7.033318222721736,0.049196108257304
17.452816,7.035648980407984,0.0490185952774248
17.455212,7.037607651041896,0.0488175496438869
