Time,Force,Position
16.325872,2.3661195952606424,0.1642463404494295
16.32826,2.3784098431349947,0.1639119439221792
16.33064,2.392050565449706,0.1634647288258973
16.333036,2.4044805829509186,0.1631040265957383
16.33542,2.421985737131603,0.162495478888642
16.337799999999998,2.442424157618483,0.1617256888567346
16.340204,2.4614195558663865,0.1609679352391474
16.342592,2.483487990047346,0.1600211746906322
16.344967999999998,2.506487589788084,0.1590346412131877
16.347372,2.5347020958351534,0.1577483681815716
16.34976,2.563056371509084,0.1564550600210622
16.352144,2.5868945890109827,0.1553792675891087
16.35454,2.61767027431191,0.1539924605324555
16.356928,2.648725498866558,0.1525479316906319
16.447732,2.6847047153266037,0.1524674982943571
16.450115999999998,2.6947133232008182,0.1523205677412902
16.452496,2.706584262194589,0.1521195289386143
16.454895999999998,2.720177762681058,0.1518825458333746
16.457283999999998,2.7374959254066398,0.1515236646733607
16.459664,2.7556054840651383,0.1511574641616272
16.462068,2.7754376042163345,0.1507725039965801
16.464451999999998,2.8026265010471407,0.1500782377776926
16.466832,2.832469124930421,0.1493157368863216
16.469236,2.8634752317989567,0.1485822189970395
16.471624,2.894341569040632,0.1478558752318193
16.474003999999997,2.933728165947173,0.1468548831879292
16.476399999999998,2.972183597293935,0.1458521058618838
16.478787999999998,3.0152948564395885,0.1446944562653012
16.481168,3.0565437844656858,0.1435934306451433
16.483567999999998,3.0988636476784217,0.142462903148486
16.485955999999998,3.145187712383992,0.1411984174912983
16.488336,3.1902085244774456,0.1399389336151945
16.490731999999998,3.233786314331923,0.1386985583878552
16.493115999999997,3.272428737133789,0.1376937797559078
16.495496,3.312142095122293,0.1366422621023611
16.497899999999998,3.3482705604985443,0.135723099713471
16.500287999999998,3.38132598994174,0.1349428359898062
16.502668,3.4107965267726827,0.1342599724848
16.505063999999997,3.4342607613643747,0.1337740052475608
16.507451999999997,3.455350808157313,0.133317065139986
16.509843999999998,3.470202235285522,0.1330101302092413
16.51224,3.478255964241564,0.1329112834331645
16.514628,3.4836559661451303,0.1328691732239956
16.517007999999997,3.491617147302554,0.1327039354738508
16.519408,3.503350212527334,0.1323648955967144
16.521796,3.5087048884605263,0.1321771465799759
16.524172,3.522487276259968,0.1317142971873688
16.526567999999997,3.535757807380211,0.1312397436421608
16.528955999999997,3.5490283385004537,0.1307596196134478
16.531336,3.56029676887428,0.1303404641776336
16.533735999999998,3.566117975516297,0.1300376811153817
16.53612,3.5716596429045926,0.1297646940833829
16.53852,3.5779927062258072,0.129486691345307
16.540916,3.582323668800605,0.1292646250247661
16.5433,3.5867944010022623,0.1290295258055631
16.545683999999998,3.59126513320392,0.1287966694722563
16.54808,3.5949444694726598,0.1285704860777154
16.550463999999998,3.599275432047456,0.1283516794857091
16.552844,3.6070987394358895,0.1279953122530933
16.555244,3.618506939436576,0.1275739936273067
16.557631999999998,3.633500032049515,0.1270851669743277
16.560012,3.651146851714929,0.1265454096973729
16.562416,3.67079577212676,0.1259504680867853
16.624527999999998,3.5829584070043263,0.1256755356123225
16.629312,3.579280966593457,0.1256738379104249
16.631691999999997,3.580631441033816,0.1256139137264565
16.634092,3.585566808086428,0.1254956521929219
16.63648,3.593016132564655,0.1253504592906729
16.638859999999998,3.6053536022672494,0.1251663685677665
16.641268,3.630215533127545,0.1247105810439569
16.643652,3.662387018839204,0.1241307392036016
16.646031999999998,3.696141296416701,0.1235477603972513
16.648436,3.732689070673533,0.122920847095955
16.650824,3.771890571982839,0.1222592047995995
16.653204,3.820031641837591,0.12140188196006
16.655607999999997,3.86989527318504,0.1205371460415195
16.657995999999997,3.9189675085995694,0.1196826349604165
16.660376,3.973254650320433,0.1187037085577827
16.662779999999998,4.017950597189793,0.1179122078300398
16.665163999999997,4.0609239825664565,0.1171503989335986
16.667544,4.102035036823563,0.1164187221610184
16.669947999999998,4.14794168850642,0.1156110887053857
16.672335999999998,4.191102065338187,0.1147783922564286
16.674716,4.227092656945448,0.1140569981765731
16.677111999999997,4.265457436351461,0.1133268238587837
16.679499999999997,4.299445927212305,0.1126627687069575
16.68188,4.327567885460757,0.1121218684369299
16.684283999999998,4.3553177566568735,0.1115561785067845
16.686667999999997,4.379762274494456,0.1110219769692659
16.689052,4.394196288599955,0.1107004240508071
16.710544,4.326789760532924,0.1106946982677374
16.722503999999997,4.270043466646166,0.110682059767416
16.727283999999997,4.244114392314972,0.110662282163578
16.734448,4.210178810855981,0.1106033722895853
16.736839999999997,4.200077655183148,0.1105484871621978
16.73922,4.192769996189651,0.1104527733069309
16.741616,4.183180697196017,0.1104196751582904
16.744004,4.176245125254857,0.1103570549160316
16.746384,4.17904051779206,0.1101216590045877
16.748787999999998,4.184397089583123,0.1097983913443862
16.751175999999997,4.190265518053382,0.1094956310672355
16.753556,4.193572767269783,0.1092825518548944
16.755959999999998,4.200604678725299,0.1090132091721163
16.763123999999998,4.194228185291581,0.1089038126053676
16.765507999999997,4.194507724545302,0.1088800904464205
16.767892,4.19543889010508,0.1088664830871229
16.772679999999998,4.203632388687982,0.1088251898704219
16.777459999999998,4.210754952084245,0.1088094100934005
16.779847999999998,4.2157828669354735,0.1087757817062546
16.782228,4.225047300705013,0.108710934143052
16.784623999999997,4.238455705594247,0.1085622197054569
16.787011999999997,4.2525157367895385,0.1084242002747186
16.789392,4.272442300597222,0.1081877165134665
16.791795999999998,4.292368864404905,0.1079534247352762
16.794179999999997,4.309362161906391,0.1077763081361916
16.79656,4.3245856760869374,0.1076775874281192
16.798963999999998,4.344092931014039,0.1074886998177755
16.801351999999998,4.361877624448445,0.1073115260814849
16.803732,4.378731152323072,0.1071473658207378
16.806136,4.399868420944253,0.1068959526607522
16.808519999999998,4.428222696618184,0.1064971532175498
16.8109,4.459370468971449,0.1060631943290697
16.813295999999998,4.490378471697854,0.1056462744096966
16.815683999999997,4.519524143304701,0.1052566904104973
16.818068,4.548949354165271,0.1048549162341412
16.820459999999997,4.582238996891813,0.1044000512662976
16.822848,4.616320035551274,0.1039505192092796
16.825232,4.655476210890205,0.103418877712036
16.827631999999998,4.692909824736441,0.1029042348738004
16.830019999999998,4.727689711530204,0.1024171704624475
16.832404,4.757394461644493,0.1020232930094474
16.834799999999998,4.78817014694542,0.1016120311395071
16.837183999999997,4.815081400380374,0.1012596547094053
16.839564,4.843203358628827,0.1008819451698912
16.841972,4.8663899498246685,0.1005748405701998
16.844355999999998,4.893860281767063,0.1001873119181785
16.846736,4.916535016283707,0.0998664201786783
16.84914,4.9402806859869886,0.099523713370735
16.851528,4.965237060503769,0.099153317864468
16.853904,4.984047363154439,0.0988859807087959
16.856303999999998,5.003137205058829,0.0986035091966893
16.858687999999997,5.020504485470522,0.0983329016591538
16.861068,5.038291074762797,0.0980371343769826
16.863476,5.05714859924171,0.0977236160803064
16.865859999999998,5.070139591108233,0.0974859384036293
16.86824,5.08019731666856,0.0972880390030274
16.870644,5.087321775922693,0.0971277725067457
16.873032,5.088719472191295,0.0970331368985642
16.875411999999997,5.0871839021537015,0.0969750902806957
16.877816,5.085927871369828,0.0968980020779864
16.8802,5.085882545399454,0.0967925946216192
16.882579999999997,5.083463031630326,0.0966862171183084
16.884984,5.078389790808723,0.0965972595571252
16.887372,5.071454218867564,0.0965261574240999
16.889751999999998,5.071735653979154,0.0963452057590695
16.892148,5.068292426851631,0.0962002378084065
16.89454,5.065500826030165,0.096065050395807
16.896919999999998,5.059264102223306,0.0959457575080569
16.899324,5.052887608789587,0.0958358581045224
16.901712,5.052657187221978,0.095636317074326
16.904092,5.049633268975035,0.0954630920898892
16.906495999999997,5.047820055541592,0.0952630424067866
16.90888,5.0422821798690345,0.0950966634829055
16.911264,5.03516151233064,0.0949281939619537
16.913656,5.033535290352299,0.0946623383810768
16.916044,5.031257442067901,0.0943858559837404
16.918423999999998,5.033542873783777,0.0940226986201816
16.920828,5.036479931805711,0.0936677308889392
16.923216,5.046494227253533,0.0932202058215767
16.925596,5.053435486768301,0.0928134830820649
16.927992,5.059957437402487,0.0924347977449202
16.930376,5.069133115089148,0.092043100702011
16.932755999999998,5.083895786134479,0.0916037996054815
16.93516,5.097447752366312,0.0911907238043235
16.937548,5.102851545985617,0.0908883363566482
16.939928,5.108115569978063,0.0905940902784033
16.942332,5.115009607664587,0.0902470875827008
16.944716,5.12735086908292,0.0898610848185771
16.947096,5.1387609649414765,0.0894844790160236
16.949503999999997,5.141371261881447,0.0892057095176426
16.951888,5.143562249940836,0.0889536545366732
16.954268,5.14854673467956,0.0886819917085464
16.956671999999998,5.158187047217176,0.0883741541429797
16.959059999999997,5.166988741993631,0.0881195781947179
16.96144,5.174160423076006,0.0879203812862631
16.963843999999998,5.180121399344882,0.0877456940659665
16.966231999999998,5.183660965986761,0.0876237337463689
16.968612,5.190413338188557,0.0874538956118751
16.971016,5.1908798688973805,0.0873719705322654
16.973404,5.199215032965011,0.0872085000385469
16.975783999999997,5.208109275540084,0.0870100391633849
16.97818,5.215792813301657,0.0868377247797927
16.980563999999998,5.2229644943840325,0.0866488344111067
16.982944,5.22948454916035,0.0864482146510499
16.985339999999997,5.242150675802778,0.0861722523422473
16.987727999999997,5.257098442445343,0.085857745020839
16.990108,5.269485029834051,0.0856008995599596
16.992504,5.282802782782538,0.0853411816554861
16.994892,5.295189370171245,0.0850878049494302
16.997272,5.317167152411456,0.0847540233366559
16.999668,5.343288905771361,0.0843712222441974
17.002052,5.363404356892016,0.0840549915786074
17.004436,5.375371635400143,0.0838298233922405
17.00684,5.391110797975626,0.0835268967047993
17.009228,5.402985528685137,0.083255953711316
17.011608,5.421006331260758,0.0829160078222069
17.014011999999997,5.434091766783768,0.0826220880672445
17.016399999999997,5.443173000813943,0.0823707013608128
17.01878,5.455467040404034,0.0820746007892832
17.021175999999997,5.460032216262178,0.0818467087792399
17.023564,5.4661801839861575,0.081625241704375
17.02594,5.4686034894710245,0.0814269357515886
17.028343999999997,5.46474095346292,0.0813068344171853
17.030732,5.465254705999986,0.0811741113407033
17.033112,5.464278214469834,0.0810818314279354
17.035508,5.461299622193266,0.0810095718565452
17.037896,5.459531734730194,0.0809145371913741
17.04028,5.455249889841511,0.0808201790573761
17.042672,5.456182951259158,0.0806651003621352
17.045064,5.4521806456241935,0.0805549075043877
17.047444,5.4455246129367545,0.0804526385506851
17.04984,5.441010450622592,0.0803231138004206
17.052228,5.445994935361316,0.0800805191938967
17.054607999999998,5.448558010473042,0.0798822630827176
17.057004,5.455265056704463,0.0796381177299259
17.059392,5.457828131816192,0.0794410916844277
17.061771999999998,5.469470545100223,0.079159441751088
17.064176,5.487259030250367,0.0788182687780655
17.06656,5.507049616146928,0.0784640823227844
17.068944,5.533498130588797,0.0780705209431148
17.071348,5.559015479470888,0.0776851606137525
17.073736,5.590399360965368,0.0772568941624367
17.07612,5.629651875818658,0.0767679565579608
17.078516,5.6661108939926095,0.0762963411710166
17.080904,5.702849451420284,0.0758111918500875
17.083288,5.745035232579767,0.0753126887036475
17.085683999999997,5.7870812441123896,0.0748226369155452
17.088072,5.829639112324211,0.0743544781927469
17.090452,5.864420894975841,0.0739884578542735
17.092855999999998,5.898411281694553,0.0736188242029654
17.095243999999997,5.932773755465604,0.0732775230645335
17.097624,5.969650186662268,0.072942097859737
17.100019999999997,6.004105208231935,0.0726531565187623
17.102407999999997,6.038699999428463,0.0723571823265276
17.154956,6.118219263204087,0.072142128603374
17.157359999999997,6.120268585778748,0.0720815021368515
17.159744,6.120455577233851,0.0720279135158431
17.162124,6.122784439062231,0.0719527569244014
17.164527999999997,6.124461674584554,0.0718666778693318
17.166915999999997,6.13177312529379,0.07171324615065
17.169296,6.140295280816526,0.0715425751820345
17.171704,6.152309781152896,0.071326725887254
17.174087999999998,6.166466151862544,0.0710914800302184
17.176468,6.177689256265995,0.0708735872319308
17.178867999999998,6.190542374363528,0.0706170840668847
17.181255999999998,6.204326658020837,0.0703608202069488
17.183636,6.219461416118506,0.0700805056459946
17.18604,6.234084317536976,0.0697854836691837
17.188428,6.253270498955721,0.0694404528075827
17.190807999999997,6.274878090001463,0.0690630756474492
17.193203999999998,6.300629652166901,0.0686542404825093
17.195591999999998,6.324798422466502,0.068236067616267
17.197972,6.351900459072298,0.0678055387712444
17.200367999999997,6.378862726051233,0.0673867244229072
17.202755999999997,6.410108733776723,0.0669326480409253
17.205136,6.4376300792631005,0.0664949659076498
17.207539999999998,6.4655707336300585,0.0660367381623198
17.209927999999998,6.494722092810514,0.0655647960028518
17.212308,6.525363696058189,0.0650650818186286
17.214707999999998,6.551721558559311,0.0646061968838163
17.217095999999998,6.576217089940876,0.064153659805304
17.219476,6.599501916508942,0.0637209499533243
17.221871999999998,6.618642771957314,0.0633182584427039
17.224256,6.64178782889852,0.0628944163803598
17.226636,6.66172008027981,0.0624966709993461
17.229032,6.67578579904871,0.0621264031978804
17.23142,6.690503144123668,0.0617685602519088
17.2338,6.7025195403179065,0.0614550913955595
17.2362,6.701964253526205,0.0612309279768005
17.238584,6.700058492294144,0.0610289735989882
17.240983999999997,6.697221565502304,0.0608299564422775
17.24338,6.697457674643519,0.0606119527284612
17.245767999999998,6.693037955985843,0.060403835885969
17.248148,6.685824740648833,0.0602014940789847
17.250548,6.6746073238189885,0.0600194165439998
17.252936,6.662039432548784,0.059857925969987
17.255319999999998,6.6491920020248605,0.0597085685993287
17.257716,6.636204801874076,0.0595655062325279
17.260104,6.624381084708547,0.0594509749239217
17.262483999999997,6.614559468289436,0.0593266665366733
17.264879999999998,6.605669017430103,0.059200396057068
17.267267999999998,6.594636696197492,0.0590897692903338
17.269648,6.587888115711436,0.0589474841581443
17.272043999999998,6.581930931158298,0.0588108084337651
17.274431999999997,6.580629574404051,0.0586668591180119
17.276812,6.581050779142501,0.0585256284003628
17.279215999999998,6.582822458321309,0.0583649372889485
17.281603999999998,6.5859446119404765,0.0581838376744288
17.283984,6.602290074851644,0.0579335046275819
17.286388,6.616912976270115,0.0576794209399862
17.288776,6.62832307212867,0.0574485430344209
17.291155999999997,6.63759129761395,0.0572335293327451
17.293556,6.646579983845507,0.057030210434179
17.295939999999998,6.658362166756401,0.0568239512513875
17.29832,6.668933644853795,0.0566310255000276
17.30072,6.681646993324466,0.0564232283889311
17.303107999999998,6.697293608101332,0.0562063092760677
17.305488,6.712009057318421,0.0559916582140051
17.307892,6.722068678736617,0.0557824841555464
17.31028,6.732407839408536,0.0555621830480204
17.312659999999997,6.741815834520675,0.0553431970232097
17.315064,6.75336570000609,0.0551098200016216
17.317452,6.765706961424423,0.0548844803711745
17.319836,6.771390294297449,0.0546721370676534
17.322228,6.778563871237693,0.0544363450646966
17.324616,6.789090023364713,0.0541742345385244
17.326999999999998,6.798265701051375,0.0539330835270367
17.329396,6.812376745790648,0.0536786076506392
17.331784,6.820621257917531,0.0534426815391302
17.334163999999998,6.832590432283527,0.0532046465838579
17.336564,6.8456305418361625,0.0529591092185497
17.338952,6.859089960269379,0.0526956484388631
17.341331999999998,6.8786954505687055,0.0524061564572014
17.343728,6.89350534344228,0.0521257198444831
17.346116,6.910596876315992,0.0518259820821697
17.348495999999997,6.926897013256786,0.0515222119392798
17.3509,6.940263883891385,0.0512268275313184
17.353288,6.950417948966067,0.0509497288611776
17.355672,6.963645049973806,0.0506584308596338
