Time,Force,Position
16.358944,1.7256871851120144,0.1755704093864684
16.361344000000003,1.792205977731771,0.1736265309495846
16.363732,1.8554666388212384,0.171876809206295
16.366115999999998,1.915608938007276,0.1699348468563978
16.368512000000003,1.969327521931352,0.1682080864880527
16.3709,2.0234200887656346,0.1661332742297569
16.411535999999998,2.17762320587588,0.165096886909777
16.413919999999997,2.184046921137841,0.1650354571657996
16.421084,2.1963352731543253,0.165005861032074
16.423464000000003,2.201875044684752,0.1648637142924793
16.428247999999996,2.216492258529615,0.16454056686988
16.430628,2.230644837523524,0.1640566015130771
16.433031999999997,2.2508037187566834,0.1632003515939254
16.43542,2.27310447036312,0.1621667200300662
16.437799999999996,2.292844042715699,0.1613620789549865
16.440196,2.3135147806280565,0.1605321192453266
16.442583999999997,2.3321834177939964,0.1598337217284336
16.444964,2.3531336949600745,0.1589788983570362
16.447367999999997,2.3683572091406213,0.1584310398805497
16.449756,2.3835807233211685,0.1578996647180055
16.452135999999996,2.397873071941938,0.1574262961497576
16.454532,2.411374024629789,0.1569865766231934
16.456916,2.4308812795568904,0.1562326783586015
16.459296000000002,2.449038060043633,0.1555783946819306
16.461692,2.4627713301569614,0.1552340824561105
16.464080000000003,2.481160428069181,0.1547025327297993
16.466476,2.499409756354541,0.1541855989683357
16.468871999999998,2.5128634872141493,0.1538769047708804
16.47126,2.5264569877006178,0.1535605319751141
16.473639999999996,2.541540732254304,0.1531344613034291
16.476036,2.5644931101667985,0.152338629950967
16.478423999999997,2.5815789554669024,0.1518347940935114
16.480804,2.597593865580368,0.151402486936159
16.483199999999997,2.617473207559808,0.1508210037549274
16.485588,2.6391223328601865,0.1500763083305108
16.487968000000002,2.656907026294592,0.1494933396187454
16.490372,2.676833590102274,0.1488074943960029
16.492759999999997,2.6958289883501774,0.1481744350400106
16.49514,2.7168264873444983,0.1474359764198725
16.497543999999998,2.734750950405764,0.1468415689763237
16.499927999999997,2.7556086797732235,0.146148361217663
16.502311999999996,2.774324538767408,0.1455631660812757
16.504711999999998,2.7873136347760603,0.1452071101993264
16.5071,2.8053778674641867,0.1446331784220789
16.509484,2.8225109345925343,0.1440900109533789
16.511879999999998,2.8348484042951294,0.1437375279130925
16.514263999999997,2.8469063347440047,0.1434169154198866
16.516647999999996,2.869905934484742,0.1426528584743661
16.519044,2.889413189411844,0.1420824519435184
16.521431999999997,2.9044969339655307,0.1417421851693547
16.523812,2.913993685160548,0.1415983029284253
16.526212,2.925632306728842,0.1413550193539797
16.528599999999997,2.9380623242300548,0.1411051375091207
16.53098,2.9464881402384333,0.1410173292056025
16.53338,2.95542581292601,0.1409575678308008
16.535767999999997,2.9692988526661983,0.1407173465508859
16.538148,2.98116979165997,0.1405575125682283
16.540551999999998,2.9915504865865232,0.1404979505232149
16.54294,3.005935383005909,0.1402960781227729
16.545324,3.0236728546120712,0.139939882700596
16.547719999999998,3.0354040239789826,0.1398063318485164
16.550108,3.0480663589056727,0.1396419449875031
16.552492,3.063242651257977,0.1394249778334729
16.554888,3.0726921806247507,0.1393962367967893
16.557271999999998,3.082281479618385,0.1393482201512031
16.559655999999997,3.094943814545075,0.1391823337209721
16.600284000000002,3.204333965453531,0.1389798893636894
16.602663999999997,3.209733967357098,0.1389291525556777
16.609828,3.2185318704178134,0.1388971026272616
16.612232,3.2227683893361245,0.1388180941406328
16.614620000000002,3.2279360738142144,0.138716107008129
16.616999999999997,3.2313811967996062,0.1386492280760486
16.6194,3.2352456286655804,0.1385366510183003
16.621788000000002,3.2451163627708044,0.1382336815631304
16.624167999999997,3.258060132809084,0.1378190823280545
16.626571999999996,3.2730060035937805,0.1373450011525286
16.62896,3.287532565497896,0.136919488429434
16.63134,3.300336565909316,0.1365216856913824
16.633739999999996,3.3123491703878165,0.1361296868709466
16.636124000000002,3.3209166518809248,0.1357969143008265
16.638508,3.3319055430010303,0.1353379864134305
16.640904,3.3391697718820224,0.1349833621631588
16.643292000000002,3.344431900016598,0.1346977531715644
16.645671999999998,3.3498337977780337,0.1343985946435577
16.648068000000002,3.3510917244197755,0.1342521716310342
16.650456,3.3544915214347943,0.1340250735355056
16.652839999999998,3.359334340688789,0.133797006324438
16.655236000000002,3.3652480951294232,0.1335296119956268
16.65762,3.36915974882364,0.1333277556933409
16.660004,3.373211172144716,0.1331119609353476
16.662399999999998,3.375400264346237,0.1329461742567763
16.664788,3.3794516876673137,0.1327350240253145
16.667167999999997,3.380430075055335,0.1326260890850751
16.669564,3.378614965764021,0.1325866053299599
16.671951999999997,3.3798728924057637,0.1324506622374388
16.674332,3.3803394231145867,0.1323229789150764
16.676732,3.3838789897564663,0.1321032325009944
16.679119999999998,3.3902120530776805,0.1318187009105507
16.681516000000002,3.3985472171453117,0.1314771185466429
16.683912,3.414471475318029,0.1309506457804103
16.686300000000003,3.4330494605432222,0.1303784674649235
16.688684000000002,3.454281172820889,0.1297531340424139
16.69108,3.475233345844836,0.1291495383778223
16.74364,3.51410429435644,0.1288115830519738
16.74602,3.513592437677243,0.1287887373826882
16.748424,3.5165729258116816,0.1286403664978535
16.750811999999996,3.5223469106254552,0.1284341339070985
16.753192,3.52718972987945,0.1282490454432419
16.755595999999997,3.536408837678616,0.1279959095165053
16.757979999999996,3.5485612117839773,0.1276700823232868
16.760364000000003,3.5636468521955336,0.1272704926779962
16.76276,3.5827366940999235,0.1267592659063396
16.765147999999996,3.6036888671238714,0.1262016206650106
16.767528,3.62971617682729,0.1255119635807838
16.769923999999996,3.65439301209035,0.124877878889072
16.772312,3.685727775898718,0.1240842782161974
16.774692,3.7150604389606703,0.1233439793657963
16.777088,3.7454640372092607,0.1225814515411004
16.779476000000003,3.7731666865771327,0.1219497176630873
16.78186,3.79807583926567,0.1213817563383606
16.784256,3.822565683073627,0.1208568039559632
16.786644000000003,3.842352477254449,0.120509240309178
16.789023999999998,3.862139271435271,0.1201654015178936
16.791420000000002,3.8780616337501193,0.1199127414117197
16.800976,3.915629329649609,0.1197336478614337
16.803371999999996,3.9238228282325096,0.1196657244226783
16.805768,3.9329474923751895,0.1195823160841299
16.808152,3.944074257264286,0.1194553280690031
16.810532000000002,3.95748266215352,0.1192619022199961
16.812939999999998,3.972381311109973,0.1190037159864645
16.815323999999997,3.981273657827176,0.118881970518295
16.817704,3.993518579731153,0.1186622004461764
16.820099999999996,4.003109774582657,0.1184805303190978
16.822488,4.015634235740356,0.1182398662654307
16.824868000000002,4.024014725778362,0.1180987761408579
16.827272,4.036027330256863,0.1178392909258634
16.829659999999997,4.0496227266012,0.1175734141528724
16.83204,4.064428827759036,0.1172686334730072
16.834435999999997,4.079282150745116,0.1168884503075021
16.836824,4.091202207425,0.1165660958808537
16.839208,4.1075457744782975,0.1161235180361931
16.841603999999997,4.122818406344957,0.1157098052713629
16.843987999999996,4.137159872651838,0.1153090419606283
16.846372000000002,4.158578576384609,0.1147524559047344
16.848768,4.180928445677158,0.1141866311734227
16.851152,4.20071713571585,0.1137221920508073
16.853532,4.219574660194763,0.1132777634313678
16.855932000000003,4.234567752807702,0.1129076805965944
16.858316000000002,4.246208270233866,0.1126327893097808
16.860712,4.257569248406309,0.1123848945985488
16.863115999999998,4.272003262511808,0.112070217224008
16.865504,4.282712614378193,0.1118128459249447
16.867883999999997,4.293421966244578,0.1115562305624898
16.87028,4.303619461431766,0.1112824408012016
16.872672,4.315027661432452,0.1109677857604192
16.875051999999997,4.322152120686584,0.1107576334753966
16.877448,4.327693788074881,0.1105518266666769
16.879835999999997,4.333887081769234,0.1103573078401327
16.882219999999997,4.348181326247873,0.1100705118490892
16.884619999999998,4.367830246659704,0.1096640179492164
16.887008,4.383707283004178,0.1093797861523197
16.889387999999997,4.404519686401264,0.1090153550460824
16.891784,4.425751398678932,0.1086154188603049
16.894171999999998,4.441907974277126,0.1083173274303871
16.896552,4.456202218755765,0.1080461041133501
16.898947999999997,4.4697050673014855,0.107776794357717
16.901336,4.4822767502874274,0.107520690795665
16.903715999999996,4.496570994766066,0.1072505081664338
16.906112,4.510073843311787,0.1069803734004931
16.908499999999997,4.519292951110953,0.1068017409505367
16.91088,4.529955081149096,0.1066333883133061
16.91328,4.546204204545907,0.1063936991655176
16.915664,4.560730766450023,0.1061671176201548
16.918048,4.575489645779616,0.1059854889678042
16.920443999999996,4.59532366178868,0.1057159627148555
16.922832,4.614366281864827,0.1054438948003161
16.925212000000002,4.635922859366588,0.1051584822783959
16.927608,4.656036414629375,0.1048675096991701
16.929996000000003,4.666838314294377,0.1046980088296777
16.932375999999998,4.673728560265162,0.1046487161320548
16.934772000000002,4.684390690303304,0.104493553015638
16.93716,4.686812099930302,0.1044297312550555
16.939543999999998,4.691467927729194,0.1043742584630208
16.941940000000002,4.703852619260033,0.1042134867254162
16.944328,4.713863122992117,0.1040536548737171
16.946711999999998,4.723873626724201,0.1038938230220181
16.949108000000003,4.736026000829562,0.1036937020696939
16.951496,4.747806287882586,0.1034648277546046
16.953876,4.7623800716149445,0.103204802753152
16.956276000000003,4.788314833519747,0.102754696278722
16.958664,4.810572155013679,0.1022896090256063
16.961044,4.8271027135220805,0.1018990676360923
16.963444000000003,4.846938625389015,0.1014980993082895
16.965828000000002,4.862817557591359,0.1010976329539322
16.968212,4.871619252367814,0.1008094050731163
16.970608,4.882423047890685,0.1004897612827725
16.972996000000002,4.891783821174581,0.1001624452046445
16.975375999999997,4.89914249371206,0.0998643404109475
16.977772,4.91143653330215,0.0994966399919203
16.980159999999998,4.92084452841429,0.099104940178526
16.982543999999997,4.922755977219959,0.0988542514091667
16.984955999999997,4.927321153078102,0.0985804328340249
16.987344,4.928069118898516,0.0982970084147926
16.989724000000002,4.9204365946809245,0.0981068932615484
16.992123999999997,4.9150384886352265,0.0979259570315462
16.994512,4.908197360350553,0.0977342658848558
16.996907999999998,4.896560634640129,0.0976024860886773
17.006467999999998,4.81760803280342,0.0975041804586276
17.008856,4.797823134480467,0.0974933165203978
17.01124,4.780319876157653,0.0974321728889004
17.013635999999998,4.766121971193369,0.0973629201121357
17.016024,4.755136871789001,0.0972363843561006
17.018408,4.746153873131052,0.0970812548195152
17.020804,4.7382418096597405,0.0969068293732905
17.023192,4.73526511324104,0.0966682731589894
17.025571999999997,4.728004676075786,0.0965038760895892
17.027972,4.727262397828981,0.0962772047996425
17.03036,4.730152234022671,0.0959627874865272
17.032739999999997,4.736766732455475,0.095614402646054
17.035136,4.748409145739507,0.0952528311482468
17.037523999999998,4.755767818276985,0.094959826880926
17.039907999999997,4.763266260441325,0.0946567038044577
17.042312000000003,4.77206795521778,0.0943739808944475
17.0447,4.786596412979765,0.0940276169391808
17.04708,4.802987201861307,0.0936639283732878
17.049480000000003,4.82403381854174,0.0932593217701456
17.051868,4.844521356714732,0.0928886608907404
17.054248,4.864217498954806,0.0925187695876069
17.056644,4.882702936381381,0.0921826768409776
17.059032000000002,4.895321841195567,0.0919213277422785
17.061416,4.907289119703694,0.0916505282007856
17.063812,4.920047794144739,0.0913825720113895
17.066200000000002,4.9305248285856464,0.0911622232819908
17.068579999999997,4.938580453399558,0.0909977107371918
17.070976,4.942492107093775,0.0908964314417206
17.073363999999998,4.951478897467463,0.0907258678871799
17.075747999999997,4.955390551161679,0.0906253102282725
17.078151999999996,4.9627473278412895,0.090512551914724
17.08054,4.970243874147759,0.0903929304238807
17.082924,4.975878089334673,0.0902899659569407
17.085319999999996,4.9944560745598645,0.0900333183291063
17.087708,5.012382433478999,0.0897658810509591
17.090092,5.035663468331326,0.0894205255935426
17.092487999999996,5.054009136131041,0.0891322502375139
17.094876,5.077429940610228,0.0887889963385926
17.097256,5.097498169902641,0.0885060558703406
17.099655999999996,5.122129679195328,0.088141772938078
17.102044,5.147692354047791,0.0877725441708398
17.104424,5.1741861944600345,0.087400485709088
17.106823999999996,5.202542365991834,0.0870126022708165
17.109208000000002,5.23248132938947,0.0866319466106713
17.111592,5.26628472465308,0.0862240421371849
17.113988,5.302509529543686,0.0857718734247171
17.116376000000002,5.340876204807569,0.0852891464185124
17.11876,5.380034276004372,0.0848063875884326
17.121156,5.413046275335063,0.0843982084126879
17.123544000000003,5.4531355120916425,0.0839143629053643
17.125928000000002,5.488429151422471,0.083473756206963
17.128324,5.514783222207853,0.0831229139430108
17.130712000000003,5.538343796313901,0.082790703592828
17.133091999999998,5.55482713299406,0.0825442368227191
17.135488000000002,5.574103966353554,0.0822811205931892
17.137876,5.5860240230334375,0.0821137164028923
17.140256,5.601808511579295,0.0819139157172036
17.142656000000002,5.608373892325986,0.0818198894456429
17.145044,5.614287646766618,0.0817148931191963
17.147424,5.620201401207252,0.0816115486640283
17.14982,5.625183990088106,0.0815144123192477
17.152208,5.62551075117007,0.0814459123857041
17.154592,5.626256821132616,0.0813527731804814
17.156988,5.625420099229323,0.0812548669547975
17.15938,5.616854513594084,0.081217983013515
17.16176,5.606007287958709,0.0812159959336752
17.164156,5.59702239344289,0.0812025635344335
17.166548,5.587385872621012,0.0811784460479066
17.168928,5.585106128478744,0.0810684228130822
17.171324,5.575888916537448,0.0810194883226104
17.173712000000002,5.571607071648763,0.0809284244320231
17.176096,5.578266896051941,0.0807401559025076
17.178492,5.59000185713459,0.0805030691023888
17.180884,5.598803551911046,0.0802879197284878
17.183264,5.6063945418740015,0.0800954449305956
17.18566,5.618269272583511,0.0798506301123826
17.188052,5.631214938479659,0.0795961054802709
17.190432,5.647373409935724,0.079300741374811
17.192832000000003,5.665394212511344,0.0789958351438117
17.19522,5.680993605459967,0.0787343863889203
17.197604,5.695382293595092,0.0784931645115356
17.199999999999996,5.7133558743424695,0.0782389380242625
17.202388,5.731981081395905,0.0779973254017576
17.204772,5.748324648449203,0.0777886027561707
17.207172,5.770394978488032,0.0775424338956481
17.209556,5.793815782967221,0.077269370061171
17.211936,5.814443090767074,0.0770135353962668
17.214335999999996,5.842007866365955,0.0767060851974046
17.216720000000002,5.864357735658504,0.0764563505059283
17.219116,5.889361332003528,0.0761995011892
17.221508,5.9095693309228,0.0759749817309833
17.223892,5.923910797229682,0.0757956853262474
17.226272,5.936250162790145,0.0756352448934273
17.228676,5.953385125776362,0.0754449585954878
17.231063999999996,5.97559522544205,0.0752148517808424
17.233444,5.993661353988045,0.0750243148854951
17.235844,6.005721180294789,0.0748815538995641
17.238231999999996,6.015778905855116,0.0747542310778169
17.240612,6.02876989772164,0.0746090054451699
17.243015999999997,6.0400383280954655,0.0744638099217349
17.245404,6.054519564029207,0.0742845186743358
17.247783999999996,6.069000799962949,0.0741059769874802
17.250188,6.085484136643108,0.0739142210362272
17.252572,6.10625121406982,0.0736776971718111
17.254951999999996,6.122362463697639,0.0734620496783691
17.257356,6.137263008511962,0.0732662406236997
17.25974,6.149090517393229,0.0730956268056746
17.262119999999996,6.153840788848608,0.0729829744673397
17.264516,6.158591060303985,0.0728699199626881
17.266903999999997,6.165902511013222,0.0727144199032696
17.269284,6.17707839358843,0.072537232935531
17.271687999999997,6.1921187080296125,0.0723394113989217
17.274076,6.203015051351102,0.0721772646307007
17.276455999999996,6.216752113180169,0.071961401829902
17.27886,6.220758210530872,0.0718027909315022
17.281244,6.231329688628264,0.0715756417659374
17.283623999999996,6.244974202658715,0.07132291565056
17.286028,6.26169175262222,0.0710457741563293
17.288415999999998,6.272682539600195,0.0707976078172049
17.290796,6.288888232884504,0.0705060088912989
17.293196000000002,6.304302530235892,0.0702134438205903
17.295583999999998,6.3161319349750285,0.0699260650265453
17.297964,6.321955037474916,0.0696790878781441
17.300359999999998,6.323494399228246,0.0694729359752305
17.302748,6.327967027287772,0.0692502095645545
17.305124,6.329226849787384,0.0690569210954943
17.307527999999998,6.335981117847049,0.0688057485881864
17.309916,6.342735385906713,0.0685537590337014
17.312295999999996,6.3525626898994325,0.0682789493621259
17.314700000000002,6.357314857212678,0.0680418566523253
17.317084,6.358062823033092,0.0678311818550968
17.319463999999996,6.353084025867976,0.0676458110518847
17.321863999999998,6.352388969449414,0.0674199161171032
17.324247999999997,6.345128532284159,0.0672610683680363
17.326631999999996,6.342012066238598,0.0670686587200801
17.329028,6.332330219446347,0.0669424763349523
17.331412,6.322788142280956,0.0668091402622404
17.333796,6.315387935488841,0.0666568042226971
17.336191999999997,6.309850059816284,0.0664985422993356
17.338575999999996,6.297234946717839,0.0663862725770757
17.340960000000003,6.282338193619253,0.0662995690591424
17.343356,6.272376807573282,0.0661853987466171
17.34574,6.265628227087225,0.0660421921661558
17.34812,6.264094552907502,0.0658585641583105
17.350535999999998,6.262700648354638,0.0656687479814177
17.352919999999997,6.267872124548465,0.0654161550941011
17.3553,6.269411486301797,0.0652126152711178
17.357704,6.272301322495488,0.0649860997447018
17.360092,6.272677201263563,0.0647539576650256
17.362471999999997,6.273984245591417,0.064518532490973
17.364876000000002,6.278364325852328,0.0642622088893664
17.367264,6.288471169098767,0.0639854203876559
17.369644,6.298298473091486,0.0637237269079428
17.37204,6.309056942643983,0.0634584749451401
17.374423999999998,6.317673541823204,0.0632112154160609
17.376804,6.327640615442784,0.0629401243951753
17.379208,6.339749559435641,0.062652901034498
17.381596000000002,6.343850100442831,0.0624101120349492
17.383975999999997,6.34823018070374,0.0621541289134058
17.386380000000003,6.359407959136819,0.0618695702203284
17.388764000000002,6.373798543129812,0.061559417940363
17.391143999999997,6.387118191936168,0.061260627422287
17.393548000000003,6.401369006302301,0.0609611711647721
17.395932000000002,6.415759590295295,0.0606594245093562
17.398316,6.427868534288152,0.0603818582611473
17.400716000000003,6.437695838280872,0.0601304668400055
17.403104,6.449944551900589,0.0598497119760848
17.405484,6.461122330333668,0.059577674165713
17.40788,6.470670095072668,0.0593394202073971
17.410268000000002,6.482359730184943,0.0590853948675372
17.412652,6.492187034177662,0.0588352245718791
17.415048,6.498289675931268,0.0585925477995052
17.417431999999998,6.504532087311734,0.0583444396005359
17.419812,6.514127073878975,0.0580669224084523
17.422207999999998,6.527446722685331,0.0577839675968847
17.424596,6.541557767424605,0.0575062125999591
17.426975999999996,6.55324740253688,0.0572585896740784
17.429372,6.57452823250066,0.0569849032102425
17.431759999999997,6.598462789516915,0.05671631974443
17.434156,6.620535015413612,0.0564530756885082
17.43656,6.639673975004115,0.0562014910920623
17.438947999999996,6.658812934594617,0.0559516089208986
17.441328,6.678883059744899,0.05570267824768
