Time,Force,Position
15.819652,1.8180218846680016,0.1697249802028177
15.822036,1.8752290216899756,0.1685897121299164
15.824415999999998,1.9280145441964036,0.1675289857522004
15.82682,1.9740968121871496,0.166798870414063
15.829204,2.014826300102572,0.1661015432201381
15.831583999999998,2.0529965046220062,0.1652823323411136
15.833988,2.0856269376110137,0.1647356141107695
15.836376,2.1162099438832302,0.1641010188513757
15.838755999999998,2.1418122571324614,0.1635976441009778
15.84116,2.160431776612289,0.1633195922797936
15.843548,2.176444790867885,0.1630478506523992
15.845928,2.1869180335930545,0.1629627730208335
15.848331999999996,2.1979503548256654,0.1627889643790865
15.85072,2.2160599134841643,0.1621987126230624
15.8531,2.231655514717049,0.1616924851270698
15.855503999999998,2.2455285544572376,0.1612711783805193
15.857891999999998,2.256887636771812,0.1609441267680519
15.860272,2.268898345392444,0.1606362001833793
15.862676,2.2817004499459936,0.1602934681037434
15.865059999999998,2.291289748939628,0.1601599546415811
15.867444,2.3018102134930407,0.1599829886761234
15.869839999999998,2.3191283762186226,0.1594256547035402
15.872223999999996,2.3340251293172063,0.1590508252575651
15.874608,2.3507842135353463,0.1585901942108988
15.877003999999998,2.369964707380485,0.1579522308026542
15.879388,2.386351704546288,0.1574543655612963
15.881772,2.399433348353558,0.1570452986331723
15.884171999999998,2.409069869175436,0.1567731752300392
15.886559999999998,2.418194533318115,0.1564807471732146
15.910436,2.460784456495226,0.1564428029804966
15.912839999999996,2.4671156239585708,0.1563034450692369
15.915227999999995,2.474005869929357,0.1560797587253319
15.917608,2.481315424780723,0.1557990249113203
15.920004,2.4943989644458626,0.1551670307033831
15.922388,2.505759942618305,0.1545942016237847
15.924772,2.516841381537028,0.1540798957706184
15.927168,2.526712115642252,0.1536319966699041
15.929552,2.540307511986589,0.1530269834268508
15.931936,2.554554534636985,0.1524203035549144
15.93434,2.5674510828470214,0.151918598569837
15.936728,2.57955623512414,0.1514445247274256
15.939112,2.592872092214757,0.1508902728357658
15.941508,2.607258884492012,0.1502776643787086
15.943896,2.6276519790085184,0.1494009307665596
15.946276,2.647113907965246,0.1485507333989096
15.948676,2.6639221098694987,0.1477958522851536
15.95106,2.682592642893308,0.1469536060657684
15.953444,2.703125507036675,0.1460495224277492
15.955847999999998,2.720305795993265,0.1453304754584795
15.958235999999998,2.735763523457159,0.1446860759577749
15.974944,2.76927979603557,0.1443450955872667
15.977344,2.7765421290586936,0.144213698449257
15.979732,2.78780866357465,0.1439227472910986
15.982112,2.8024277732773824,0.1434701815834591
15.984508,2.816115717420337,0.143053460637106
15.986896,2.830315518242489,0.1426667939461336
15.989288,2.8446550886915016,0.1422658133058632
15.991692,2.8529883569012635,0.1421041324882308
15.99408,2.862252790670804,0.1419105378549802
15.996456,2.8720290811195417,0.1417406535523181
15.99886,2.881013975635361,0.1415797804414033
16.001247999999997,2.8898591005243204,0.1414422699016524
16.003628,2.9029879661598343,0.1411124184244652
16.006023999999996,2.91369542216835,0.1409149556243011
16.008407999999996,2.926404978923283,0.1406412397305538
16.010784,2.942327341238132,0.1402175772447151
16.013188,2.962533444299534,0.139604786493115
16.015575999999996,2.985021187361074,0.1388841727797655
16.017952,3.005506829676197,0.1382394730804253
16.020359999999997,3.0257129327376,0.1376315153805435
16.022743999999996,3.0468502013587804,0.1370141671748918
16.025123999999998,3.0617016284869907,0.1366620033926827
16.03946,3.0958223055432166,0.1365848220153209
16.041863999999997,3.102013703379701,0.1365245866402477
16.044252,3.110346971589463,0.136376672341585
16.046632000000002,3.122404902038338,0.1361246020230964
16.049028,3.1326005013676568,0.1359274209905853
16.051412,3.141725165510337,0.1357779229965293
16.053792,3.154062635212932,0.1355011233244012
16.056199999999997,3.1670517312215853,0.1352376460325393
16.058583999999996,3.182834323909573,0.1349089071106101
16.060964,3.1947524847315885,0.1346989756044897
16.063367999999997,3.205320171113244,0.1345649345369596
16.065751999999996,3.2217543901072903,0.1342630849979673
16.068132,3.23632627798178,0.1340030173770423
16.070535999999997,3.247964899550074,0.1338336644508269
16.072919999999996,3.262816326678284,0.1335420072533977
16.0753,3.2839535952994647,0.1330285151107126
16.077703999999997,3.3058822598535644,0.1325088706330106
16.080092,3.3256690540343863,0.1320587433898604
16.082468,3.343313977841931,0.1316918933886442
16.084868,3.360307275343418,0.1313193787846378
16.087252,3.382887566203575,0.1308091685105962
16.089632,3.408261353743067,0.1302471487876495
16.092039999999997,3.4325642060959205,0.1297316420263569
16.094423999999997,3.456215432142716,0.1292251491193089
16.096807999999996,3.4790752622565937,0.1287214700025463
16.099204,3.501935092370471,0.128223395024376
16.101588,3.5227928217379314,0.127790211078478
16.103968000000002,3.5389947233065,0.1274611411377319
16.106364,3.548678465956621,0.1272847283381917
16.108751999999996,3.5620868708458557,0.1270252656048232
16.111148,3.5729813183094747,0.1267975935603088
16.113543999999997,3.578288772414424,0.1267015965470608
16.115927999999997,3.5894627591317643,0.1264532188332812
16.118308,3.603058155476101,0.1261095573186246
16.120703999999996,3.617724487007077,0.1257370406253546
16.123092,3.628107077791499,0.1255057198571557
16.125476,3.636627337456365,0.1253131000751713
16.178052,3.614702464618002,0.1252887896314201
16.180436,3.614982003871723,0.1252613232488358
16.18282,3.616192708685222,0.125215155537402
16.185223999999998,3.630347183537,0.1248421212975964
16.187607999999997,3.647434924694974,0.1243975614437459
16.189988,3.668806406599501,0.1238143963366829
16.192383999999997,3.686592995891776,0.1232950565572239
16.194772,3.7013065492509942,0.1228643959257632
16.197156,3.716811498543132,0.1224298537388401
16.199559999999998,3.726170375969158,0.1221638762428882
16.201943999999997,3.730174577461992,0.1220604610723023
16.204327999999997,3.735249714141464,0.1219233822615707
16.206724,3.743258117127132,0.1217183290455395
16.209111999999998,3.751266520112799,0.1215132758295084
16.211492,3.761137254218023,0.1212707232171172
16.213896,3.7724982323904666,0.1209526962987263
16.216279999999998,3.786792476869104,0.1205678464983436
16.21866,3.795220188735352,0.1203225307862216
16.221064,3.799783468735628,0.1201644287906084
16.223452,3.798759755377232,0.1201187036854795
16.225831999999997,3.797596272391977,0.1200867842562425
16.240167999999997,3.776742334740255,0.1199969085292231
16.242571999999996,3.774135829516023,0.1199591974061567
16.244956000000002,3.77287979873215,0.1198650571862516
16.247335999999997,3.7766989046277497,0.1196463678337001
16.249739999999996,3.785221060150485,0.119265140315728
16.252128,3.790949718993883,0.1189320627280803
16.254508,3.79174301078467,0.1187130676165886
16.256907999999996,3.791884676269401,0.1184842507870221
16.259292000000002,3.7917468025004095,0.118282992859382
16.261671999999997,3.794542195037614,0.1180201881315978
16.264075999999996,3.790120580522068,0.1179402929939614
16.266460000000002,3.792636433805552,0.1177023991303408
16.268844,3.800227423768508,0.1173402456527271
16.27124,3.809680744851021,0.116939640931396
16.273623999999998,3.8191340659335338,0.1165390362100649
16.276004,3.8218822366424954,0.1163470322035951
16.278408,3.821976680298981,0.1161940049783628
16.280796000000002,3.824073224701884,0.1159921115911662
16.283175999999997,3.827892330597483,0.1157707493003686
16.297503999999996,3.814720034849465,0.1155848486731849
16.2999,3.816070509289824,0.1155297642733164
16.302287999999997,3.81956285410346,0.1154156491961524
16.304684,3.824218681902352,0.1153342040850807
16.309468000000003,3.825708925969572,0.1152654657010786
16.316635999999995,3.838465704552748,0.1150661757741772
16.319015999999998,3.8449366416429527,0.1150315293393487
16.321419999999996,3.8544806146662127,0.1149277661512171
16.323803999999996,3.872592069182581,0.1146019537121357
16.326183999999998,3.8929379418708434,0.1142823011161121
16.328587999999996,3.9180794119848574,0.1138843591840522
16.330971999999996,3.941358550979317,0.1135194863908038
16.333351999999998,3.967663504078587,0.1131600765562975
16.335748000000002,3.998811276431852,0.1126527784832783
16.338132,4.02809671766556,0.1121615552379156
16.340511999999997,4.060687512257801,0.1116420478076305
16.34292,4.094209472409822,0.111122035897817
16.345304,4.124565848830168,0.1106204002660336
16.347684,4.154875003422273,0.1102000635208497
16.350088,4.189839985813268,0.1097231751904403
16.352472,4.226574751525203,0.1091690829511961
16.354852,4.264473000222394,0.1086476934813653
16.357252000000003,4.303442184106224,0.1080873587780273
16.359636000000002,4.334030877952048,0.1076626239214001
16.36202,4.37262797478354,0.1070839423678518
16.364419999999996,4.411225071615031,0.1065150518310313
16.366808,4.4477275199014885,0.1059456586778319
16.369188,4.479294601135334,0.1054666077784179
16.371584,4.505367236809128,0.1051238568651247
16.373972000000002,4.529065684684166,0.1047853477037732
16.376351999999997,4.546385743267618,0.1045261628069474
16.378755999999996,4.564636967410847,0.1042560269730337
16.381144,4.584006348568957,0.1039068084883564
16.383524,4.596158722674319,0.1036945376554366
16.38592,4.615388334205569,0.103360146035193
16.388308000000002,4.638110290550456,0.1029454465678458
16.390687999999997,4.653894779096313,0.102639488402475
16.393084,4.669399728388449,0.1023556383236715
16.395468,4.6828100291355526,0.1020548044676604
16.397864,4.689562401337346,0.1018439068354481
16.400259999999996,4.694824529471922,0.1016872730639231
16.402648,4.701856440927438,0.1014601100891842
16.405028,4.710238826823312,0.1011906109055281
16.407424,4.721414709398521,0.1008890683541336
16.409807999999998,4.731659426413952,0.1006049198512702
16.412191999999997,4.743254617869742,0.1002855203262184
16.414588000000002,4.7536391045120325,0.0999995812847661
16.416972,4.768819188580076,0.0996561993684076
16.419368,4.785209977461617,0.0992813693611181
16.421771999999997,4.804394263022494,0.0988792197456128
16.424155999999996,4.8273032108224845,0.0984403542979612
16.426536,4.852773337876331,0.0979417578566723
16.428931999999996,4.873819954556764,0.0975348149647972
16.43132,4.901943808663087,0.0970269805972918
16.4337,4.930486971649989,0.0965070070657775
16.436104,4.953954997957419,0.0960648328335398
16.438491999999997,4.98477980094446,0.0955055547260749
16.440872,5.016675539118139,0.0949305246098721
16.443267999999996,5.04642940691854,0.0943899503971687
16.445656,5.078325145092219,0.0938114971104859
16.448036000000002,5.112642292892895,0.0931863893733446
16.51972,4.991281071760572,0.0927724720383052
16.522123999999998,4.999474570343474,0.092768682340011
16.524507999999997,5.010880874486292,0.0927154149924416
16.526888,5.022566717882829,0.0926436672638028
16.529296000000002,5.033600934973308,0.0925611624025562
16.53168,5.043983525757731,0.0924682953986749
16.534059999999997,5.063864763595039,0.0922371252042183
16.536464000000002,5.081883670312791,0.0920197281936961
16.538848,5.100973512217181,0.0917881788689034
16.541227999999997,5.12127405893507,0.091531922471275
16.543632000000002,5.147720677519069,0.0911908856094576
16.54602,5.176588705730066,0.090792578804584
16.5484,5.21332536729987,0.0903063838610031
16.550804,5.248059928123258,0.0898456560726264
16.553188,5.283353567454086,0.0893512838307447
16.555571999999998,5.320137450852134,0.088818898384666
16.557975999999996,5.354127837570847,0.088310761678432
16.560364,5.38225169167717,0.0878730590129355
16.562744000000002,5.405859487611461,0.0874678279791783
16.56514,5.42467168612,0.0871154565730375
16.567527999999996,5.440410848695483,0.0868046926482512
16.569907999999998,5.453915593099072,0.0864797389335729
16.572303999999995,5.46248497045005,0.0862055250835256
16.574688000000002,5.471473656681607,0.085906182014463
16.577072,5.481253738846084,0.0856083405937066
16.579476,5.493547778436174,0.0853088401711386
16.58186,5.498904350227235,0.0850847010603301
16.58424,5.509336058697769,0.084804492011357
16.586644,5.518045205675606,0.0845302680586728
16.589031999999996,5.529035992653583,0.0842222077343612
16.591412,5.541237484445056,0.0838950893303181
16.593807999999996,5.554370141796309,0.0835618896494958
16.596196,5.561403949109693,0.0832481445319315
16.598576,5.569508691609716,0.0829200175654406
16.60098,5.576682268549961,0.0825990259649553
16.603367999999996,5.58092257918401,0.0823044989270214
16.605748,5.587304760191337,0.0819828713213789
16.608143999999996,5.592476236385165,0.0816813831487578
16.610532,5.599510043698549,0.0813693423574356
16.612916,5.605472915825295,0.0810720484722534
16.615316,5.608502521645847,0.0807980512389542
16.617703999999996,5.615117020078651,0.0805108372265059
16.620084,5.627598051123844,0.0801749695364647
16.622487999999997,5.640079082169037,0.0798406873936948
16.624876,5.652699882841091,0.0794985726601931
16.627255999999996,5.6617357909008925,0.0791700079212594
16.62966,5.671423325266752,0.0788521004779703
16.632044,5.676966888512918,0.0785812126775786
16.634423999999996,5.6814395165724445,0.0783235293706447
16.63682,5.678555367952361,0.0781503297295647
16.639207999999996,5.670037004145366,0.0780593040589931
16.641588,5.664591676271425,0.0779368409976443
16.643983999999996,5.661520536196239,0.0778229273015015
16.646368000000002,5.657658000188135,0.0777057984598391
16.648747999999998,5.651513824179894,0.0776224544079464
16.651151999999996,5.645090108917932,0.0775549157798696
16.65354,5.63852662402911,0.0774952746660881
16.655920000000002,5.635315714327064,0.0773885628377665
16.658324,5.630894099811519,0.0773028404048636
16.660711999999997,5.626472485295973,0.0772170350225161
16.663092,5.629919504139236,0.0770691882319475
16.665487999999996,5.629362321489665,0.0769564232347408
16.667876,5.625871872533898,0.0768661440175384
16.670256000000002,5.621822345070688,0.0768073241724519
16.672652,5.617633047980621,0.0767563369180973
16.675039999999996,5.617168413129667,0.0766868702864554
16.677419999999998,5.6145619079054345,0.0766422777166399
16.679816000000002,5.612886568240981,0.0765929622581569
16.6822,5.615867056375421,0.0765208347977376
16.684579999999997,5.623782911562471,0.07640894982852
16.686976,5.638915773802271,0.0762248441124203
16.689363999999998,5.651627226415072,0.0760835283200323
16.691747999999997,5.664059139774153,0.0759585140729119
16.694152000000003,5.677934075372211,0.075848049219492
16.69654,5.69688414764974,0.0756920542319054
16.69892,5.7206298173530215,0.0755073925874009
16.701316,5.743444321496526,0.0753283791247152
16.703699999999998,5.764628811945951,0.0751932051329119
16.706083999999997,5.789026107955291,0.0750240880333708
16.708487999999996,5.81314386471091,0.0748703219870807
16.710872000000002,5.831115549600419,0.0747748288520043
16.713251999999997,5.856816098221874,0.0746325516899997
16.715648,5.882237107589609,0.0745053883725859
16.718035999999998,5.911662318450178,0.0743482336981519
16.720416,5.944300334870663,0.0741590766469273
16.72282,5.978009286477786,0.0739624477573235
16.725208000000002,6.017072914018101,0.0737101319605219
16.727587999999997,6.057207476745054,0.0734476816101328
16.729984,6.093757146859756,0.0731975756896332
16.732368,6.132867996228314,0.072908609030944
16.734752,6.169185348917539,0.0726359986531557
16.737147999999998,6.2052703841812855,0.0723332790959136
16.739536,6.240564023512114,0.0720271920332922
16.741928,6.275485575790605,0.0716977727749556
16.744332,6.3074738617629,0.0713893954471002
16.746719999999996,6.335085859190024,0.0710876209289795
16.7491,6.364839726990425,0.0707678520502509
16.7515,6.398365478858183,0.0703925892694436
16.753887999999996,6.42602469811355,0.0700525021007971
16.756268,6.454382765503219,0.0696789022646288
16.758663999999996,6.487164343266302,0.0692606545490662
16.761052,6.51156543099138,0.0688743544070761
16.763432,6.537596532410538,0.068452556410581
16.765828,6.560601819724883,0.0680141469923205
16.768216000000002,6.578811509613476,0.0675992445390135
16.7706,6.592505141330038,0.0671937048611771
16.772996,6.604476211553904,0.0667910237850788
16.775384000000003,6.617937525844988,0.0663624147841773
16.77776,6.6296762786433785,0.0659321655792862
16.780155999999998,6.641275261814906,0.0655141820905891
16.782544,6.652362388307237,0.0650811218177681
16.78494,6.66116787479943,0.0646719270551926
16.787335999999996,6.670811979052785,0.0642248740900156
16.789719999999996,6.681387248865917,0.063777385692914
16.792099999999998,6.692381827559631,0.0633115459160309
16.794503999999996,6.704307571813123,0.062844122753886
16.796892,6.712508653827501,0.0623862128790957
16.799272000000002,6.716565764722185,0.0619578777697041
16.801668,6.726629177856122,0.0614994909798181
16.804052,6.735342116549698,0.0610623829478907
16.806432,6.739259457817521,0.0606425420763505
16.808828,6.747832626884237,0.0602136696368466
16.811216,6.752401594458119,0.0598042288462786
16.813608000000002,6.754129843524423,0.0594420550311532
16.816012,6.752785056657673,0.0590944164780039
16.818396,6.750089795350562,0.0587655434056635
16.820776000000002,6.743250562923758,0.0584619464635007
16.823172,6.733198524937038,0.0581827476734662
16.825559999999996,6.724309969935574,0.0579317482656959
16.827939999999998,6.709275343068,0.0577155854721004
16.830343999999997,6.6935418680661245,0.0575309598112938
16.832732,6.683814695303499,0.0573184067783992
16.835112000000002,6.6741800703394905,0.0571425423839747
16.837508,6.663194970935122,0.0569870962648455
16.839895999999996,6.650859397090397,0.0568514007948671
16.842276,6.63796474473823,0.0567408220427985
16.844679999999997,6.626233575371318,0.056658978344299
16.847063999999996,6.614362636377546,0.0565830157209991
16.849444,6.596997251823723,0.0565512643899802
16.851847999999997,6.582565133576093,0.0565090374801842
16.854236,6.567573936821022,0.0564918245569206
16.861399999999996,6.525067082153185,0.0564912295291991
16.86378,6.524043368794788,0.056455538224151
16.866183999999997,6.527955022489006,0.0564012943752858
16.868572,6.536522503982113,0.0563413239683902
16.870951999999996,6.543739511034863,0.0563014225592432
16.873348,6.550584431035273,0.0562370699059953
16.890064000000002,6.524047160510529,0.056207974607646
16.894855999999997,6.5115699211810725,0.0561989030881039
16.897244,6.509754811889758,0.0561569461089414
16.899623999999996,6.507008537038666,0.0561162684980063
16.90202,6.50626436293399,0.0560666922423553
16.904407999999997,6.503378318456038,0.056032325136675
16.906788,6.499980417298889,0.0559797918909014
16.909183999999996,6.500726487261433,0.0559032635094216
16.911572,6.491462053491894,0.0558703525713099
16.913952000000002,6.482057850095493,0.0558436992430341
16.916351999999996,6.471862250766175,0.0558115335579018
16.918735999999996,6.467952492929826,0.0557416382529168
16.921120000000002,6.467907166959453,0.0556617801813655
16.923516,6.477220718415105,0.0555289657447224
16.925903999999996,6.489886845057534,0.0553681281287402
16.9283,6.502832510953683,0.055194126085921
16.930695999999998,6.523926349462359,0.0549816387266394
16.933084,6.547301827971172,0.0547503809534312
16.935468,6.567232183494593,0.0545116788107755
16.937863999999998,6.590654883831649,0.0542395259532365
16.940247999999997,6.615148519355345,0.0539607318495884
16.942628,6.637128197453426,0.0536713095543969
16.945023999999997,6.657617631484287,0.0534092087622219
16.947412,6.675965195141872,0.0531615779288948
16.949792000000002,6.693661132493399,0.052902213386428
16.952191999999997,6.7125677746584245,0.0526283996314061
16.954575999999996,6.726818589024559,0.0523577432784797
16.956960000000002,6.739346841897996,0.052083830901274
16.959356,6.7561588355179865,0.0517818521017669
16.96174,6.770317102085503,0.0514764946818621
16.96414,6.7796797712272685,0.0511795238589169
