Time,Force,Position
18.35472,1.9199511613325289,0.1822891174883829
18.357116,1.9802747644000624,0.1813224928717773
18.359504,2.038318623325328,0.1801151197877881
18.3619,2.0881689836676918,0.1794618859792078
18.364296,2.139976118786098,0.1784095363052756
18.366684,2.188200257150122,0.1772601151362836
18.369064,2.2281383491326263,0.1763989111885885
18.371464,2.261093647345728,0.1758408550726471
18.373848,2.289440339588181,0.1754997660893673
18.376228,2.315367518061505,0.175033923530932
18.378624,2.3366407645938088,0.1745086229268778
18.381012,2.352748222505891,0.1739099340648797
18.383392,2.360709403663316,0.173543989976401
18.388176,2.367552427805858,0.1733820526418134
18.390572,2.3776082575083164,0.1730321542499693
18.392968,2.387384547957054,0.1727418730941222
18.395356,2.397440377659513,0.1724099949588583
18.397736,2.411732726280281,0.1719250497618434
18.400132,2.4319369334838146,0.1713718839849468
18.402516,2.459915330389669,0.1706725478669077
18.4049,2.503211685132557,0.16924216939977
18.407296,2.546787579129166,0.1678064524251745
18.409684,2.5947869834991883,0.1660851378108783
18.412064,2.6351972937641244,0.1647455525550502
18.41446,2.674117359961841,0.1635619819867973
18.416848,2.722955382093025,0.1618587332630698
18.419232,2.773191100492812,0.1599354652465649
18.421628,2.8198891481085875,0.1580287987650893
18.424012,2.8644453253510864,0.1562752332347153
18.505252,2.985049101373648,0.1549076956306609
18.507652,2.9877953762247405,0.1549063641274466
18.510036,2.998038197382302,0.154554222832591
18.51242,3.0087003274204447,0.15414479622449
18.514816,3.0168485000329714,0.1537975489079039
18.517204,3.0231343415259437,0.1535144136594097
18.519588,3.028256700033658,0.1532085039296693
18.521984,3.035940237795232,0.1527501395451064
18.524372,3.047627977049638,0.1521298356157885
18.526756,3.0559631411172687,0.1516797069475385
18.529156,3.0623887522371,0.1513850945022297
18.531544,3.072119716715464,0.1510259465659053
18.533924,3.0792895019399693,0.1508175098287141
18.536324,3.088042079030312,0.1505823370167485
18.538708,3.1030804976136253,0.1500784336134431
18.541092,3.115325419517604,0.1496749312081892
18.543492,3.132505708474194,0.1490813035729604
18.54588,3.1440990040721144,0.1486686361998894
18.612772,3.20963940930385,0.1483523330178018
18.615168,3.21848453419281,0.1482096466661766
18.617556,3.2278887375892102,0.1479997140993484
18.619936,3.239295041732027,0.1477192281810283
18.62234,3.248047618822369,0.1475058906212123
18.624728,3.253727159979656,0.1474107372301401
18.627108,3.2603378666967213,0.1472868206049307
18.629504,3.271836718638156,0.147074265059848
18.631892,3.285430219124624,0.1468635079290758
18.634272,3.302376294797868,0.1465017209965711
18.636668,3.319462140097972,0.1461222045533067
18.639056,3.3341265757710787,0.1458637067046561
18.64144,3.3467889106977684,0.1456798233274073
18.643836,3.3550749570792875,0.1456045027690061
18.64622,3.364339390848828,0.1454189710001149
18.648616,3.36736520495364,0.1453905894601131
18.651012,3.370810327939033,0.1453147810593243
18.6534,3.37853919167098,0.1450704988386762
18.655784,3.387618529843285,0.1447524329980408
18.65818,3.398467651336531,0.1443109048212098
18.660568,3.4063835065235817,0.1439681477091545
18.662948,3.412389808762832,0.1437640290065826
18.665344,3.4196993636141984,0.1435736179432976
18.667732,3.424494961039949,0.1434302523641993
18.670116,3.431851737719559,0.1431584281720362
18.672512,3.4393482840260288,0.1428677467713396
18.6749,3.450569492571612,0.1424815664767597
18.67728,3.4616981533185776,0.142032899850776
18.679676,3.466635416229058,0.1416410948533204
18.682064,3.473202692833619,0.141158750808482
18.68446,3.482843005371236,0.140581711561397
18.686856,3.500351951267659,0.1397842751063358
18.689244,3.5208413852985205,0.1388335584346276
18.691628,3.5408189626501847,0.1378511957628334
18.694032,3.557024655934492,0.1370464990409474
18.696416,3.5825420048165824,0.1360145305355921
18.698796,3.6064293400045937,0.1350877824874698
18.701192,3.6224480418337976,0.1343870690092163
18.70358,3.634602311797028,0.1337868845161136
18.70596,3.650993100678569,0.1331359789494706
18.708364,3.6678957462393087,0.1325031464010597
18.710752,3.689129354374846,0.1316577405182895
18.713132,3.7073371484055695,0.1308279146330373
18.715528,3.726336338369212,0.1299908500607474
18.717916,3.743565745011916,0.1292663810554554
18.720296,3.7640079572145337,0.1284415007229577
18.722692,3.7783513193792846,0.1277264927369143
18.72508,3.791344207103677,0.1270792420964935
18.727464,3.812018736731772,0.1263194821532491
18.72986,3.828781612665651,0.1257442819151856
18.732244,3.841540287106696,0.1252815097861402
18.734628,3.8447077666962377,0.125043865343585
18.737024,3.84596569333798,0.1249225544003369
18.739412,3.850668742965115,0.1247535483766835
18.741792,3.859143676659606,0.1244357192602456
18.744188,3.864964883301623,0.1241676223694452
18.746576,3.8709258595705,0.1238861064346833
18.748956,3.883824303638405,0.1234386273627479
18.751356,3.9015183451320623,0.1228864113695997
18.75374,3.912414688453551,0.1224914892524051
18.75614,3.925872211028897,0.1219996974338408
18.758536,3.932484813603832,0.1217318697670892
18.760924,3.942402769537299,0.121434721286594
18.763308,3.950830481403547,0.121204888911209
18.765704,3.959537732523516,0.120948353196551
18.768092,3.967685905136043,0.1207477839080895
18.770472,3.9799308270400218,0.1205129900564558
18.772867999999995,3.99189620969028,0.1203029823934583
18.775256,4.000136930101424,0.12016432721006
18.777636,4.007586254579651,0.120028301775536
18.78004,4.015035579057877,0.119890999903936
18.803928,4.050414182755845,0.1198438405216898
18.808708,4.064240000667791,0.119815432567283
18.811096,4.074435599997109,0.119711145525136
18.813476,4.0835602641397895,0.1196341725808405
18.815872,4.0931042371630495,0.1195230367474353
18.81826,4.100925648693613,0.1194317520246311
18.820644,4.109026599477898,0.1193156811131909
18.82304,4.117127550262183,0.1191996102017506
18.825424,4.124948961792747,0.1191057633980214
18.827808,4.133561769256229,0.1190074388750996
18.830204,4.139753167092714,0.1189903274914627
18.832592,4.154604594220924,0.1188035865529388
18.834988,4.173180683588247,0.1185550453253011
18.837384,4.19147723370185,0.118332145591774
18.839772,4.214569381241204,0.1180183431390542
18.842152,4.235007801728084,0.1177407015890732
18.844548,4.250650624789212,0.1175546887280438
18.846936,4.2664332174772,0.1173611458258026
18.84932,4.28100510535169,0.11720954592641
18.86844,4.336121385544368,0.117189610403068
18.870824,4.344547201552746,0.1171787785330069
18.873228,4.358467463121177,0.1170267852397514
18.875616,4.375460760622665,0.1168109939793471
18.877996,4.39501523737801,0.1165109050232143
18.880392,4.413918087827296,0.1162120976154031
18.88278,4.432029542343665,0.1159222632275223
18.885164,4.448837744247919,0.1156152468799671
18.88756,4.461921283913058,0.1153641949180773
18.889948,4.476867154697754,0.1150862999077967
18.892328,4.492883960669088,0.1147801664427008
18.894724,4.50503633477445,0.1145399711189733
18.897112,4.514395212200476,0.11433920801389
18.899496,4.526827125559559,0.1140760641200361
18.901892,4.544473945224973,0.1137015186152146
18.90428,4.565333570450303,0.1132518811452058
18.90666,4.585401799742715,0.1128039075993293
18.909056,4.603048619408129,0.1124315487162447
18.911444,4.619904043140624,0.1120572870637866
18.913828,4.635968070940201,0.111687344125383
18.916224,4.650868615754524,0.1112940265956972
18.918612,4.660461706463897,0.1109568213988772
18.920996,4.662186163814464,0.1107605008415091
18.923392,4.663398764485831,0.110547253149053
18.92578,4.661957638104724,0.1103623643048083
18.928164,4.655860683924726,0.1102408347497372
18.93056,4.646178837132475,0.1101582950058851
18.932948,4.637428155900002,0.1100625876819541
18.935328,4.630959114667666,0.1099094343658664
18.937724,4.62504915194277,0.1097135741415973
18.940112,4.621281059591152,0.1094720451928425
18.942496,4.621656938359228,0.1091504135972011
18.944892,4.622452126007884,0.108794138437148
18.94728,4.622735456977344,0.1084208691856824
18.949676,4.618362960147912,0.1081078731198152
18.952072,4.613990463318479,0.1077958841527581
18.95446,4.610688901675685,0.1074613049809025
18.956844,4.611950620033165,0.10702174762025
18.95924,4.617496079137199,0.1064965266615887
18.961628,4.625183408614511,0.1059320403665146
18.964008,4.633103055517299,0.1054106426662997
18.966408,4.646749465405619,0.1048118301050763
18.968796,4.667473112719826,0.1040956617787362
18.971176,4.68391301928748,0.1034665947778705
18.973576,4.701795948094111,0.1028482230178287
18.975964,4.71939933764702,0.1022450800130497
18.978344,4.73672318794621,0.1016574032556774
18.98074,4.754698664551457,0.1010821586744665
18.983128,4.76839040041015,0.1005903026408561
18.985508,4.777658625895429,0.1001929748968026
18.987908,4.785855916194069,0.0998187869838973
18.990296,4.787907134626598,0.0995498561571118
18.992676,4.794474411231158,0.099238633403868
18.995076,4.798480508581862,0.099001018770086
18.997464,4.807142433731456,0.0987120238609699
18.999844,4.816595754813968,0.0984259800904103
19.002244,4.826840471829399,0.0981414850456488
19.004632,4.830659577724997,0.0979804373932787
19.007012,4.832848669926518,0.0978807219933386
19.009412,4.832895891754761,0.0978209734431082
19.0118,4.831080782463448,0.0977805835091357
19.016584,4.823958219067184,0.0977765732753229
19.021352,4.817627051603841,0.0977728123286821
19.023748,4.817394734178364,0.0977333959463199
19.026136,4.8250310501116935,0.0975929833981908
19.02852,4.830944804552327,0.0974611969051232
19.030912,4.841654156418712,0.0972737781368447
19.0333,4.857159105710849,0.0970300341366494
19.03568,4.871453350189488,0.0968141694275764
19.038088,4.8916141272805165,0.096521708072179
19.040472,4.912194213252126,0.0962083202992096
19.042852,4.934776399970151,0.095866781344607
19.045252,4.950281349262288,0.095626013534301
19.04764,4.960990701128674,0.0954396443751935
19.05002,4.971839822621918,0.0952455610932971
19.052424,4.9865533759811385,0.095005963121706
19.054808,4.9984734326610205,0.0947919182119212
19.057192,5.010113950087185,0.0945971110830865
19.059588,5.022825402699987,0.0943833714773951
19.061972,5.031392884193097,0.0942355870531617
19.064356,5.044895732738816,0.0940247284704851
19.066752,5.056256710911259,0.0938523455524702
19.069144,5.071761660203396,0.0936188029635711
19.071524,5.08940847986881,0.0933553573280924
19.07392,5.098115730988778,0.0932062956826557
19.076308,5.1108271836015815,0.093008022662656
19.078688,5.123957945094965,0.0927854880563915
19.081092,5.139510116215345,0.0925163249418614
19.08348,5.162419064015334,0.092146049171776
19.08586,5.185467781442184,0.0917722807818374
19.088264,5.203301592562701,0.0914728244968739
19.090652,5.219552611817383,0.0911710783192618
19.093032,5.243020638124813,0.0907743447839319
19.095432,5.273426132231272,0.0903033351570971
19.097816,5.302760691151095,0.0898512867851056
19.100196,5.327439422272023,0.0894338820013351
19.102592,5.359335160445701,0.0889284318337668
19.10498,5.391929746753681,0.088381569418757
19.10736,5.42545549862144,0.0878304202520339
19.109764,5.461262890489335,0.0872400559212808
19.112152,5.495487490491394,0.086654933028695
19.114532,5.5298518601203135,0.0860619410699701
19.116928,5.560212028256399,0.0855182716401704
19.119316,5.58642822527279,0.0850328153934788
19.121696,5.613715357475821,0.0845259962497455
19.124092,5.637929453745797,0.0840612487604349
19.12648,5.660141449269354,0.083622132800913
19.128876,5.672342941060828,0.0832874561148739
19.131272,5.676675799493495,0.083031036571908
19.13366,5.679937722739522,0.0827906175239166
19.13604,5.684270581172189,0.082534713358397
19.138436,5.692328101843969,0.0822565526811005
19.140824,5.698103982515611,0.0820171547114986
19.143204,5.697733791321143,0.0818457264815475
19.1456,5.698294765686453,0.081668971539223
19.147984,5.703930876731235,0.0814395523851981
19.150368,5.70155858479035,0.0812881575678764
19.152764,5.697416509528526,0.0811903229649539
19.155152,5.6932744342667,0.0810926594870794
19.157536,5.688992589378016,0.0810030951007502
19.159932,5.6813581693025546,0.0809613971979289
19.174268,5.637177870828132,0.080954224985577
19.176656,5.63852834526849,0.0809244717263686
19.188608,5.66194535803194,0.0809240567912714
19.190996,5.671908639935782,0.0808817431770537
19.193376,5.683734252959179,0.0808299696011376
19.195772,5.693278225982439,0.0808127533082903
19.19816,5.70854896199123,0.0807572336964746
19.200556,5.72517017244038,0.0806726466953616
19.202956,5.740720447702891,0.0806015073225334
19.205344,5.754268622218986,0.0805485879246735
19.207724,5.770750063041275,0.0804720704730404
19.21012,5.7863003383037865,0.0804004268952375
19.212508,5.803620396887236,0.0802769570928708
19.214892,5.822942556217104,0.0801334826180189
19.217288,5.842404485173831,0.079985501518673
19.219676,5.864287823757556,0.0797961765882321
19.222056,5.884169061594864,0.0796245063280791
19.224452,5.903258903499255,0.0794517565728958
19.22684,5.921185262418389,0.079250023500011
19.22922,5.935107419844689,0.0790839621474392
19.231624,5.948517720591792,0.0789015610188111
19.234012,5.960624768726781,0.0786986736371649
19.236392,5.973802752048408,0.0784838438505809
19.238792,5.980694893877062,0.0783374193895618
19.24118,5.983722603839743,0.0782184795300176
19.243564,5.987821248989063,0.0780874579537405
19.24596,5.989266167085908,0.0779638949947902
19.248348,5.990850854809613,0.0778329400635843
19.250732,5.993646247346818,0.0776826715367124
19.253128,6.000725380630576,0.0774851804365582
19.255516,6.006081952421638,0.0772893838869069
19.257896,6.015582495332394,0.077054479437765
19.260296,6.024012103056512,0.0768326473681781
19.26268,6.033652415594126,0.07659152464321
19.265064,6.03956806589263,0.0763691345880081
19.26746,6.045483716191131,0.0761479954622925
19.269844,6.053820776116632,0.07588939632273
19.272224,6.062297605668993,0.0756248759966503
19.27462,6.073567931900689,0.0753492336513218
19.277012,6.089121998878939,0.075028678084374
19.279392,6.104256756976607,0.0747317702191841
19.281788,6.122836638059669,0.0744355944135553
19.284176,6.1427669935830895,0.0741172001881026
19.286572,6.168191794666564,0.0737380686062207
19.288972,6.194967070190396,0.0733340995815053
19.291356,6.222021884967949,0.0729190184586242
19.29374,6.246934829372225,0.072524914060078
19.296136,6.272639169709419,0.0721360681883724
19.298524,6.301416545979668,0.0717282838597953
19.300904,6.324839246316724,0.0713751794741512
19.303308,6.350264047400197,0.0710091104207584
19.305696,6.36968254624442,0.0706857884192852
19.308076,6.388961275461783,0.070370294446393
19.310472,6.412104436545119,0.0700382520908269
19.31286,6.43804109430779,0.0696982807220963
19.315244,6.4607649465105474,0.069388558412864
19.31764,6.483349029086442,0.0690883869380279
19.320028,6.50393101091592,0.0688023079459431
19.322412,6.522371122372121,0.068537697795503
19.324808,6.538669363455046,0.068294712328318
19.327196,6.552174107858635,0.068060461429184
19.32958,6.557949988530278,0.0678635524168802
19.331976,6.560233524388285,0.0677102936286357
19.334364,6.558373089126597,0.0675898381863429
19.336748,6.558095445730745,0.0674774187694745
19.339144,6.556327558267675,0.0673949013510076
19.341532,6.559495037857217,0.0672849546546351
19.343912,6.562522747819899,0.0671820761326806
19.346308,6.557262515543194,0.0671415622913878
19.348696,6.554283923266624,0.0670753066135482
19.351076,6.553167662109611,0.0670038789927445
19.353472,6.559780264684547,0.0668979725408876
19.35586,6.56732403281926,0.0667897609493983
19.35824,6.570723829834279,0.0667125924599115
19.360636,6.569048490169826,0.0666679715652594
19.363024,6.573658991998343,0.0665755250535375
19.365408,6.577058789013362,0.0664988947271415
19.367804,6.585393953080992,0.0663975451433135
19.370192,6.594939821962122,0.0662812164319938
19.372588,6.602623359723695,0.066169603136202
19.374984,6.615382034164741,0.0660270886993581
19.377372,6.635078176404814,0.0658476044900537
19.379756,6.657055958645026,0.0656440695830203
19.382152,6.679964906445016,0.0654382745353275
19.38454,6.699149192005892,0.0652425613681205
19.386924,6.721965592007265,0.0650031249043447
19.38932,6.7439905960757205,0.0647629237205558
19.391708,6.766574678651616,0.0644991356607092
19.394088,6.795444602720482,0.0641895604824294
19.396484,6.827247793095544,0.0638703639790691
19.398872,6.8581198179108265,0.0635573580019731
19.401252,6.883265079740579,0.0632659551801182
19.403652,6.910552211943609,0.0629611879916052
19.406036,6.939329588213859,0.0626314803913039
19.40842,6.972390705230662,0.0622688126501546
19.410816,7.003449721501048,0.0619219586139351
19.413204,7.035859212211794,0.0615565186814801
19.415584,7.063473105496788,0.061209468459827
19.417984,7.089224667662225,0.0608671096489861
19.420372,7.118840661693637,0.0605127202681293
19.422752,7.146454554978631,0.0601713778255513
19.425152,7.176210318636903,0.0598198013146053
19.427536,7.206385391175754,0.0594537260973119
19.429932,7.236700233341466,0.0590827033179064
19.432328,7.269948341813373,0.0587017521668813
19.434716,7.298772939911865,0.0583587417651676
19.437096,7.322522401330884,0.0580407606328795
19.439496,7.345061157936406,0.0577377954911507
19.441884,7.36545804416865,0.0574508993468528
19.444264,7.381850728908061,0.0571823206236632
19.44666,7.39358758584858,0.0569202492360672
19.449048,7.404672816483041,0.0566472827559964
19.451432,7.411753845624668,0.0563918421497531
19.453828,7.415622069206379,0.0561573038012893
19.456216,7.4184193576014525,0.0559302899768755
19.4586,7.416141509317054,0.055725769021925
19.460996,7.41186156028624,0.0555291468741014
19.463384,7.408512776815202,0.0553313003302591
19.465764,7.407166094090582,0.0551258594641593
19.46816,7.404096849873264,0.0549172055460688
19.470548,7.395440612297278,0.0547129300936827
19.472932,7.382780173228458,0.054524202878375
19.475328,7.369700425279057,0.0543524656730413
19.477716,7.355409972516156,0.0541924803677211
19.480096,7.33911741900684,0.0540394058811044
19.482496,7.3251065054976605,0.0538676496242739
19.484884,7.315099793481314,0.0536811612983991
19.487264,7.30402214627833,0.0535006761186842
19.48966,7.295226139075482,0.0533021618334518
19.492048,7.285359196685997,0.0531091944019787
19.494444,7.277214815789207,0.052919560053643
19.49684,7.27358649306445,0.052732668313892
19.499228,7.270097939966553,0.0525396652655478
19.501608,7.269402883547991,0.0523447195550272
19.504004,7.267636891942789,0.0521558442631729
19.506392,7.2708062673902,0.0519527231622561
19.508772,7.275558434703449,0.0517600078005301
19.511172,7.279099897203197,0.0515790494292615
19.51356,7.280219950075948,0.0514218816118537
19.51594,7.279198132575421,0.0512767543506751
19.518336,7.284414934739624,0.0511392626853004
19.520724,7.285627535410992,0.0510144239316857
19.523108,7.2816252297760276,0.0509143160742421
19.525508,7.280975499327837,0.0507901345780784
