Time,Force,Position
18.209148,2.337304967597285,0.1742259479013135
18.21394,2.346986814389536,0.1741439556309156
18.216328,2.355831939278495,0.1738920062354627
18.218708,2.3750124331236333,0.1732701818428758
18.221112,2.4049948266337737,0.1720837230985117
18.2235,2.436654455666236,0.1705845925654417
18.22588,2.463937796153528,0.1692618013181333
18.228276,2.484655755894129,0.1683751758122669
18.230664,2.51342744459077,0.1673024430279107
18.233044,2.5469475088849203,0.1660672477202961
18.23544,2.578233155007176,0.1648505222932642
18.237828,2.6057015910917025,0.1637454109371204
18.240212,2.627862573071279,0.1628915719341131
18.242608,2.654260073969166,0.1619298799386462
18.244996,2.687455273039222,0.1606744699494348
18.24738,2.720697693937521,0.159269158652947
18.249772,2.747329408118756,0.1580564165895161
18.25216,2.776150214501509,0.1566497465549808
18.25454,2.7989647186450126,0.1555620469101148
18.25694,2.8241534105872703,0.1544598720370262
18.259328,2.8512044336490847,0.1532980420676814
18.261708,2.87853499596462,0.152036356476737
18.264108,2.8911992267491784,0.1514687791307901
18.271272,2.901487373877114,0.151266723550154
18.27366,2.903582022422148,0.1512606053144056
18.27604,2.911869964661536,0.1508643270202222
18.27844,2.9145709135422537,0.1506831726119677
18.280828,2.9214158335426648,0.1503209517783548
18.283208,2.9339875165286067,0.1497531777371561
18.285608,2.9468387387682697,0.1491502689670439
18.287992,2.955313672462761,0.1486583507666619
18.290388,2.9595520872389414,0.1482804809075249
18.292788,2.958296056455069,0.1481720053626442
18.295172,2.95913467421623,0.1480618692439325
18.297556,2.965140976455481,0.1478190536790719
18.299952,2.9674226164556177,0.1477039605029193
18.30234,2.972265435709613,0.1474361387880822
18.307116,2.974174988657412,0.1472825981441776
18.309504,2.980460830150383,0.1470166739121006
18.311888,2.992800195710848,0.146406767746706
18.314284,3.006490035711672,0.1457088392315027
18.316672,3.0175261486600204,0.1450871690109457
18.319052,3.027491326421731,0.1445071883784367
18.321448,3.0423446494078106,0.143835606607469
18.323836,3.051331439781499,0.143394524984437
18.3334,3.0415098233623867,0.1433932603945106
18.335796,3.043791463362524,0.1432804592303329
18.338184,3.04672472966872,0.1431745977399577
18.340568,3.050961248587031,0.1430797213929061
18.342964,3.061296617543209,0.1428402254081952
18.345352,3.0737738568726654,0.1425206246852589
18.347736,3.085319930642342,0.1422284610782194
18.350132,3.097797169971798,0.1419161550696766
18.35252,3.1118572011670897,0.1415943923570121
18.3549,3.1361600535199425,0.1409855840740948
18.357296,3.158181265872659,0.1405084040925848
18.359684,3.184299227516825,0.1399929978318829
18.362068,3.2097183410266914,0.1395552584167086
18.364464,3.238954664574288,0.1390918516884437
18.366852,3.2749886862940527,0.138440253248715
18.369232,3.315166679133512,0.1376949097855396
18.371632,3.3587897949583634,0.1368881120984244
18.37402,3.4042280200745285,0.1360966247504973
18.49348,3.769822607356787,0.1354211990703728
18.495868,3.769962376983647,0.1354077461098204
18.498264,3.780392189596312,0.1350991265008269
18.50066,3.792404794074813,0.1347756297536061
18.503048,3.808421600046148,0.1343402059969958
18.505428,3.8247179452712032,0.1338828273670609
18.507824,3.8392917290035617,0.1334529120554088
18.510212,3.853213886429863,0.1330106434969666
18.512592,3.862200676803552,0.1326973365355469
18.514992,3.8754712079237943,0.1322390368905454
18.51738,3.894096414977231,0.1316028746559047
18.51976,3.905923923858497,0.1311418051857796
18.522164,3.911093504194456,0.1308438772655773
18.524552,3.915331918970636,0.1305658160801235
18.526932,3.9206412689334544,0.1302564210989074
18.529332,3.921574330351103,0.1300242125480677
18.53172,3.919853664716275,0.1298384419834801
18.5341,3.922556509454863,0.1295061395721677
18.5365,3.929775412365481,0.1290896153251306
18.538884,3.936202919343181,0.128681788749669
18.541264,3.937183202589072,0.128376731267552
18.543656,3.9337871972897913,0.128142206205079
18.546044,3.9251762856841785,0.1280570044665917
18.548424,3.9169846829591455,0.1279311806829171
18.550828,3.91107472023425,0.127727886814772
18.553216,3.905304527136216,0.1275114372657028
18.5556,3.899813873291902,0.1272680590528891
18.558,3.897256485753783,0.1269570588063304
18.560388,3.8985635300816375,0.1265591963990954
18.562768,3.9010812792229914,0.1261191414495699
18.565168,3.904158106871785,0.1256343621797722
18.567552,3.910168200826774,0.1250774345038597
18.569932,3.9208341225806542,0.124430980183137
18.572332,3.931919353215116,0.1237431475448928
18.574716,3.938628295304406,0.1231183213115347
18.577096,3.947479107766973,0.1224351637917593
18.579512,3.959123416908875,0.1216983939017724
18.581896,3.967834459744582,0.1210367523491155
18.58428,3.9723089836619776,0.1204244429203827
18.586676,3.9766437379525135,0.1198259230946732
18.589064,3.9881482774675554,0.1191201849464901
18.591448,4.00309793996799,0.1183712015856454
18.593844,4.016045501722008,0.1176603297774969
18.596232,4.027642589035667,0.1170049357803621
18.598616,4.033093604483216,0.1165040983985907
18.601012,4.032538317691513,0.1161391621252358
18.6464,3.848245092409556,0.1159039678179214
18.64878,3.848943940543857,0.115839966666448
18.65118,3.855229782036828,0.115680527748065
18.653568,3.8610963146492185,0.1155592686450057
18.655948,3.864261898380891,0.11554676281798
18.658344,3.8739456410310114,0.1154233191245819
18.660736,3.888564750733744,0.1151959156223937
18.663116,3.906117126742672,0.1149102088243155
18.665512,3.925764151296635,0.1146401458836633
18.6679,3.947273506970153,0.1143446387998873
18.670284,3.963847495591059,0.114157299999754
18.67268,3.979862405704524,0.1140175154702051
18.675064,3.998670812497325,0.11383880850169
18.677464,4.020831794476901,0.1135661858434068
18.679856,4.045134646829755,0.1132456000161725
18.682244,4.07395355735464,0.1128646628023693
18.684624,4.104355259745361,0.112478679552793
18.68702,4.138481624375196,0.1120425657696559
18.689408,4.17097797531095,0.1116896798186707
18.691792,4.2064075925529,0.1112874573683632
18.694188,4.24183720979485,0.1108933610679965
18.696576,4.278058222969718,0.1104998928037209
18.69896,4.314139466517726,0.1101286320679108
18.701364,4.354504450812289,0.1096666693653904
18.703748,4.395148974360571,0.1091724967015746
18.706132,4.433000001229519,0.1087291571073067
18.708528,4.46749845291169,0.1083736690295865
18.710912,4.50385923571342,0.1080052235541099
18.713296,4.538217917768731,0.1076682623493162
18.715692,4.568572398331208,0.1074053493282461
18.71808,4.596924778147269,0.1071738004093884
18.72046,4.627978106844049,0.1068514841346483
18.722856,4.650883262928299,0.1066843334461306
18.725244,4.672717483825912,0.1065442853071118
18.727624,4.69133889916361,0.1064762584965563
18.730024,4.708377522635471,0.1064136881763124
18.734792,4.735284984354688,0.1063653411017012
18.741972,4.759398949394567,0.1063571827166716
18.744368,4.765869886484772,0.1063378526513686
18.749136,4.772201053948116,0.1063297791837303
18.751532,4.778719212866565,0.1062537444608593
18.75392,4.782443875105678,0.1062101334968365
18.7563,4.787798551038872,0.1061052434559768
18.758696,4.787286694359675,0.1060858995681394
18.761084,4.793479988054029,0.1059234937916037
18.763468,4.8013032954424615,0.1057003564819022
18.765864,4.812618947644531,0.1053949537078592
18.768256,4.82407436947346,0.1050845340110007
18.770636,4.8419554024222204,0.1046489892335985
18.773036,4.8599762049978406,0.104206449711383
18.775424,4.87948725164068,0.1037152127260536
18.777804,4.8971359671639645,0.1032457990159738
18.780212,4.914784682687247,0.1027763853058941
18.7826,4.935226894889865,0.102274436536523
18.78498,4.953527236719207,0.101814105179
18.787376,4.97089641298877,0.1013638795119626
18.789764,4.9856118622058565,0.100931875998091
18.792148,4.99739404511675,0.100543153314067
18.794544,5.004892487281089,0.1002342157725181
18.796932,5.008666267206315,0.0999642231562161
18.799316,5.0070853711983485,0.0997975245110416
18.801712,5.007646345563659,0.0995897403680725
18.8041,5.005134283995914,0.0994325650796405
18.80648,5.005835027988084,0.0992141983041262
18.808876,5.001041326420202,0.0991076151431339
18.811264,4.999832517464572,0.0989716667169934
18.813648,4.999415104441861,0.0988365377853751
18.816044,4.994993489926316,0.0987587743478417
18.818432,4.9899202491047125,0.098671042226773
18.82322,4.966969767050087,0.0986645761711133
18.825608000000003,4.956029993616094,0.0986510392974873
18.827988,4.948582564995737,0.0985612438103827
18.830392,4.94155444525596,0.098442870554988
18.83278,4.933734929583266,0.0983236673777245
18.835164,4.92698634909721,0.0981855381509756
18.83756,4.926755927529602,0.0979847990321243
18.839948,4.927456671521772,0.0977748599835266
18.842332,4.931370221073857,0.0975081482372562
18.844728,4.942081468798111,0.0971589000224665
18.847116,4.952932486149225,0.0967980601028666
18.8495,4.967508165739455,0.0964062185247949
18.851896,4.987438521262876,0.0959259455148734
18.854284,5.008439811972934,0.0954338486433921
18.856668,5.02613574932446,0.0949438314404392
18.859064,5.0361028229440405,0.0945429892471843
18.861452,5.042857091003705,0.0941973130457014
18.863832,5.052404855742704,0.0938255682509963
18.866236,5.060741915668204,0.09348348555105
18.86862,5.076435752273313,0.093026664258948
18.871,5.093060754438201,0.0925588701674215
18.8734,5.110616922162868,0.092087914633815
18.875784,5.122818413954341,0.0917076500990275
18.878168,5.133948970559176,0.0913471679365182
18.88056,5.146941858283568,0.0909695058966142
18.882948,5.160726141940877,0.0905950114683091
18.885328,5.170134137053016,0.0902453136581181
18.887724,5.181684002538433,0.0898646883450615
18.890112,5.195096199143406,0.0894718931086819
18.892492,5.208927704628959,0.0890600748790197
18.894896,5.22518061974151,0.0885997009448621
18.897284,5.235567002241671,0.0882025399399497
18.899664,5.242461039928194,0.0878738239014496
18.902068,5.247213207241441,0.0875782379957229
18.904456,5.258343763846276,0.0872437409333568
18.906836,5.275201083436641,0.0868582994487502
18.909236,5.292617481534449,0.0864367574384052
18.911624,5.311244584445754,0.0859955520128264
18.914004,5.329592148103338,0.08557256756717
18.9164,5.345378532507064,0.085211463270269
18.918788,5.361956312843708,0.0848519828610226
18.921168,5.373598726127742,0.0845420928197233
18.923568,5.387243240158192,0.0842094326306187
18.925952,5.400468445308062,0.0839029899273097
18.928332,5.416626916764125,0.0835717516067778
18.930736,5.430783287473773,0.0832621747773821
18.933124,5.443309644489339,0.083000263861851
18.935504,5.451552260758354,0.0827987836865662
18.966568,5.431767362435402,0.082732303187348
18.968956,5.441079018033186,0.0826761612870719
18.971352,5.452113235123665,0.0826175693674752
18.973748,5.4632872218410045,0.0825506396854134
18.976136,5.471388172625289,0.0825174310925194
18.978516,5.482282620088908,0.082467928608011
18.980916,5.498252204232,0.0823667999526259
18.9833,5.518225989867926,0.0822275433900296
18.985684,5.537408379570932,0.0820849517461199
18.98808,5.560594970766773,0.0819032547697926
18.990468,5.578054798977084,0.0817627382085578
18.992848,5.5983081238667305,0.0816075462684641
18.995244,5.625219377301684,0.0814059638417413
18.997632,5.654784357789112,0.0811925806543762
19.000016,5.684489107903402,0.0809715498486499
19.002412,5.711260591711497,0.0807764410474849
19.0048,5.741384650706366,0.0805366575388073
19.00718,5.771648479328095,0.0802883562194786
19.009576,5.8011209120169065,0.0800377012487732
19.011964,5.828870783213023,0.0797926199873284
19.014348,5.8495434169832485,0.0796206372656246
19.016744,5.864209748514224,0.0795049930696757
19.019132,5.8790158496720615,0.0793830625750267
19.021512,5.895032655643396,0.0792414360324447
19.023912,5.913191331988008,0.0790757293899395
19.0263,5.932560713146119,0.0788925180856658
19.028696,5.950347302438394,0.0787065589888939
19.0311,5.970135992477085,0.0785072549025972
19.033484,5.99392888400861,0.0782763088514108
19.035868,6.014136882927882,0.0780564557654598
19.038264,6.038488852966847,0.0777952500930563
19.040652,6.058045225580061,0.0775651405431567
19.043032,6.073225309648104,0.0773446170543998
19.045428,6.093108443343283,0.0770576638844798
19.047816,6.114993677784876,0.0767568130453822
19.050196,6.140091717786387,0.0764228279014789
19.052596,6.15611041961559,0.0761635023033623
19.054984,6.170127020698378,0.0759188322317804
19.057364,6.183352225848246,0.0756708817018552
19.05976,6.194295790997979,0.0754528668425563
19.062148,6.204168420961071,0.0752451761162832
19.064528,6.213529194244967,0.075018597776654
19.066924,6.221027636409306,0.0748018423260587
19.069312,6.226384208200368,0.0746087372447739
19.071692,6.2294591399912935,0.074446987326929
19.074088,6.227598704729606,0.0743214191334225
19.076476,6.224527564654419,0.0742148268306996
19.078872,6.212656625660648,0.0741674416260015
19.081268,6.197992189987541,0.0741317289254352
19.083656,6.187192186180408,0.0740721170513858
19.086036,6.176112643119555,0.0740267753021865
19.088436,6.171039402297952,0.0739359199476068
19.090824,6.167968262222765,0.0738299560361789
19.093204,6.160613381401025,0.0737679481731007
19.0956,6.152187565392646,0.0737166342490387
19.097988,6.142690814197628,0.0736756074477129
19.100372,6.143344336361556,0.0735565374713438
19.102768,6.1513546352050925,0.0733717845305822
19.105156,6.163369135541462,0.0731605038532473
19.10754,6.176594340691331,0.0729306712167232
19.109932,6.1910302506546975,0.0726820756500745
19.11232,6.207188722110763,0.0724332361197752
19.1147,6.221484862447271,0.0721909612673425
19.117104,6.239785204276614,0.0719221133623145
19.119492,6.2567822934938375,0.0716316312881924
19.121872,6.274710548270843,0.0713360711316567
19.124272,6.294780673421123,0.0710217277990124
19.12666,6.3239301367437095,0.0706416683380193
19.12904,6.351868895252798,0.0702792224236451
19.13144,6.376874387455691,0.0699357944147723
19.133828,6.403090584472082,0.0695777072281071
19.136208,6.4243714144358615,0.0692531560502201
19.138604,6.444301769959282,0.0689540128184341
19.140992,6.461298859176508,0.0686700885329607
19.143376,6.477504552460815,0.0683836564094046
19.145772,6.489566274625428,0.0681299084885058
19.14816,6.4926884282445965,0.0679328631521984
19.15054,6.488593574811016,0.067792460271821
19.15294,6.482636390257879,0.0676585399963412
19.155328,6.481614572757352,0.0674972566853195
19.157708,6.485528122309438,0.0673094158514588
19.160108,6.493445873354358,0.0670988529696682
19.162496,6.50508828663839,0.0668777411909899
19.16488,6.514216742496809,0.066653336276489
19.167284,6.525998925407701,0.0664281479570078
19.169672,6.542204618692009,0.0661615832537908
19.172056,6.554266340856621,0.0659253167411281
19.174452,6.561392695968624,0.0657162352855066
19.17684,6.570940460707623,0.065476867313625
19.179224,6.582490326193039,0.0652267570848261
19.181628,6.590455299066202,0.0649801487961155
19.184012,6.599630976752864,0.0647184679203761
19.186392,6.609086193693245,0.0644441245916637
19.188796,6.623476777686239,0.0641455502676443
19.191184,6.637727592052372,0.0638540582560491
19.193568,6.658264247911477,0.0635177263688835
19.195964,6.684946975636692,0.0631424488197755
19.198348,6.712840408175406,0.0627508089117205
19.200732,6.7396629055274815,0.0623701978726932
19.203128,6.762760740640445,0.0620022333049303
19.205516,6.785067179820489,0.0616359390680488
19.207896,6.802717791201642,0.0612823175894413
19.210291999999995,6.8199963155304575,0.0609084568449712
19.21268,6.838857631725109,0.0605460963770718
19.21506,6.858650113479539,0.0601846409441804
19.21746,6.876440494487551,0.0598368322104469
19.219848,6.8983748466152575,0.0594651139087423
19.222228,6.922171529862521,0.0590914116610257
19.224624,6.945688673856063,0.0587326726805465
19.227012,6.9692058178496055,0.0583760863336896
19.229396,6.9995206600153175,0.0580017103521488
19.231792,7.028485027740672,0.0576471779345814
19.23418,7.060522431399079,0.0572802978838576
19.23656,7.089906108005013,0.0569134177532715
19.238956,7.119569323864666,0.05653591111071
19.241344,7.146159503791265,0.0561772089185094
19.243728,7.172330374837282,0.0558395737826617
19.246132,7.19929264181622,0.0555071013391244
19.24852,7.226115139168294,0.0551813451621564
19.250904,7.252658097266649,0.0548684205263124
19.2533,7.272123817939114,0.0545863838291241
19.255688,7.294103496037195,0.0543144314079738
19.258068,7.312590829321641,0.0540750764094874
19.260464,7.331217932232946,0.0538322340455569
19.262852,7.348913869584472,0.0535919798455815
19.265232,7.364188397309002,0.0533769901659541
19.267632,7.375458723540698,0.053177094405294
19.27002,7.386868819399253,0.0529726599000184
19.2724,7.399210080817586,0.0527688748120699
19.274796,7.412622277422559,0.052560291091418
19.277184,7.419748632534562,0.0523850140034046
19.279564,7.4291566276467,0.0521920941513902
19.28196,7.4362829827587005,0.0520184008084789
19.284348,7.447134000109815,0.0518437500266149
19.286744,7.458776413393848,0.05167495217675
19.28914,7.470418826677881,0.0515066211663093
19.291528,7.482340779215634,0.0513286717877873
19.293908,7.49347133582047,0.0511457513316668
19.296304,7.50781469798522,0.0509467847291646
19.298692,7.523089225709749,0.0507480293868523
19.301072,7.543438890113751,0.0505311219927255
19.303472,7.560995057838417,0.0503157262192168
19.305856,7.583626362242555,0.0500834850346679
19.30824,7.600902990713501,0.0498795997162877
19.310636,7.61617751843803,0.0496820930898659
19.313024,7.632522981349198,0.0494788294363162
19.315408,7.6516619409397,0.0492749565786389
19.317804,7.667588094970288,0.0490882356888826
19.320192,7.680301443440959,0.0489187196212883
19.518512,4.471512507876344,0.0488607441987035
19.520896,4.417644675036062,0.0488555130127651
19.528068,4.246357433865094,0.0488054588875158
19.530452,4.191837974718753,0.0487831817828664
