Time,Force,Position
18.877952,1.9969185921468116,0.1752514848080713
18.880332,2.0768873239104373,0.1739411119930161
18.882728,2.141539993694899,0.1735682461131341
18.885116,2.1994894089636783,0.1733156148349839
18.8875,2.2581848941950016,0.172714588441832
18.889896,2.320979024575645,0.1714771085572145
18.892284,2.374835482268712,0.1705154588419946
18.894664,2.4263196480208937,0.1692598789667662
18.89706,2.4732896514589133,0.1679620969700295
18.899452,2.515838040381388,0.1666960474082763
18.901832,2.5542443540420376,0.1654245758277558
18.904228,2.587856966134805,0.1641294825157597
18.906616,2.6089470129277434,0.1632480873111112
18.909012,2.6210993870331043,0.1625673005564058
18.913796,2.6231487096077646,0.1623502609979685
18.918576,2.63138753416104,0.162328505895385
18.92574,2.652054480357659,0.1622637694573369
18.928128,2.670256586814776,0.1618698613569438
18.930508,2.695256391444061,0.1611613276289053
18.932904,2.7210948138345072,0.1603042175578007
18.935292,2.7448385876799195,0.1594845313335611
18.937676,2.7642060729801607,0.1588453805988576
18.940072,2.790650795706292,0.1578873019902941
18.942456,2.8133708561933086,0.1570782080937265
18.94484,2.832226484814352,0.1564340063137081
18.947236,2.8488476952635016,0.1558186842702523
18.949624,2.862907726458793,0.1553733115697491
18.95202,2.876129139892924,0.1550468397743813
18.954416,2.891305432245228,0.1547233772576791
18.9568,2.908157064261986,0.154447656104767
18.959184,2.928733358517857,0.1540237865358006
18.96158,2.94865802646767,0.1536017916125764
18.963972,2.9635075577380103,0.1534184132238286
18.966352,2.980871046433966,0.1531815407429716
19.059528,3.071033481669041,0.1529818325643885
19.061928,3.0690786027508667,0.1529671271577138
19.064316,3.0709881556986667,0.1528136154997211
19.066692,3.0769019101393003,0.1525022795852933
19.069096,3.0757384271540453,0.1524751187319367
19.071484,3.073131921929813,0.1524560914298047
19.073864,3.0733661352131594,0.1522512070411106
19.07626,3.075881988496644,0.1519289014151272
19.078648,3.0754645754739327,0.1517177667911789
19.081044,3.0789115943171943,0.1513642077584737
19.08344,3.0810081387200974,0.1510927267271149
19.085828,3.082126295734979,0.1509466880108655
19.088208,3.0845477053619765,0.1508093955725014
19.116872,3.0877132890936494,0.1507317653621519
19.119276,3.089296080959485,0.1507061480117169
19.121664,3.094184226183854,0.1506155097705488
19.124044,3.1005153936471985,0.1505199321732065
19.126444,3.113504489655852,0.1502095895837153
19.128832,3.1230012408508685,0.150071219119824
19.131212,3.139155920591195,0.1497219449097226
19.133608,3.1589427147720173,0.149187249235267
19.135996,3.181150918579837,0.1485433524542227
19.138376,3.201868878320437,0.1480035312681786
19.140776,3.2250082476880357,0.1473432728497457
19.14316,3.2502894874289097,0.1465921301845883
19.145544,3.2789233023565605,0.1457195138128262
19.14794,3.309419448403768,0.1448165100174231
19.150328,3.3416381559436714,0.1438714130916065
19.152724,3.371155914602858,0.1430876615640021
19.15512,3.4058885795683755,0.1421048933783072
19.157508,3.4434147412132283,0.14104894543597
19.159888,3.480149506925164,0.1400066969096224
19.162288,3.512320992636824,0.139150819204106
19.164672,3.543421543161846,0.1383400324765532
19.167056,3.5740102370076707,0.1375193288310692
19.16946,3.5998033334277437,0.1368523645667265
19.171848,3.62387386835512,0.1362256369126682
19.174228,3.641146705110328,0.1358107473604204
19.176624,3.6597700163058935,0.1353198814819861
19.207676,3.701479787467207,0.1350101041101747
19.210056,3.7016195570940673,0.1349959349533631
19.212452,3.702970031534426,0.1349322558492232
19.21484,3.7061828370943415,0.1348280485824659
19.217224,3.712608448214173,0.1346207652762227
19.21962,3.72182755601334,0.1343548764681783
19.222008,3.733840160491841,0.1340251989753036
19.224392,3.747854865716759,0.1336444573885742
19.226796,3.762800736501455,0.1332415399857445
19.22918,3.780540103965486,0.1327791335131225
19.23156,3.802283672922351,0.1322072370243919
19.23396,3.8232358459462974,0.1316455048344901
19.236348,3.839671960798213,0.1311784238012853
19.238728,3.85531667971721,0.1307217539929618
19.241124,3.871520477143648,0.1302011788236224
19.243512,3.8858619434505295,0.1297157601597523
19.245908,3.894708964197358,0.1294204467852339
19.248304,3.905558085690604,0.1290749142527281
19.250692,3.920411408676684,0.1286219359890894
19.253076,3.938197997968958,0.1280987277473376
19.255472,3.958358775059987,0.127564549432536
19.25786,3.977448616964377,0.1270678605795456
19.26024,3.995467523682128,0.1266064912616978
19.26264,4.008551063347268,0.1262684170795496
19.265024,4.016559466332936,0.1260640515129722
19.267408,4.020191580773432,0.1259287466631209
19.269808,4.024382773721369,0.1257424356567554
19.272196,4.027782570736388,0.1255638130253344
19.27458,4.031461907005128,0.1253596880656583
19.276976,4.032627285848252,0.1251845929218897
19.279364,4.030859398385182,0.1250762494632466
19.281748,4.030022676481891,0.1249504040307446
19.284144,4.028766645698018,0.1248625790376392
19.286536,4.0260203708469255,0.1248440680201847
19.28892,4.025648283794588,0.1248103876267032
19.291316,4.030351333421724,0.1246484837389484
19.293704,4.035054383048858,0.1244849794990918
19.296088,4.03496183525024,0.1244251681079033
19.30326,4.019600447300702,0.1244124067594797
19.305656,4.013968127971658,0.1243861578082259
19.308048,4.008615347896335,0.1243342628121271
19.310428,4.005683977448008,0.1241967999413254
19.312828,4.006477269238796,0.1239888037133148
19.315216,4.00764264808192,0.123813053953124
19.3176,4.008248948417605,0.123689674623504
19.319996,4.005782212820234,0.1236445140717929
19.322388,4.00410687315578,0.1235945392261048
19.324768,4.004014325357163,0.1235353523096349
19.327172,4.006203417558683,0.123403607357282
19.329556,4.005599013080869,0.1233233719035885
19.33194,4.010628823789967,0.1230709047110212
19.334336,4.02008214487248,0.1226906332305461
19.33672,4.032515954089431,0.1221852828822428
19.3391,4.043087432186825,0.12172035285185
19.341496,4.056220089538076,0.1211642125671567
19.343884,4.074427883568801,0.1204921936015846
19.346264,4.096360339838638,0.1197667829169208
19.348668,4.117221860921838,0.1190675879229856
19.351056,4.139666173870872,0.1183583862369015
19.353436,4.157314889394155,0.117743932071135
19.355832,4.172821734544161,0.1171822505247909
19.35822,4.188840436373365,0.1166452826061598
19.3606,4.207420317456427,0.1160274566465034
19.362996,4.228701147420207,0.115309383866284
19.365384,4.246536854398594,0.1146230410490497
19.367764,4.266234892496538,0.1139018551728166
19.37016,4.282348037982228,0.1132274329235355
19.372544,4.295016060482526,0.11258711336108
19.420364,4.082045590160414,0.1123267688082982
19.425132,4.079299315309322,0.112298468452001
19.42754,4.084094912735074,0.1122181828952759
19.429928,4.095688208332995,0.1120199247709743
19.432312,4.10993523098339,0.1117910286223034
19.434728,4.125345736619041,0.1115928310824981
19.437112,4.143689508560887,0.1113421285270855
19.439492,4.166037481995566,0.1110128623302402
19.441892,4.194251988042636,0.1105695600857463
19.444276,4.217623674835711,0.1102758427208204
19.44666,4.24499956312162,0.109907138190779
19.449056,4.2674400843549165,0.109635656030113
19.451444,4.297609469320161,0.1092434694212445
19.453824,4.329082106897521,0.1088775962841848
19.456224,4.358412874101602,0.1085576920899136
19.458612,4.389466202798381,0.1082283956105837
19.460996,4.4219625537341365,0.1079144776528579
19.463396,4.459394271722503,0.1075156755948915
19.46578,4.49095945709848,0.1072204563346762
19.468164,4.518520440981623,0.1070011754735098
19.47056,4.549945856730739,0.1067305684754509
19.472948,4.580859415800657,0.1064372771637198
19.475332,4.6143341541244345,0.106079018782482
19.477728,4.642314446888157,0.1058457208244528
19.480116,4.67136567483852,0.1055931392795432
19.4825,4.697763175736407,0.1053601765506218
19.4849,4.724020907007435,0.1051415031850295
19.487284,4.747996998278324,0.1049785390114015
19.489664,4.772532168056655,0.1047789872728567
19.492064,4.802701553021898,0.1044499293121386
19.494456,4.829518362800368,0.1041994495892063
19.496836,4.857406107765473,0.1039256995322848
19.499232,4.87928755049133,0.1037571325157095
19.50162,4.897584100604933,0.1036217446414248
19.504004,4.920676248144287,0.1034227417206238
19.5064,4.93939210713847,0.1032582324110871
19.508788,4.954523073520401,0.1031273706787049
19.511172,4.966720773596136,0.1030399493089756
19.513568,4.980268948112228,0.1029115181523048
19.51596,4.995307366695544,0.1027334998881651
19.51834,5.005550187853105,0.1026203664516665
19.520736,5.018446736063141,0.1024869329583784
19.523124,5.024405816474148,0.102455294538598
19.525508,5.033205615392733,0.102335643162662
19.52792,5.041214018378401,0.1022177140269522
19.530308,5.051783600617926,0.1020309716360795
19.532688,5.058768290245197,0.1018744072722091
19.535084,5.070176490245885,0.1016324589905452
19.537476,5.080234215806211,0.1014315070986114
19.539856,5.086567279127426,0.1012707721334628
19.542252,5.0953217520756375,0.1010543675472593
19.544644,5.105147160210488,0.1008199504546947
19.547024,5.112598380546584,0.1005853249943858
19.54942,5.120608679390121,0.1003123386146639
19.551808,5.124102920061627,0.1000778410955084
19.554188,5.130111118158746,0.0998333564806388
19.556584,5.137190251442504,0.0995696239808644
19.558972,5.144409154353124,0.0992966815282723
19.561356,5.153490388383298,0.0990067452382186
19.563752,5.159358816853557,0.0987725203430811
19.566136,5.165506784577538,0.0985199053009176
19.56852,5.17058381711488,0.0982873392408709
19.570916,5.180735986331693,0.0979822473404697
19.573304,5.187675349988592,0.097732404200716
19.575684,5.190750281779516,0.0975275029670073
19.57808,5.192614508756941,0.0973503440661738
19.580468,5.198622706854061,0.0971093699971478
19.582852,5.200766473085208,0.096915864970496
19.585248,5.202118843383436,0.0967224223965276
19.587636,5.206124940734139,0.096512683007234
19.590016,5.20519567103223,0.0963643961295316
19.592432,5.203335235770541,0.0962250025740238
19.59482,5.20305759237469,0.0960862307190423
19.5972,5.203291805658036,0.0959661664645629
19.599596,5.208321616367136,0.0957947399757992
19.601984,5.212839570397036,0.0956050166450913
19.604364,5.217357524426937,0.0954155518952697
19.606764,5.224948514389894,0.0951849757481171
19.609152,5.228535302860015,0.0950055132458402
19.611532,5.236405832076692,0.09475731081824
19.613928,5.245207526853147,0.0945023248824841
19.616316,5.251355494577126,0.094262105649619
19.618696,5.253359491181412,0.0940825088160957
19.621092,5.259227919651672,0.0938618613247938
19.62348,5.269891945547683,0.0935915934439015
19.625864,5.286003195175504,0.0932852564094316
19.62826,5.299832804803188,0.0930236989962137
19.630644,5.3112410048038745,0.0928120614494617
19.633024,5.323580370364341,0.0925936198170311
19.635424,5.332055304058832,0.0924155026538164
19.637816,5.345325835179075,0.0921891970848267
19.640196,5.359527531859095,0.0919562706910885
19.642596,5.372798062979338,0.0917305234108782
19.644984,5.389001860405776,0.0914749291237886
19.647364,5.400130521152741,0.0912848621840936
19.649764,5.412050577832625,0.0910971288169914
19.652148,5.425972735258926,0.0908874831038818
19.654532,5.436682087125312,0.0907281587409206
19.656928,5.448881683058915,0.0905260061646839
19.659316,5.457728703805745,0.0903813194735301
19.6617,5.4662961852988525,0.0902548842501334
19.664096,5.479938803471433,0.0900678082654029
19.666488,5.4937211912708745,0.0898714083627038
19.668868,5.507783118324036,0.0896611033667121
19.671264,5.522124584630918,0.0894371461704044
19.673656,5.530227431273072,0.0892460826973243
19.676036,5.539680752355584,0.0890242365339741
19.678432,5.552626418251733,0.0887402121514457
19.68082,5.564361379334383,0.0884801828098946
19.683204,5.582102642656283,0.0881574545652788
19.6856,5.597981574858626,0.0878499843162236
19.687992,5.610135844821857,0.0875679434059868
19.690372,5.626434085904781,0.0872373101992752
19.692768,5.64007859993523,0.0869207079426319
19.69516,5.658006854712236,0.0865466515877066
19.69754,5.674212547996542,0.0861780702095111
19.699936,5.686553809414876,0.0858435549087281
19.702324,5.703178811579765,0.0854561022223528
19.704708,5.723388706356905,0.0850559149788796
19.70712,5.7490930466941,0.0845824279269273
19.709508,5.773214595165457,0.0841057150158547
19.711888,5.792400776584202,0.0836766564803652
19.714284,5.812657893189587,0.0832341150007823
19.716672,5.827839873115499,0.0828442895089611
19.719052,5.839017651548577,0.0824941448212668
19.721448,5.852057761101213,0.0821323292299165
19.723836,5.863887165840349,0.0817936398790515
19.726216,5.87864983688568,0.08143593461274
19.728616,5.895182291251951,0.0810280872856075
19.731004,5.904777277819193,0.0806820001038211
19.733384,5.915582969199934,0.0803167670511881
19.735796,5.9330465891259845,0.0799092819017947
19.738184,5.9465060075592,0.0795401711372361
19.740564,5.957963325245999,0.0791881844809692
19.742968,5.969280873305937,0.0788475243738505
19.745352,5.98339191804521,0.0784938759342
19.747732,5.999505063530901,0.0781224255560258
19.750128,6.007609806030924,0.0778206148604374
19.752516,6.012641512597892,0.0775498617861641
19.7549,6.013249708791445,0.077337074064793
19.757296,6.012786969798359,0.0771354987689256
19.75968,6.013395165991913,0.0769210426462439
19.762064,6.013863592558606,0.0767142562541391
19.76446,6.017125515804635,0.0764927679173151
19.766848,6.023320705356857,0.0762499871083499
19.769228,6.032309391588415,0.0759956173456205
19.771644,6.041158308193112,0.0757489040326759
19.774032,6.044652548864618,0.0755630605211718
19.776412,6.043443739908989,0.0754464057502405
19.778808,6.048241233192609,0.0752815705729939
19.781196,6.0527591872225095,0.0751324995473821
19.783576,6.052341774199798,0.0750199852066108
19.785972,6.051784591550227,0.0749145281606061
19.78836,6.053089740020212,0.0748004074730415
19.790744,6.0493197518107245,0.0747293072833304
19.79314,6.045409993974378,0.0746657959489696
19.795524,6.044153963190505,0.0745976113847465
19.797908,6.045551659459108,0.0745239944416562
19.800304,6.049091226100987,0.0744279165900862
19.802688,6.0537017279295045,0.0743207258496846
19.805072,6.062968057556914,0.0741938975381674
19.807468,6.073817179050158,0.0740739800672346
19.809856,6.085597466103182,0.0739506867055972
19.812236,6.099519623529483,0.0738059703549185
19.814648,6.112091306515425,0.0736873202563852
19.817036,6.120519018381674,0.0736062975207777
19.81942,6.128015564688143,0.0735289424557105
19.821816,6.136722815808112,0.0734331212216153
19.824204,6.150644973234413,0.0732887989854823
19.826588,6.1601436202872994,0.0731966775624509
19.828984,6.169642267340186,0.0731052131645575
19.831376,6.181422554393209,0.0729851254985582
19.833756,6.196275877379289,0.0728401427064558
19.836152,6.212060365925145,0.0726921824695012
19.83854,6.2318490559638375,0.0725143976013769
19.840924,6.248564710069473,0.072362418626454
19.84332,6.259413831562719,0.072246929825362
19.845704,6.274686463429378,0.0720822221126801
19.848088,6.287025828989844,0.0719363719496012
19.850484,6.297363093803891,0.0718049524225235
19.852872,6.3029047611921865,0.071698800356463
19.855252,6.312730169327036,0.0715523327263245
19.857648,6.322695347088748,0.0713998601876241
19.860036,6.328516553730763,0.0712819596365765
19.86242,6.337690335559555,0.0711271575174378
19.864816,6.351427397388621,0.0709189851073613
19.867204,6.368656804031324,0.0706681499489195
19.869584,6.387096915487527,0.0704018509655533
19.87198,6.408749832503645,0.0701111955886527
19.874368,6.4332434680273405,0.0697681218889961
19.876752,6.458947808364534,0.0694117738454715
19.879148,6.48344144388823,0.0690736893292336
19.881536,6.507283453105867,0.0687288268114507
19.883916,6.532336167137002,0.0683710057425816
19.886316,6.557808190048719,0.0679963161123933
19.8887,6.583047895534958,0.0675904996616122
19.891084,6.6137820465812505,0.067132431662363
19.89348,6.640232456880989,0.0667142369575385
19.895868,6.668964507180864,0.0662730038319254
19.898252,6.695973995988043,0.0658278278285426
19.900648,6.728198391101555,0.0653457976498644
19.903036,6.752554152856259,0.0649069572563613
19.90542,6.775187353118266,0.0644681191290671
19.907816,6.803594538194048,0.0639681047763975
19.910204,6.831070557710049,0.0634765882646648
19.912584,6.857335872412553,0.0630066623363324
19.914984,6.8822507126747,0.0625623018842193
19.917372,6.903161351444011,0.0621387451832356
19.919752,6.914201256108098,0.061761982859107
19.922152,6.923890686331826,0.0614077098816189
19.92454,6.928784519129802,0.0610693448540763
19.92692,6.933818121554639,0.0607250741119849
19.92932,6.937361479912257,0.0604084580008874
19.931708,6.939833903083237,0.0601015599373984
19.934088,6.941095621440717,0.059809596347622
19.936488,6.945802462783591,0.0595238295272076
19.938876,6.9520920959923,0.0592502767445539
19.941256,6.959732203641368,0.0589569093561717
19.943656,6.966161606476938,0.0586782804674125
19.946044,6.978737081178618,0.0583676196174236
19.948424,6.988239519947244,0.0580753760022785
19.950824,7.000814994648925,0.0577664135057989
19.953212,7.017906527522637,0.057459109237562
19.955592,7.03243688114249,0.0571874505485348
19.957988,7.04282326364265,0.0569388002573741
19.960376,7.049205444649976,0.0567070823487397
19.962756,7.053445755284026,0.0564896218307026
19.965152,7.062481663343828,0.0562606835913009
19.96754,7.076825025508578,0.0560356610259648
19.969924,7.095032819539302,0.0558025338172034
19.97232,7.118687837301836,0.0555695815720574
19.974712,7.143274020624148,0.0553369093403156
19.977092,7.170421383200319,0.0550749012547152
19.979488,7.196497810589849,0.0548208838497314
19.981876,7.2233656339123,0.0545729109114583
19.98426,7.250373226861609,0.054321878651073
19.986656,7.270443352011892,0.0540952659135129
19.989044,7.294238139401287,0.0538679232876971
19.991428,7.318824322723598,0.0536465230370042
19.993824,7.342060031605551,0.0534459588478788
19.996212,7.364224805300866,0.0532521182014853
19.998596,7.389834701981574,0.0530687853481161
20.000992,7.411859706050029,0.0528844522120204
20.003384,7.4310912134391485,0.0527024163537466
20.005764,7.454466691947961,0.0525019421510063
20.008164,7.478773336016553,0.0523005334866907
20.010552,7.504430454525503,0.0520821964166754
20.012936,7.529296177101536,0.0518608297529418
20.015332,7.55378981262523,0.0516184829210697
20.01772,7.570414814790119,0.0513971193967679
20.020104,7.581592593223197,0.0511733077283435
20.0225,7.593841306842914,0.0509450703759682
20.024888,7.602457906022134,0.0507516586295554
20.027268,7.608281008522019,0.0505587599935645
20.029664,7.613312715088988,0.0503611758840438
