Time,Force,Position
21.287692,2.481052957103516,0.1878952077078587
21.290088,2.604270821781787,0.1830326379120022
21.292472,2.717714291869189,0.1788794885447599
21.294856,2.820357758149459,0.1756830610247572
21.297256,2.9180205314067424,0.1730082873552862
21.299644,3.011541229402201,0.1704407515155652
21.302024,3.097521950978686,0.1680661574233619
21.30442,3.174751991322697,0.1660157619885154
21.306808,3.2511925315916588,0.1638924150072412
21.309204,3.312781644732411,0.1624558813557755
21.311608,3.36343098443917,0.1613633724438785
21.313992,3.406168260674618,0.1602435376097525
21.316372,3.4403418471326948,0.1591021284428441
21.318768,3.45528771791739,0.1585392162769964
21.321156,3.4692098753436915,0.157951362142063
21.323536,3.4859255294493274,0.1572910732839526
21.32594,3.509019572846552,0.1564542373653018
21.328328,3.5356985088560284,0.1555330485066593
21.330708,3.55930440893245,0.1547388688867507
21.333104,3.582211460874571,0.1540372262115959
21.335492,3.611449680280036,0.1532531981014075
21.337872,3.642735326402293,0.1525396396271558
21.340268,3.6801198225624168,0.1517090266644872
21.342656,3.722858994655733,0.1506876714969874
21.345036,3.767740037122327,0.1496279894278667
21.347432,3.814343641081616,0.1485596468134586
21.481232,3.921221730422329,0.1476851566436344
21.483636,3.9080022128460663,0.1476755136346356
21.48602,3.89389875153827,0.1476104078682469
21.4884,3.886081131723445,0.1473487120380474
21.490796,3.88333864858809,0.1469378710247234
21.49318,3.881108022131935,0.1465428167428635
21.49556,3.877666690862281,0.1461939664297213
21.497964,3.869522309965492,0.1460311512227283
21.500352,3.862913499106297,0.1459235246552366
21.502732,3.864917495710582,0.1456534378533991
21.505136,3.873439651233317,0.1452212892800755
21.507524,3.88289297231583,0.1447685332839317
21.509904,3.893696767838701,0.1442432729037159
21.5123,3.905152189667631,0.1437270047074708
21.514688,3.922986000788148,0.143068814208064
21.517068,3.9395165592965498,0.1424111485627787
21.519472,3.950227807020803,0.1418463262317149
21.521856,3.9578660188120023,0.1413766474487409
21.524236,3.9749084339996017,0.1407585163495153
21.52664,3.998189468851929,0.140018421736789
21.529024,4.019328633330979,0.1393608687025076
21.531404,4.0417710504221445,0.138735166398416
21.533804,4.062955540871569,0.1382347280212729
21.536192,4.08395303986589,0.1378191208730957
21.538572,4.10425169072591,0.1374771574132596
21.540968,4.130044787145982,0.1369695092053565
21.543352,4.162495812111364,0.1363188324704068
21.545748,4.20318755748789,0.1354993351003299
21.548152,4.248674900290168,0.134584622946046
21.55054,4.288715019360635,0.1337828665983201
21.55292,4.322656288393235,0.1330805087740792
21.555316,4.353524521492781,0.1324561455841052
21.557704,4.389280899816694,0.1317879828903025
21.560084,4.426480300379583,0.131130113000691
21.562488,4.461305513143719,0.1305111993276461
21.564876,4.493709316280857,0.1299753580466174
21.567256,4.528719624642226,0.1294590202405375
21.569652,4.567547143041326,0.1289254210986462
21.57204,4.595992070656003,0.1286043623138494
21.57442,4.623133745658565,0.1282830114323983
21.576824,4.645340053608515,0.1280646121014549
21.579208,4.661679828946076,0.1279743688120693
21.581588,4.675226107604299,0.1279331482323433
21.583992,4.692544270329883,0.1277631037547851
21.58638,4.706836618950652,0.1276043003388454
21.58876,4.717916162011505,0.1275338931691576
21.591156,4.7269936043259415,0.1275099103462256
21.593544,4.736769894774679,0.1274343029466713
21.595928,4.741238731118467,0.1274298779481411
21.598324,4.7489203730221705,0.1273481137596316
21.600708,4.761629929777104,0.1272189732904416
21.603092,4.780997415077345,0.1269759599119863
21.605488,4.799992813325249,0.1267126205433478
21.607876,4.813540987841344,0.1265251288848184
21.61026,4.824016126424382,0.1264037159353781
21.612656,4.83584173944778,0.1262352172896924
21.615044,4.851299466911673,0.1259635489822299
21.617428,4.866944185830671,0.1256280237676575
21.619828,4.887431724003664,0.1251512339304852
21.622216,4.903635521430101,0.1247737680325749
21.624596,4.925705851468931,0.1242861689901645
21.627,4.9467052463211205,0.1238140937980061
21.629388,4.971988381919863,0.1232407873409929
21.631768,4.994058711958692,0.1227531882985824
21.634164,5.016640898676719,0.1222816251016118
21.636548,5.039223085394744,0.1218131423794978
21.638932,5.0631557465531305,0.1213091970586142
21.641332,5.082153040658904,0.1209013646206719
21.64372,5.100079399578038,0.1205142374134168
21.646104,5.118005758497173,0.1201337732261812
21.648496,5.134768634431052,0.1197348468909278
21.650884,5.144361725140425,0.1194241382780993
21.653264,5.148088283237406,0.119212169985451
21.655664,5.158100682827361,0.1188730068505519
21.658048,5.169044247977092,0.1185199224259368
21.660428,5.182641540179299,0.1181411041747378
21.662824,5.191443234955753,0.1178396611409039
21.665212,5.195541880105075,0.1176576432505704
21.667592,5.197730972306593,0.1175572810303192
21.669996,5.205926366747364,0.1173537839599754
21.67238,5.213470134882077,0.1171453274789507
21.674764,5.22809114044268,0.1168133420881541
21.67716,5.241641210816643,0.1165067852217283
21.679548,5.255610590071187,0.1161743879228401
21.681928,5.268928343019673,0.1158339945018795
21.684324,5.279592368915687,0.1155193781486574
21.686712,5.283970553318726,0.1153241976912291
21.689108,5.290211068841322,0.1151055242366969
21.760788,5.233374123013816,0.1149291528857675
21.763184,5.23695901562607,0.11489172604266
21.765572,5.2445481097311575,0.1147882547576906
21.767952,5.253068369396022,0.1146753433457463
21.770352,5.260238154620529,0.11460207861844
21.77274,5.272762615778228,0.1144248054717622
21.77512,5.285985925070228,0.1141987588008682
21.77752,5.296695276936612,0.1139908071616392
21.779908,5.30703254175066,0.1137578036036366
21.782288,5.315787014698871,0.1135307537436755
21.784684,5.327242436527801,0.1132260378374996
21.787072,5.341259037610588,0.1128560479538409
21.789452,5.3526219116409015,0.11251310254091
21.791856,5.363984785671214,0.1121744960387754
21.79424,5.380283026754138,0.1117672101229002
21.796624,5.403146648583753,0.1112349207831623
21.79902,5.433506816719839,0.1105726690129912
21.801404,5.46572931597548,0.1098944958976485
21.803784,5.500885081537319,0.109180493190789
21.80618,5.540324587845711,0.1083970449008812
21.808568,5.576039431914989,0.1076556554967125
21.810964,5.60523611706582,0.1069875607772748
21.81336,5.629637204790896,0.106377090948415
21.815748,5.646588968037747,0.1058443866971466
21.818128,5.667964241658012,0.105231962287892
21.820524,5.68319344341217,0.1047143908347828
21.822912,5.698143105912605,0.1042129148159996
21.825292,5.714163703599678,0.1036958848710138
21.827696,5.7309756972196695,0.1031810484822664
21.83008,5.749230713078637,0.1026767942950185
21.83246,5.7630622185641895,0.1022528528333316
21.834864,5.776194875915441,0.1018772670993159
21.837252,5.790258698826471,0.1014945335016499
21.839632,5.801389255431306,0.1011493002281172
21.842028,5.8085156105433065,0.1008592421519812
21.844412,5.814011951961229,0.1006236188933339
21.846792,5.812431055953262,0.1004830579985103
21.849196,5.811269468825875,0.1003186325964112
21.851584,5.807174615392294,0.1001874876647261
21.853964,5.7978648556523815,0.1001299520638968
21.85636,5.7904174270320246,0.1000558857214821
21.858744,5.786834430277641,0.0999405313878686
21.861128,5.789257735762508,0.0997515676119173
21.863524,5.797407804232905,0.099503931282224
21.865908,5.800342966396969,0.0993310846028401
21.868304,5.809563970054004,0.099068864709236
21.8707,5.823860110390512,0.0987444492705281
21.873084,5.832941344420688,0.098491394365802
21.875464,5.840951643264224,0.0982555494216624
21.877868,5.845377049495508,0.0980434064598886
21.880256,5.854877592406264,0.0977667392546559
21.88264,5.85879114195835,0.0975368638450609
21.885036,5.864427253003132,0.097301445303581
21.88742,5.869923594421053,0.0970734269023633
21.8898,5.875280166212114,0.0968528554483764
21.892196,5.877051845390924,0.0966557977752797
21.894584,5.8833395827417645,0.0964280482917921
21.896964,5.887066140838746,0.0962577705169313
21.89936,5.890513159682008,0.0961031641656125
21.901748,5.899547171883939,0.0959025688320804
21.904144,5.911374680765208,0.095680620555186
21.906548,5.9238538159525325,0.0954690871783764
21.908932,5.93405131113972,0.0952988855876395
21.911316,5.943969267073186,0.0951456591947284
21.91372,5.955609784499351,0.0949846729680937
21.916104,5.964549353044796,0.0948875628531207
21.918488,5.970415885657187,0.0948292525897175
21.920884,5.984011282001524,0.0946983453149454
21.923272,5.9991894702116975,0.0945695506416109
21.925652,6.01995465178054,0.0943998111963285
21.928048,6.040300524468803,0.094255435535073
21.930436,6.069446196075653,0.0940274229140295
21.932816,6.093796270256749,0.0938424111032269
21.935212,6.122941941863598,0.0936178762909126
21.9376,6.15502087977664,0.0933665274322669
21.939984,6.191615875861715,0.0930902791074697
21.942376,6.2246259793345375,0.0928353082374207
21.944764,6.25791562206108,0.0925651975255126
21.947144,6.293207365534038,0.0922736526953393
21.94954,6.325193755648465,0.0919905703790684
21.951928,6.356528519456834,0.0917045278017247
21.954312,6.388142822518923,0.0914075068993786
21.956708,6.418965729648093,0.0911105970927821
21.959096,6.448997240844347,0.0908137610621496
21.961492,6.481589931294456,0.090470621352791
21.963888,6.515021239505729,0.0900862619870951
21.966276,6.547661151784083,0.0897029884247829
21.968656,6.575785005890404,0.0893464185822914
21.971056,6.604467938504167,0.088965030783548
21.97344,6.62756387775926,0.0886210945001644
21.975824,6.648565168469319,0.088260641975768
21.978228,6.660766660260792,0.0879745206613972
21.980616,6.676041187985321,0.0876569822840024
21.982996,6.687218966418399,0.0873423957669161
21.985392,6.698536514478338,0.0870235194133121
21.98778,6.707479874739522,0.0867022417240113
21.99016,6.719356501306902,0.0863589433454656
21.992556,6.733514767874419,0.0859865248189907
21.994944,6.750513752949513,0.0855600489566658
21.997324,6.768304133957526,0.0851372762067182
21.99972,6.7840924142191215,0.0847340565052527
22.002108,6.7990892985478,0.084332226912631
22.004492,6.815576426943697,0.0839007952563554
22.006888,6.832343094593314,0.0834569925794878
22.009276,6.848969992616072,0.0830244257528846
22.011656,6.861452919519137,0.0826302573170161
22.014052,6.87407561604906,0.0822304724188189
22.016444,6.888560643698542,0.0818223412280394
22.018824,6.897039369108771,0.0814608238482466
22.02122,6.907659964892277,0.0810764956666892
22.023608,6.921725683661177,0.0806897122149761
22.025992,6.9416579350424685,0.0802620097438353
22.028392,6.95944831605048,0.0798570029254201
22.03078,6.977331244857109,0.0794875019589688
22.03316,6.99069811549171,0.0791339989573922
22.035556,7.00206288537989,0.0787956938119201
22.037944,7.010773928215596,0.0784651247047171
22.04034,7.019065662170723,0.0781568495917257
22.042736,7.023585512058493,0.0779085358779134
22.045124,7.02303022526679,0.0776993106174326
22.047504,7.021404003288451,0.0775005138122464
22.0499,7.015773579817275,0.0773306287096413
22.052288,7.006511041905604,0.0772116645496417
22.054668,7.002975266979464,0.0770629481471934
22.057064,6.998089017612964,0.0769378071263752
22.059452,6.996927430485577,0.0767968899131424
22.061836,6.99548630410447,0.0766688417358537
22.064232,6.993905408096503,0.0765475272708765
22.066616,6.99739964876801,0.0763876827462772
22.069,7.00261645093221,0.0762275372864678
22.071396,7.0048999867902175,0.076085659688959
22.07378,7.006392126715306,0.075941915481164
22.07618,7.010026137013671,0.075778544221694
22.078576,7.015010621752396,0.0755930964860567
22.080964,7.022229524663015,0.0754214868400769
22.083344,7.03103121943947,0.075255030301779
22.08574,7.039413605335344,0.0751073380891737
22.088128,7.0439315593652445,0.0749802607973693
22.090508,7.046447412648728,0.0748662214541975
22.092904,7.0551093377983225,0.0747050860774365
22.095292,7.064562658880835,0.0745465804137278
22.097676,7.079463203695157,0.0743731060125647
22.100072,7.098507719629174,0.0741664536948146
22.102464,7.109543832577522,0.0740153022018661
22.10484,7.118997153660034,0.0738587468164019
22.107236,7.129521409929185,0.0736936036296846
22.109624,7.138974731011698,0.0735380089889719
22.112008,7.148847360974791,0.0733647495149507
22.114408,7.158440451684164,0.0732049447853489
22.116796,7.164029340900703,0.0730709221559856
22.119176,7.169618230117242,0.0729370488973284
22.12158,7.172785709706783,0.0728346154387598
22.123964,7.175953189296326,0.072732664977646
22.126348,7.177258337766311,0.0726372201508121
22.128744,7.18270745735599,0.0725114667204113
22.131132,7.193511252878862,0.0723414139512931
22.133512,7.20738808433479,0.0721506852603096
22.135908,7.22526911728355,0.0719361138729373
22.138296,7.247713430232585,0.0716740644926865
22.140692,7.268947038368122,0.0714291907137208
22.143088,7.2915311209440175,0.0711644630883982
22.145472,7.309738914974741,0.0709030013534803
22.147856,7.326084377885907,0.0706487684922269
22.150252,7.342709380050796,0.0703813750991479
22.15264,7.357332281469267,0.0701246136395031
22.15502,7.368882146954683,0.0698890049696875
22.157424,7.37964061650718,0.0696492970209062
22.159812,7.386115345313124,0.0694447499642285
22.162192,7.393800778932566,0.0692266904060014
22.164592,7.404559248485064,0.0689883249794425
22.16698,7.415317718037562,0.0687502270362733
22.16936,7.428357827590196,0.0684888488736011
22.171756,7.442608641956331,0.0682149764590625
22.174144,7.457790621882243,0.0679387519985402
22.176528,7.468736082889844,0.067659936169081
22.178924,7.471533371284917,0.0674319355903233
22.181312,7.4704662278140175,0.0672198456738654
22.183692,7.464743256544226,0.0670197726501494
22.186088,7.457390271580355,0.0668519484397831
22.188476,7.449106121056706,0.0666866087094922
22.19086,7.440682200906196,0.066527266873723
22.193252,7.433049676688604,0.0663708264726555
22.19564,7.424346217284374,0.0662222241613914
22.198036,7.419367420119258,0.0660644724362014
22.200436,7.418113285193255,0.0658973583588899
22.20282,7.41834939433447,0.0657046063820831
22.205204,7.423660640155157,0.0654839696347738
22.2076,7.435909353774876,0.0652313950701501
22.209984,7.441080829968703,0.0650164011182872
22.212368,7.44732324134917,0.0647947769687534
22.214764,7.453845191983357,0.0645619723927269
22.217152,7.458225272244268,0.0643449937518492
22.219532,7.457390446198844,0.0641612150368533
22.221928,7.458138412019259,0.0639854292323686
22.224316,7.458978925638288,0.0638420555887764
22.226696,7.4627527055635134,0.0636864589307978
22.229092,7.469319982168074,0.0635248491705521
22.23148,7.479472151384889,0.0633609632892975
22.233876,7.488041528735866,0.063189651839658
22.236272,7.497961380527203,0.0629998974549744
22.23866,7.502666326012205,0.0628420615191379
22.24104,7.510444307430266,0.0626675250898318
22.243444,7.519293224034964,0.0624854001781625
22.245832,7.526000270266385,0.062319146871624
22.248212,7.533638482057585,0.0621519103719088
22.250608,7.539926219408425,0.0620038099166232
22.252996,7.544723712692045,0.0618813852452351
22.255376,7.544306299669334,0.0617906194000208
22.257772,7.552688685565209,0.0616675398778831
22.26016,7.553854064408332,0.0615842819292654
22.26254,7.557952709557652,0.0614909592124219
22.264944,7.565403929893748,0.0613706731244078
22.267332,7.576999121349537,0.0612270398215954
22.269712,7.58715129056635,0.0610704732333545
22.272108,7.595720667917328,0.0609054014802607
22.274492,7.606431915641582,0.0607268736766058
22.276872,7.618633407433055,0.060525993190713
22.279276,7.634047704784443,0.0603061963467734
22.281664,7.654397369188445,0.0600702450671172
22.284044,7.672465393592309,0.0598543692789582
22.28644,7.698029964302643,0.0595909478351019
22.288828,7.720521499079921,0.059343674502079
22.291208,7.743944199416978,0.0590962587903527
22.293604,7.764852942328419,0.0588411615590598
22.295992,7.7821767926276095,0.0585862121299559
22.298388,7.80443600997941,0.0583159541981922
22.300784,7.824460809159317,0.0580287796726795
22.303172,7.846255391660164,0.0577083241835606
22.305552,7.866606951922034,0.0573779077197154
22.307948,7.895386224050154,0.0570008120482004
22.310336,7.921092460245218,0.0566406098241975
22.31272,7.945727761253643,0.0562897429203542
22.315116,7.967150256702152,0.0559579925815371
22.317504,7.987501816964023,0.055633092074326
22.319884,8.01106618278581,0.0552900777563791
22.322284,8.030905886368481,0.0549519084217522
22.324672,8.04753278439124,0.0546338069658751
22.327052,8.057361984241828,0.0543331068121807
22.329448,8.062255817039805,0.0540483216355931
22.331836,8.069431289837917,0.0537469000220419
22.33422,8.070600460396781,0.0534657386584495
22.336616,8.072049170209365,0.0531737458335313
22.339004,8.07270648408903,0.0528778146977663
22.341388,8.078019625767588,0.0525788380004209
22.343784,8.084263933005923,0.0522785855221668
22.346172,8.084641707631869,0.0519929889163311
22.348552,8.081527137444176,0.0517334535054607
22.350948,8.07599115762949,0.0514952466700917
22.353336,8.064309105948691,0.0512800238273871
22.35572,8.049274479081115,0.0510872225653728
22.358116,8.031958212213404,0.0509102822155426
22.360504,8.00849587347958,0.0507555607523817
22.362884,7.987315174745895,0.0505837236626752
22.365284,7.965994706385349,0.0504163960366096
22.367668,7.946396799517499,0.0502536083659298
22.370068,7.929312850075266,0.0500997416031979
22.372464,7.913811692498867,0.0499555089806877
22.374848,7.899753557161443,0.0498255977044285
22.377232,7.884484717010523,0.0497058001971672
22.379628,7.865723532045965,0.0496124582268364
22.382016,7.852689110066938,0.0495120671631486
22.3844,7.840306314393967,0.0494215071601309
22.386804,7.82657304428064,0.0493464443262773
22.389192,7.8079044071147,0.049282383921389
22.391572,7.7901669355085374,0.0492176633524664
22.393968,7.774431564648792,0.0491470170737217
22.396356,7.765773431214936,0.0490544622817922
