Time,Force,Position
20.531456,2.497227521261123,0.1859349977115827
20.533844,2.620213068513916,0.1818280789329267
20.536224,2.7363102656537936,0.1780511799406813
20.53862,2.847426769770685,0.1746674661525928
20.541008,2.9515604801181734,0.1718828560341833
20.543388,3.0525305025918588,0.1690900582297178
20.545792,3.137719828235425,0.166923338920379
20.54818,3.204334960369537,0.1654202522548107
20.55056,3.2698810531748803,0.1637803201285414
20.552956,3.331564609972119,0.1621616851189883
20.61506,3.289769874443666,0.1610142567264993
20.617464,3.2988473167581027,0.1609104746148368
20.619852,3.315421305379009,0.1604905516328521
20.622232,3.327619005454744,0.1601785127435749
20.624628,3.341027410343978,0.159803653443148
20.627016,3.3583002470991854,0.1592937292106282
20.629396,3.382603099452038,0.1585999445360068
20.6318,3.4122134059098417,0.1577642959272658
20.634188,3.438471137180869,0.1570947529404407
20.636568,3.4680342218104285,0.1563699227374742
20.638964,3.4979693934923257,0.155689794836791
20.641352,3.5336313281597533,0.1548251077032014
20.643732,3.5698051195063782,0.1539725434366531
20.646128,3.603185414173669,0.1532106467584024
20.648512,3.633260355482426,0.15251824602171
20.650912,3.663754605671764,0.1517789618844023
20.653308,3.694109086234241,0.1510789172606372
20.655696,3.727676372356635,0.1502437752991398
20.658076,3.7551448084411607,0.1495753847841159
20.660472,3.774372524114542,0.1491289233199899
20.66286,3.793088383108725,0.1486664103660551
20.66524,3.809522602102772,0.1483125690899661
20.667636,3.8233956418429607,0.1480921567991587
20.670024,3.84299544456868,0.1477057656034041
20.672404,3.86180385136148,0.1473312014794679
20.674808,3.875676891101669,0.1471083062273001
20.677192,3.8867564341625216,0.1469664173546948
20.679576,3.895973646103818,0.1468768787883504
20.681976,3.904679001365917,0.1467675351961351
20.684364,3.9114294777098433,0.1466487154425832
20.686748,3.914874600695236,0.1465818375624604
20.689152,3.916457392561072,0.1465631890930315
20.69154,3.920880902934486,0.1464025981523754
20.693916,3.925444182934761,0.1462270662899188
20.696316,3.93294072924123,0.1459697877756935
20.698704,3.939645879614782,0.1457222826894581
20.701084,3.9464907996151934,0.1454666230656412
20.703488,3.9551980507351625,0.145171836641619
20.705876,3.966698798534466,0.1448150321311665
20.708256,3.9824832870803233,0.144310403905864
20.71066,3.998267775626181,0.1438084220461404
20.713048,4.013632955291457,0.1433485322650125
20.715428,4.029277674210454,0.1428657662889782
20.717824,4.04175680939778,0.1424218057344973
20.720212,4.055446649398603,0.1419332380294773
20.722592,4.075003022011818,0.141289847327496
20.724988,4.091346589065116,0.1407454521176659
20.727376,4.109040630558773,0.1401490819225243
20.729756,4.125012110559735,0.1395753102099538
20.732152,4.133626813881086,0.1392231304398024
20.73454,4.143544769814553,0.1388766195466947
20.73692,4.155836913546774,0.1385114599701695
20.739316,4.167430209144695,0.1382203805626605
20.741704,4.181025605489032,0.1378757815588612
20.744088,4.190616800340536,0.1376409908002923
20.746484,4.203653118177432,0.1373530098930213
20.748868,4.211614299334856,0.1372066889592236
20.751252,4.216921753439806,0.1371111778625112
20.753648,4.21943571086542,0.1370767869313251
20.756032,4.2233926905300105,0.1370413616300964
20.758428,4.226418504634823,0.1370256679522457
20.760824,4.231865728366633,0.136921469169648
20.77038,4.245644324450336,0.1369058292334643
20.77276,4.25770225489921,0.136732829236343
20.775156,4.265616214228392,0.1366706208552748
20.777544,4.274833426169689,0.1366181514042291
20.779928,4.294852537775989,0.1363084272522262
20.782324,4.319434929382562,0.1358556855832704
20.784708,4.34285383800388,0.1353919476223655
20.787104,4.35961481807989,0.1350624173539054
20.7895,4.373023222969124,0.134835191221436
20.791884,4.388154189351055,0.1345793768306238
20.794268,4.399840032747592,0.1343767525885135
20.796668,4.415809616890683,0.1340510511482019
20.799056,4.431639431406914,0.1337390613741625
20.80144,4.446910167415705,0.1334729791725239
20.803832,4.463251838611134,0.1331821858307707
20.80622,4.482387006485898,0.1328400242292368
20.8086,4.500591008800884,0.1325240472675305
20.811,4.517304767048651,0.1322748880406813
20.813388,4.541375301976027,0.1318310354979108
20.815768,4.563863045037567,0.1313995511585842
20.818164,4.582905665113714,0.131023917805196
20.820552,4.590494759218801,0.1308766599699108
20.822932,4.602088054816721,0.1306391657440391
20.825328,4.621689753400309,0.1302291977499053
20.827716,4.638497955304562,0.1298791069002791
20.830112,4.649160085342704,0.1296712990546938
20.832508,4.654607309074514,0.1295870978868815
20.834896,4.667923166165131,0.1293410040955853
20.837276,4.68645392956208,0.1289715540110913
20.839676,4.708988894451863,0.1285210988842844
20.842064,4.736738765647979,0.1279604802579951
20.844444,4.761834909791619,0.1274393754021686
20.84684,4.7846494139351226,0.126977491197223
20.849228,4.809466018825043,0.1264716700238194
20.851608,4.833630997408905,0.1259697256464694
20.854012,4.85155735632804,0.125550962718275
20.8564,4.865107426702004,0.125187012087334
20.858784,4.879728432262606,0.124797939667286
20.86118,4.895792460062184,0.1244221102080589
20.863564,4.915209063048536,0.1239657703452437
20.865948,4.930621464542057,0.1235854814627304
20.868344,4.956416456819999,0.1230340478719869
20.870732,4.977648169097666,0.1226029400653599
20.873108,4.991151017643386,0.1223156822438867
20.875512,5.003071074323271,0.1220389862199905
20.8779,5.016621144697234,0.1216941157766647
20.880284,5.036177517310449,0.121233987417845
20.88268,5.053312480296666,0.1208483896164455
20.885064,5.067234637722966,0.1205384741464788
20.887444,5.076128880298038,0.1202722729185115
20.889848,5.075943784700803,0.1201779916386208
20.892236,5.077341480969404,0.1200773182037802
20.894616,5.085816414663896,0.1198452583532034
20.897012,5.094710657238967,0.1195848355866687
20.8994,5.0966674320150105,0.1194446644363974
20.901784,5.107004696829058,0.1191873769614092
20.90418,5.123161272427254,0.1188897793109795
20.906568,5.135732955413196,0.1186330429656021
20.908948,5.142997184294188,0.1184373446311469
20.911348,5.1470486076152655,0.1183111544927582
20.913736,5.157106333175593,0.1180799640045289
20.916116,5.1625082309370285,0.1179142905394071
20.918512,5.172752947952459,0.1176216366186966
20.9209,5.181275103475193,0.1173414203341437
20.923284,5.190029576423406,0.1170984480925866
20.925688,5.20208940273015,0.1168373271365027
20.928072,5.211076193103838,0.116634650428206
20.930452,5.215966234186076,0.1164527741235795
20.932852,5.221135814522035,0.1162515403275594
20.93524,5.227329108216389,0.1160833203031526
20.93762,5.237526603403577,0.1158437996733591
20.940016,5.244790832284569,0.1156507916819011
20.942408,5.243255262246976,0.1156000514034128
20.944788,5.241719692209383,0.1155493591806364
20.947184,5.249915086650153,0.1153467656457811
20.949572,5.251592322172476,0.1152309554401362
20.951968,5.248101873216709,0.1151588998217889
20.975868,5.211280247279765,0.1151392646814813
20.978256,5.213561887279901,0.1150874896489118
20.980636,5.215843527280039,0.1150358237820377
20.983032,5.220546576907173,0.1149236121316243
20.98542,5.227903353586783,0.1147875579357955
20.987804,5.239264331759226,0.1145870960458896
20.9902,5.258773482544197,0.1142495096271051
20.992588,5.27721169814253,0.1139348513240098
20.994972,5.289643611501612,0.113718701341912
20.997368,5.305800187099806,0.1134588358902614
20.999752,5.325821194563976,0.1131466760876061
21.002136,5.341186374229252,0.1128882044473792
21.004532,5.355899927588471,0.1126193490356297
21.00692,5.376759552813801,0.112248717159132
21.0093,5.4036254802783805,0.1117848908725047
21.011696,5.425416271063489,0.1114038886566144
21.014084,5.448697305915817,0.1109758161894986
21.01648,5.469045074461948,0.1105918185315024
21.01888,5.486459576701885,0.1102503266029787
21.021268,5.502011747822265,0.1099339205125953
21.023648,5.519985328569644,0.1095599007536533
21.026048,5.5355847215182665,0.1091957918029226
21.028436,5.548250848160695,0.1088704218849293
21.030816,5.5591944133104265,0.108560076615868
21.033212,5.5665530858479055,0.1082840860265595
21.0356,5.572189196892688,0.1080214677325089
21.03798,5.575543667937333,0.1078093618641225
21.04038,5.576756268608701,0.1076342601053701
21.042768,5.580250509280208,0.1074125600729744
21.045148,5.580811483645517,0.1072301833842795
21.047544,5.57923058763755,0.1070858955102356
21.049932,5.583795763495694,0.1068474034367298
21.052316,5.590502809727114,0.1065708121012986
21.054712,5.594136820025479,0.1063441711095674
21.057104,5.594558024763928,0.1061736264081391
21.059484,5.597772726181713,0.1059732377544368
21.06188,5.600847657972638,0.1057825827578036
21.064268,5.608718187189315,0.1055374574285354
21.066652,5.621104774578023,0.1052547800067579
21.069048,5.6358655497654855,0.1049721652165978
21.071436,5.650207016072367,0.1047173134236979
21.07382,5.663477547192611,0.1044814800820473
21.076216,5.683545776485022,0.1041666023919643
21.078604,5.704917258389548,0.1038698566777523
21.080984,5.729222006600271,0.1035400015917941
21.083388,5.757111647423247,0.1031883512732656
21.085772,5.782719648246085,0.1028804699821643
21.088152,5.811121145748259,0.1025445578773574
21.090548,5.84124520474313,0.1022049102327681
21.092932,5.874162760417334,0.1018404473655765
21.095316,5.906800776837819,0.1014913944445176
21.097712,5.9402301891912215,0.1011518166067911
21.1001,5.980177760463072,0.1007641753261563
21.102496,6.015981360615228,0.1004306493485146
21.104888,6.0516451911405245,0.1001046189626829
21.107272,6.088519726479319,0.099755304975402
21.109652,6.127396362564532,0.0993877166654952
21.112048,6.161477401223993,0.0990716914835266
21.114432,6.189691907271063,0.0988182871399469
21.116828,6.215252686265658,0.0985825127739357
21.119232,6.237740429327198,0.0983848701393887
21.121616,6.262090503508295,0.0981733640117082
21.123996,6.284438476942975,0.0979897766785751
21.1264,6.304924119258097,0.0978219461183876
21.128788,6.322988351946223,0.0977011680401418
21.131168,6.337327922395235,0.0976123618731079
21.133572,6.35129540579191,0.0975000894084005
21.135956,6.366753133255804,0.097351326470449
21.138336,6.38127969515992,0.0972122570413048
21.140732,6.3942234651981975,0.0970737004534252
21.143116,6.406934917811002,0.096904566011164
21.145496,6.412988441878494,0.0967938995405983
21.1479,6.409311001467626,0.0967770019147798
21.150284,6.412990337736364,0.0966664781909398
21.152664,6.420022249191879,0.0965064059494951
21.155068,6.429196031020671,0.0963197767327516
21.157456,6.43343444579685,0.0961821418546534
21.159836,6.442747997252504,0.0959904065802967
21.162232,6.460349490947543,0.0957034551736471
21.164616,6.477299358336526,0.095408554948
21.166996,6.501606002405118,0.0950269034004844
21.169404,6.522048214607736,0.0946789426458457
21.171788,6.537694829384602,0.0943704396229528
21.174168,6.552038191549354,0.0940454096712674
21.176572,6.566009466661767,0.0936973956458238
21.178956,6.580120511401042,0.0933428430409268
21.181336,6.592229455393898,0.0930067730242962
21.183732,6.602196529013477,0.092700110214633
21.18612,6.607787314087886,0.0924113446972932
21.1885,6.612446933602517,0.0921290087216362
21.190904,6.619760280169621,0.0918358893423593
21.193288,6.631869224162477,0.0915039307936324
21.195668,6.649472613715388,0.0910974956249145
21.198072,6.660929931402186,0.0907596356639783
21.200456,6.664658385357037,0.0904852684140462
21.202836,6.664382637819055,0.0902508204047563
21.20524,6.665317595094571,0.0899950216588069
21.207624,6.660525789384559,0.0897836281550853
21.210008,6.650007220689016,0.0896155810596329
21.212412,6.641350983113029,0.0894355452427041
21.214796,6.624965881805094,0.0893154959176239
21.21718,6.613935456430354,0.089131477708352
21.219576,6.609051102921722,0.0888855151101881
21.22196,6.607751642025345,0.0886242029457418
21.22434,6.606591950755829,0.0883554287218171
21.226748,6.605432259486311,0.0880868312102456
21.229132,6.609068165642546,0.0877835639454412
21.231512,6.610841740679224,0.0874906076118721
21.233916,6.615129273141517,0.0871941393856152
21.236304,6.621279136723365,0.0868871605318164
21.238684,6.626637604372298,0.0865806986747043
21.241088,6.629062805715033,0.0862979394735699
21.243472,6.627064496684355,0.0860711293511919
21.245852,6.625205957280538,0.0858362059672762
21.248256,6.630005346422028,0.0855561938654777
21.25064,6.633733800376878,0.0852873442062781
21.25302,6.640395520637926,0.0849965350649967
21.255416,6.646777701645252,0.0847181382897921
21.257804,6.652740573771999,0.0844602792653807
21.260184,6.655909949219409,0.0842183762895309
21.26258,6.663455613211991,0.0839638535000529
21.264964,6.664435896457882,0.0837903532354143
21.26736,6.661132438957218,0.0836661652537819
21.269756,6.6547559455235,0.0835714507630158
21.27214,6.651824575075174,0.0834702906802079
21.274524,6.646751334253572,0.0833929078344343
21.276928,6.639675992685551,0.0833324978616942
21.279312,6.636604852610364,0.0832381540618708
21.281696,6.633254173281458,0.0831576087844476
21.284096,6.628692789139053,0.0830958193529692
21.28648,6.622780930556288,0.0830594642366731
21.288864,6.616869071973524,0.0830229875274523
21.29126,6.611888378950538,0.0829815484768204
21.293644,6.611703283353304,0.0829086380944291
21.296024,6.612309583688988,0.0828383030792062
21.298428,6.617059855144365,0.0827285054643459
21.300816,6.620739191413105,0.0826310687086163
21.303192,6.629493664361316,0.0824905271804671
21.3056,6.642531878056083,0.0823057592495883
21.307984,6.6590152147362405,0.0821165553436873
21.310364,6.674055529177424,0.0819176073873766
21.312768,6.696312850671356,0.081654390460987
21.315156,6.721782977725203,0.0813591143802229
21.317536,6.748463809592548,0.0810460767721016
21.319936,6.771419979220782,0.0807525119017517
21.322324,6.800382451088265,0.0804148718379737
21.324704,6.829624462209469,0.0800653880766697
21.3271,6.859657869263592,0.0797232455318797
21.329488,6.889970815571434,0.0793679879502645
21.331864,6.920703070759858,0.0789941566729244
21.33426,6.950783699642223,0.078611447478963
21.336648,6.981795494084366,0.0782245855292577
21.339028,7.012155662220452,0.0778273650189768
21.341424,7.036928836997868,0.0774565274786588
21.343812,7.057185953603253,0.0771012139261852
21.346208,7.07544096946222,0.0767629608334274
21.348604,7.092625050134549,0.0764364558472746
21.350988,7.105944698940903,0.0761342240738184
21.353372,7.113118275881149,0.0758816656958784
21.355768,7.118848830582416,0.0756185638827802
21.358152,7.124439615656824,0.075362392407534
21.360532,7.124303637745703,0.075135974727891
21.362928,7.11816135759533,0.0749502939116613
21.365312,7.115092113378013,0.0747416878669351
21.367708,7.113233573974195,0.0745166319115113
21.370104,7.106579437144626,0.0743163315109957
21.372492,7.100576926621114,0.0741253006090628
21.374872,7.08977881867185,0.0739577532877951
21.377268,7.07832908441653,0.0737806405484104
21.379656,7.067530976467266,0.0736125971685686
21.382036,7.0584554300106985,0.073443985279813
21.384436,7.051381984300548,0.0732628415481266
21.38682,7.050826697508845,0.0730597315979347
21.3892,7.052785368142756,0.0728586397213955
21.391596,7.057677305082864,0.0726417984833176
21.393984,7.064571342769388,0.0724135565721177
21.39638,7.071465380455911,0.0721855219504581
21.398776,7.080221749261992,0.0719517389099678
21.401164,7.09698652105374,0.0716703021193427
21.403544,7.110398717658714,0.0714216956938169
21.405948,7.123810914263687,0.0711737411869498
21.408336,7.141087542734632,0.0709085919303249
21.410712,7.165301639004606,0.0706045032173598
21.413108,7.185231994528028,0.0703385370417624
21.415496,7.204882810797728,0.0700856444964083
21.417876,7.22374223113451,0.0698293576603512
21.42028,7.243812356284791,0.0695601655621788
21.422668,7.267886682927906,0.0692686410805095
21.425048,7.294894275877215,0.0689652051550112
21.427452,7.325254444013301,0.0686340036248765
21.429836,7.355102755470188,0.0682895492831574
21.432216,7.384159670994159,0.0679448370812514
21.434612,7.4068381972265405,0.0676145636536726
21.437,7.433940233832336,0.0672485471033457
21.43938,7.460902500811273,0.066890853178021
21.441784,7.484791731857153,0.066553371191018
21.444168,7.508029336596976,0.0662070500354927
21.446548,7.531406710963658,0.0658571611961788
21.448948,7.5459842864117554,0.0655459832487012
21.451336,7.564845602606407,0.065202463984893
21.453716,7.584638084360836,0.0648581097306274
21.456112,7.601357530182211,0.0645329206653416
21.458496,7.613933004883891,0.0642346436181906
21.460892,7.625717083652653,0.0639316449866487
21.463288,7.636569996861637,0.063630598679701
21.465676,7.64658429230946,0.0633625732675174
21.468056,7.655387882943785,0.0631096535208202
21.470452,7.662049603204831,0.0628732895705324
21.47284,7.667360849025519,0.0626573138952275
21.475224,7.66438415260682,0.0624909959749126
21.47762,7.660848377680679,0.0623473772917168
21.480008,7.65610189794104,0.0622170733980627
21.482388,7.6518672748805985,0.0621014519343173
21.484784,7.641346810327185,0.0620250022045391
21.487172,7.6305468065200515,0.0619598102391645
21.489564,7.622680069019115,0.0618836310461001
21.49196,7.614533792264456,0.0618183583543125
21.494344,7.604245645136521,0.0617674996068073
21.496724,7.598613325807478,0.0617079248637077
21.499128,7.593912172038212,0.061646710279694
21.501516,7.588279852709167,0.0615870736292884
21.503896,7.587722670059596,0.0615030376889096
21.5063,7.592520163343216,0.0613842129947556
21.508684,7.599319757373253,0.0612567218010579
21.511064,7.610263322522986,0.0611075700801349
21.513456,7.624978771740073,0.0609153960766091
21.515844,7.639182364277964,0.0607091347372965
21.518236,7.652315021629215,0.0605096546632244
21.520632,7.663445578234051,0.0603186257548474
21.52302,7.678580336331719,0.0601098332252904
21.5254,7.695065568869748,0.0598838268155952
21.527804,7.713832441407913,0.0596400177285999
21.530192,7.734880953946215,0.0593775942277543
21.532572,7.760073437604213,0.0590939866526819
21.534976,7.78582499976965,0.0587902313420326
21.53736,7.806780964509335,0.0584986677009728
21.53974,7.830670195555216,0.0581988523196004
21.542136,7.854559426601097,0.0578986837818457
21.544524,7.875655160967642,0.0576022960827802
21.546904,7.893677859401133,0.0573216130301282
21.549308,7.911700557834623,0.0570416346438345
21.551692,7.923577184402001,0.0567915922078035
21.554072,7.927305638356852,0.0565780192309079
21.556472,7.936109228991175,0.0563448956363531
21.558856,7.9406290788789455,0.0561381278443851
21.561236,7.947011259886272,0.0559309744393998
21.563632,7.950972031266602,0.0557466740759614
21.56602,7.955352111527512,0.0555462085529395
21.568416,7.9622933710422785,0.0553178373640457
21.57082,7.970445335370544,0.055078670744796
21.573208,7.973661932646199,0.0548538016139189
21.575588,7.973805493988797,0.0546425002272036
21.577984,7.97781348719737,0.0544247460638572
21.580368,7.981030084473022,0.054203713093748
21.582752,7.981173645815622,0.0539951242679618
21.585152,7.986252574210833,0.0537728887805967
21.58754,7.9906798762999856,0.0535421493788852
21.589916,8.000182315068612,0.0532943411796221
21.59232,8.01354918570321,0.0530395122879315
21.594708,8.028126761151308,0.052774117467028
21.597088,8.041493631785906,0.0525194562693855
21.599492,8.058213077607283,0.0522430116296258
21.60188,8.082009760854545,0.0519429804823013
21.60426,8.0984496674222,0.0516786106717473
21.606656,8.113167012497158,0.0514089097746889
21.609044,8.121738285706003,0.0511627402801581
21.611424,8.130309558914849,0.0509154151874165
21.61382,8.139811997683475,0.0506679984561114
21.616204,8.142749055705407,0.0504579937578176
21.618588,8.144615178540704,0.0502539800456847
21.620984,8.153139229921306,0.0500424926643492
