Time,Force,Position
21.401164,3.3321351933195835,0.1625561338039353
21.40596,3.342143801193798,0.1624053159086844
21.408344,3.349079373134958,0.1623860937961938
21.41074,3.359040759180929,0.1623288572915317
21.413144,3.3696537715329598,0.1622733984398509
21.415528,3.3910686835499915,0.161819658534586
21.417908,3.410853581872945,0.161490296107019
21.420316,3.4385996613533214,0.1609545572554262
21.4227,3.4708617990057298,0.1603019397545881
21.42508,3.5079195340838902,0.1594858916806621
21.427484,3.5483298443488267,0.1585111678051277
21.429868,3.5867380538673457,0.1576118870508599
21.432248,3.624075328199226,0.1567714477141859
21.43464,3.6662081999568574,0.1557756661074222
21.437028,3.707409906154712,0.1548030013991994
21.439408,3.741162287874341,0.1540726826079587
21.441812,3.760527877316712,0.1538204865768617
21.4442,3.78268696343842,0.1534899960015681
21.44658,3.804334192880929,0.153149438019929
21.448976,3.825469565644241,0.1527753378192114
21.451364,3.848746808780829,0.1523273704641297
21.453748,3.871000338559023,0.1518420569920234
21.456144,3.892043163523718,0.1514292506455627
21.458532,3.9168106507275255,0.1509238974844628
21.460912,3.9387846412519982,0.1504856201417342
21.463316,3.954520012111744,0.1502069303497665
21.465704,3.968580043307035,0.1498925640005461
21.482424,3.985616770921025,0.1498413832106909
21.484828,3.993298412824729,0.1497059311838917
21.487216,4.005543334728707,0.1494011387635967
21.489596,4.024353637379377,0.148862293643137
21.491992,4.043443479283767,0.1483087789984655
21.49438,4.063184947494216,0.147768010170189
21.49676,4.089863883503693,0.1470402813828806
21.499164,4.114960027647334,0.1463454067214989
21.501548,4.14312920772403,0.1455723528776727
21.503928,4.168924200001972,0.144831373973349
21.506332,4.187781724480885,0.1442728354322597
21.50872,4.215718587132104,0.1434772858198525
21.5111,4.243143593104125,0.1426583302678186
21.513496,4.270149290195566,0.1418805344967995
21.515884,4.298598009525983,0.1410903251055595
21.518264,4.3276983551624575,0.1403097188980842
21.52066,4.353725664865877,0.1396134110741971
21.523048,4.379613204942435,0.1389197159312834
21.525428,4.405128657966655,0.1382005479332705
21.527832,4.437861118043626,0.1372904385024495
21.53022,4.465797980694846,0.1365009372144209
21.5326,4.484795274800618,0.1359501741893957
21.535004,4.501510928906255,0.1354825140709922
21.537388,4.515944943011753,0.1350947763210667
21.539768,4.527305921184197,0.1347910912648461
21.542164,4.53852712972978,0.1345033959860888
21.551716,4.541972252715173,0.134454730847686
21.5565,4.5482108723799,0.1343523309745211
21.558888,4.551236686484711,0.1343406307585181
21.561272,4.555053896522442,0.1343232054238214
21.563668,4.559290415440754,0.134270942544279
21.566052,4.564225782493366,0.134162583358277
21.592328,4.561201864246422,0.1340157818065923
21.594716,4.560178150888026,0.1339810477351095
21.597096,4.562227473462687,0.1338687959679763
21.609052,4.542863779878185,0.13379953271481
21.611436,4.540956122788255,0.1337191867278488
21.613832,4.536906595325047,0.1336952883662434
21.61622,4.53709358678015,0.1336219016345102
21.6186,4.536441960474091,0.1336159020833283
21.620996,4.544078276407421,0.1334147241824538
21.623384,4.555998333087305,0.1331019994400865
21.625768,4.5674065330879925,0.1327743002066838
21.62816,4.5817479993948735,0.1323895793406974
21.630544,4.603026933500784,0.1318580404746782
21.632928,4.629241234659307,0.1312255652824592
21.63534,4.66039090287044,0.1304944003863989
21.637728,4.693682441454851,0.1297108708727928
21.640104,4.726694440785543,0.1289566309165063
21.642508,4.756493634556319,0.1282861326804884
21.644896,4.7813574612744825,0.1277141594449765
21.647272,4.804079417619368,0.1271955524803565
21.649676,4.82931533138987,0.126649757622068
21.652064,4.85548241072015,0.126076599045845
21.654444,4.880299015610071,0.1255556208936857
21.656848,4.897806065648624,0.1251467722738077
21.659236,4.90730471270151,0.1249127622281346
21.661616,4.916291503075199,0.1246615107885301
21.692692,4.814858741608427,0.124635047042634
21.69508,4.805968290749095,0.1245781659697944
21.69746,4.794703652091006,0.1245322696199128
21.699864,4.790656020485668,0.124335816894536
21.702248,4.78688792813405,0.1241186181111197
21.704628,4.797366858432827,0.1236766912111543
21.707024,4.814923026157494,0.123097015451735
21.709412,4.8347136120540535,0.1225201076677392
21.711792,4.855667680935871,0.1219613779889396
21.714196,4.875690584257908,0.1214160635262889
21.716584,4.887565314967418,0.1210285739385408
21.718964,4.898880967169488,0.1206855830035709
21.72136,4.910848245677615,0.1203485605002232
21.723748,4.918811322692909,0.1200899599903529
21.726128,4.930499061947315,0.1197788195107095
21.728524,4.94460821082872,0.1193977594688207
21.730912,4.960998999710261,0.118958705443451
21.733292,4.981626307510115,0.1184813223917289
21.735688,5.004255716056384,0.1179601929135521
21.738076,5.023532549415878,0.1175279084972931
21.740456,5.040667512402094,0.117148037615564
21.742864,5.054310130574674,0.1168621172397181
21.745252,5.070326936546008,0.1165663425299087
21.7572,5.067720431321778,0.1165257049408691
21.759584,5.066976257217102,0.1164717631891146
21.761968,5.070236284605261,0.1163506856952877
21.764364,5.081784254232807,0.1160723722258071
21.766752,5.091749431994518,0.1157987827419062
21.769136,5.1030650841965866,0.1154847493510738
21.771532,5.117453772331713,0.1151165615357018
21.77392,5.127978028600862,0.114808120322194
21.7763,5.138874371922352,0.1145278855563964
21.778696,5.148420240803482,0.1142893670451841
21.781084,5.1573144833785545,0.1140452360041819
21.78346,5.168071057073182,0.1137783770323205
21.785864,5.178315774088613,0.1134939271611118
21.788252,5.187210016663684,0.1132489832092524
21.790632,5.199037525544951,0.1129598800540928
21.793024,5.212215508866577,0.112633271428997
21.795412,5.2261848881211215,0.1123016326318309
21.797792,5.244949864801417,0.1119044447849531
21.800188,5.2665083381610485,0.1114686656697653
21.802576,5.286344250027983,0.1110462349708767
21.804956,5.30240827782756,0.1107259332798858
21.807372,5.3111155289475285,0.1105475475399634
21.80976,5.31847230562714,0.1104119352728135
21.824088,5.340491622121984,0.110372487654267
21.826472,5.345799076226935,0.1103255559150428
21.828868,5.350035595145247,0.1102990542005352
21.831252,5.355063509996476,0.1102715022225176
21.833648,5.360603281526903,0.1102608167740476
21.836044,5.370287024177023,0.1101799183938563
21.838432,5.381041702013782,0.1100812401650733
21.840812,5.393798480596958,0.1099564105387338
21.843216,5.409348755859469,0.1098009139379014
21.845604,5.4244797222414,0.1096755197062196
21.847988,5.440262314929387,0.1095577592116579
21.850384,5.459629800229629,0.1094097010907021
21.852772,5.483420795903284,0.1091772420045443
21.855152,5.509353661950216,0.1089043174953378
21.857548,5.531282326504316,0.1086887205813722
21.859936,5.556982875125771,0.1083820014950319
21.862316,5.580821092627669,0.1080972742028267
21.864716,5.606940950129705,0.1077715084931675
21.8671,5.636553152445377,0.1073682541271582
21.869484,5.667655598828269,0.1069210285252324
21.87188,5.696616174837883,0.1065171537873839
21.874268,5.724877902713198,0.1061605901121918
21.876652,5.752999860961651,0.1058121819927476
21.879048,5.781401358463825,0.1054517539111829
21.881436,5.811944726339275,0.1050573576711301
21.883816,5.838763431975611,0.1047038254728258
21.886212,5.859995144253279,0.1044071582848359
21.8886,5.874149619105057,0.1042105877279963
21.890996,5.891005042837554,0.1039500797999323
21.893392,5.9054862787712965,0.1036935973346996
21.89578,5.920666362839338,0.1033972306382292
21.89816,5.932820632802568,0.10309675851991
21.900556,5.94525444201952,0.1027839943478119
21.902944,5.960901056796386,0.1024244660150579
21.905328,5.982973282693083,0.1019686755502156
21.907724,6.0027638685896445,0.1015574082617957
21.910112,6.023904928926563,0.1011159756410544
21.912492,6.040902018143789,0.1007336697375035
21.914896,6.05990120810743,0.1003307649600517
21.917284,6.077829462884434,0.0999454804949296
21.919664,6.094174925795602,0.0995607422440253
21.92206,6.110008532027572,0.0991613142086974
21.924448,6.126401216766982,0.0987310737750166
21.926828,6.139720865573338,0.0983410929229001
21.929228,6.150247017700359,0.0979753334130139
21.931612,6.161844105014018,0.0975941032571738
21.933992,6.17730562419365,0.0971737334379348
21.936392,6.195700409679478,0.0967194652164604
21.938776,6.205667483299058,0.0963827398896408
21.94116,6.2145636217319975,0.096061504577945
21.943556,6.22331999053808,0.0957502172813088
21.945944,6.235381712702694,0.0954345953944851
21.94834,6.2462327300538085,0.0951448638116101
21.950736,6.253219315538949,0.0948935800631473
21.95312,6.254199598784841,0.0947090689923506
21.9555,6.25504011240387,0.0945322245252337
21.957904,6.254669921209403,0.0943779854487428
21.960292,6.256441600388211,0.0941947770023082
21.962672,6.255000474007104,0.0940553441565575
21.965076,6.253699117252857,0.0939084058273431
21.96746,6.254399861245028,0.0937404765939871
21.96984,6.256962936356754,0.0935598721976024
21.972236,6.263390443334454,0.093347412815082
21.97462,6.2711684247525135,0.0931061634342722
21.977004,6.280017341357212,0.0928509932909315
21.979408,6.286584617961771,0.0926304277875098
21.981792,6.293012124939472,0.0924184329245141
21.984176,6.298788005611115,0.0921979036050787
21.98658,6.308847627029311,0.0919199021831639
21.988964,6.318767478820648,0.0916485404519246
21.991348,6.325474525052071,0.0914189934141761
21.993744,6.326594577924821,0.0912288032164961
21.996128,6.321428789304601,0.091114700601821
21.998508,6.315703922176939,0.0910306457361229
22.000912,6.313843486915252,0.0909124719197616
22.0033,6.3121228212804255,0.0907867460626835
22.00568,6.310122616391878,0.0906761321880175
22.008084,6.306911706689832,0.090587280906221
22.024808,6.253049561423158,0.0905568759417379
22.027188,6.249372121012288,0.0905360061124575
22.029592,6.248767716534473,0.090482418841878
22.03198,6.251096578362853,0.0904039242192443
22.03436,6.25514800168393,0.0903213603334637
22.036764,6.262272460938062,0.0902072380045538
22.039152,6.27274949537897,0.090046821368453
22.041532,6.285880256872353,0.0898752770996131
22.043928,6.310232226911319,0.0895894421548446
22.046312,6.3390077073237,0.0892458586968416
22.048692,6.364710151803022,0.0889355493242884
22.051096,6.390692135536067,0.0886122727360998
22.053484,6.415370866656997,0.088270963276216
22.055868,6.439258201845008,0.0879278146186721
22.058264,6.468220673712492,0.0875363376930594
22.060652,6.499604555206973,0.0871081919202075
22.063032,6.531407745582034,0.0866589904683634
22.065428,6.5657721152109545,0.0861621167853509
22.067816,6.59655159222762,0.085681042860294
22.070196,6.622395702191675,0.0852456477146186
22.072592,6.648100042528868,0.0848201513601128
22.07498,6.674875318052701,0.084388955666015
22.07736,6.697786161710559,0.0839906025725268
22.079756,6.718555134995142,0.0836190625448727
22.082144,6.741885287533581,0.0832094965266819
22.084528,6.764563813765961,0.0827953216458222
22.086924,6.785240239251926,0.0823990722595178
22.089312,6.809548779178389,0.0819521529523547
22.091692,6.827199390559542,0.0815499553632506
22.094088,6.840054404514943,0.0811787206417268
22.096476,6.854259892910703,0.0807831472064405
22.098856,6.871538417239517,0.0803649599054552
22.101252,6.893472769367224,0.0799274811097456
22.10364,6.920761797428124,0.0794406303039468
22.106024,6.94418639362305,0.0789801881920302
22.108424,6.965469119444699,0.0785440799023763
22.110812,6.985820679706569,0.0781124179941619
22.113192,7.007615262207416,0.0776948296638831
22.115596,7.0304807798949005,0.0772656676672668
22.117984,7.053765606462967,0.0768166555007912
22.120364,7.075188101911476,0.0763761142624956
22.12276,7.091535460680514,0.0759762710306203
22.125148,7.10201628683716,0.0756094394860012
22.127532,7.111565947434028,0.0752462823332805
22.129936,7.11175673060487,0.0749631376359913
22.177716,6.80523712441926,0.0748888498885239
22.180112,6.817854133375576,0.0748594965538033
22.1825,6.833404408638086,0.0748136794336399
22.18488,6.854681446886128,0.0747406154862478
22.18728,6.878100355507446,0.0746479109958095
22.189668,6.901099955248183,0.0745749306757537
22.192048,6.925961886108478,0.074495083372192
22.194448,6.952825917715189,0.0744017622018316
22.196832,6.981552280441457,0.0743020920604334
22.199212,7.011489347981225,0.074184251283781
22.201612,7.04235758108077,0.0740632274748148
22.203996,7.076298850113369,0.0739193677352407
22.20638,7.108377788026412,0.0737831540167889
22.208784,7.141527661126094,0.0736378230733979
22.211172,7.173886138292858,0.073490289409258
22.213556,7.2007973917278125,0.0733561230400775
22.215948,7.221702342923517,0.073261807954888
22.218336,7.241024502253384,0.0731621727859122
22.22072,7.257972473784497,0.0730555036494196
22.223116,7.278133250875526,0.0729214754793273
22.2255,7.295919840167801,0.0727805515528793
22.227884,7.309190371288044,0.072651396079769
22.230288,7.321669506475369,0.0725203263048839
22.232676,7.334847489796995,0.0723611353167101
22.235056,7.350167343491896,0.0721856815243797
22.237452,7.368327915694378,0.0719648647301978
22.23984,7.388909897523857,0.0717169609345181
22.242224,7.411773519353472,0.0714481034320182
22.24462,7.436267154877166,0.0711507016954552
22.247008,7.465603609654857,0.0707987897306593
22.249388,7.495638912566847,0.0704205798630322
22.251784,7.52637306361314,0.0700180882622282
22.254172,7.555803962047316,0.069597780250755
22.256556,7.584862773429156,0.0691595149344641
22.258952,7.615411828878213,0.0686984893983319
22.26134,7.651455329887325,0.0681911649895097
22.263724,7.694343750896847,0.0676209388254748
22.266124,7.735928919294254,0.0670335239843245
22.268512,7.778724792505161,0.0664383204726459
22.270896,7.818866938663592,0.0658495684390496
22.273296,7.8574262929561876,0.0652570777610523
22.275684,7.897196352062281,0.0646552266605826
22.278064,7.938456655235593,0.0640347742018402
22.28046,7.972919260236737,0.063441496358709
22.282848,8.001003475946293,0.062857678838089
22.285228,8.022010454229958,0.0623103877134963
22.287632,8.037570208781817,0.0617703990177149
22.29002,8.045820408482307,0.0612387189480247
22.2924,8.048204075570407,0.0607290565305968
22.294792,8.046304001911954,0.0602496312244804
22.29718,8.041470661947306,0.0597802114146203
22.29956,8.031562185303185,0.0593341074295272
22.301964,8.0256579101519,0.0588718540586374
22.304352,8.016820368694416,0.05841772806024
22.306732,8.00477002167702,0.0579831920058076
22.309136,7.992440135405901,0.0575602844474832
22.31152,7.974476033947869,0.0571807533977963
22.3139,7.961027990661869,0.0568010524577392
22.316296,7.941433875509758,0.0564478596700838
22.318684,7.916624854051314,0.0561189047683776
22.321064,7.890325588525651,0.0558105703513933
22.323468,7.860673747813212,0.055525381222932
22.325856,7.822733964861386,0.0552776180734194
22.328236,7.789030700827871,0.0550399701704281
22.33064,7.760634890899305,0.0548061158906474
22.333028,7.737686304702549,0.0545714326335531
22.335408,7.716832367050827,0.0543597492336181
22.337804,7.7011461138771935,0.0541578192264524
22.340192,7.687182422196258,0.0539584164579731
22.342576,7.672799421634741,0.0537746337530926
22.344972,7.662652939991535,0.0536031431701769
22.34736,7.653949480587306,0.0534455190381938
22.34974,7.641474137115719,0.053327898279362
22.35214,7.633375082189303,0.053217183412787
22.354528,7.627929754315363,0.0531096628028953
22.356908,7.621925347933983,0.0530238433994621
22.359312,7.61671233748552,0.0529424740848305
22.3617,7.608286521477142,0.0528791544396667
22.36408,7.601723036588319,0.0528141497750485
22.366484,7.600886314685026,0.052739880942927
22.368872,7.604984959834346,0.0526521164204839
22.371252,7.611085705730084,0.0525577630295544
22.373652,7.626917416104185,0.0524418026886779
22.376036,7.638372837933113,0.0523173408573364
22.37842,7.644892892709431,0.0522063455064998
22.380816,7.648759220433274,0.0520916935608835
22.383204,7.653836252970615,0.0519659627839673
22.385584,7.656911184761539,0.0518466323693922
22.38798,7.660777512485381,0.0517322716481414
22.390372,7.665854545022723,0.0516065829650926
22.392752,7.665344584201394,0.0514834902865005
22.395148,7.665905558566704,0.0513544317854844
22.397536,7.667677237745514,0.051213937108365
22.399912,7.66623611136441,0.0510911313656878
22.402308,7.662932653863746,0.0509691207151169
22.404696,7.661910836363218,0.0508308013733104
22.407092,7.66289111960911,0.0506864004096933
22.409488,7.661729532481723,0.0505531640634609
22.411876,7.66443237722031,0.0504132284657896
