Time,Force,Position
20.909388,3.280980167371633,0.1680777404695439
20.911772,3.2861006300214792,0.1680259975956142
20.914168,3.300532748269109,0.1676451827689914
20.916556,3.3125434568897405,0.1674040628156597
20.918935999999995,3.334237908160493,0.1669048830921893
20.921336,3.367478433200923,0.166102865425983
20.923724,3.401510354174271,0.1652773831128186
20.926108,3.440617411827091,0.1642630968195703
20.928504,3.477769590561738,0.1632192762232262
20.930892,3.51254758149763,0.162225760282881
20.933276,3.548536277247021,0.1612020299070618
20.93568,3.591741980049161,0.1599079079545605
20.938068,3.629872546171829,0.1587890678726495
20.940448,3.660181700763933,0.1578946081298429
20.942848,3.685835027557146,0.1571505516987711
20.945236,3.712419519910136,0.1563871958218595
20.947616,3.7435200704351583,0.1555074966075992
20.950012,3.775691556146819,0.1545974961507567
20.9524,3.812658639284231,0.1535474427684785
20.95478,3.8537696935413375,0.1523705430752611
20.95718,3.889805611118972,0.1513764612274788
20.959568,3.9246308238831062,0.1504656172875433
20.961948,3.9602946544084032,0.1494893085570767
20.964348,3.990418713403274,0.1485720413370354
20.966736,4.005272036389353,0.1480343759597362
20.96912,4.010813703777648,0.1477559153722265
20.971516,4.01900909821842,0.1474208063029648
20.973904,4.020918651166219,0.1472993132752051
20.976288,4.02911404560699,0.1469683780274669
20.978688,4.038240605607539,0.1466143377392215
20.981072,4.0440145904213125,0.1463888284880483
20.983456,4.046947856727508,0.1463080769547041
20.985852,4.055747655646093,0.1460628659348907
21.012132,4.049697923294338,0.1458629224733164
21.014532,4.054586068518707,0.1457953427705083
21.01692,4.06170863191497,0.1457136571313045
21.0193,4.0694828216172905,0.1456387699948569
21.021696,4.082332147999083,0.1454117427094808
21.024083999999995,4.0890354025147655,0.1453733631402003
21.026464,4.09480749147067,0.1453568264632841
21.028864,4.101231206732631,0.1453439285188604
21.031251999999995,4.107794691621453,0.1453187859499994
21.033632,4.115708650950634,0.1452364587422711
21.036032,4.127347272518929,0.1450696039051762
21.038416,4.139777290020142,0.1448930374206543
21.0408,4.157794300880025,0.1445905018485022
21.043195999999995,4.175252233232467,0.1443411807469884
21.045584,4.191127373719072,0.1441120302598501
21.047968,4.214032529803323,0.1437551330539995
21.050363999999995,4.237030233686192,0.1434521947262458
21.052752,4.256815132009144,0.143251326689423
21.055136,4.28074400145179,0.1429302458304607
21.057531999999995,4.308444754961793,0.1424630409053945
21.05992,4.3304187454862655,0.1421328994727018
21.062304,4.355745311197515,0.1417054007980699
21.064699999999995,4.377906293177091,0.1413050956687477
21.067088,4.394620051424858,0.1410108967235831
21.069472,4.410682183366567,0.1407182356272298
21.071867999999995,4.424881984188719,0.1404577968335608
21.074256,4.440944116130428,0.1401585765606498
21.07664,4.4623609240053295,0.1397076733343748
21.079035999999995,4.482055170387535,0.139286742333505
21.081424,4.500678481583101,0.1389087183963755
21.083808,4.516508296099332,0.1385888865489167
21.086203999999995,4.533269276175342,0.1382504931043787
21.088595999999995,4.544955119571879,0.1380429393375245
21.090979999999995,4.559341911849135,0.1377315696082884
21.093376,4.572657768939753,0.1374505810341036
21.095764,4.579735006365642,0.1372755499439944
21.098147999999995,4.588302487858749,0.1370355300272173
21.100548,4.599570918232575,0.1366900906178269
21.102936,4.608325391180787,0.1363795673002296
21.10532,4.614378915248281,0.1361764684111118
21.107716,4.624296871181747,0.1358895828512585
21.110104,4.627417128943047,0.1357517160716787
21.112488,4.639197415996071,0.1354393653683231
21.114888,4.657123774915205,0.1349799616503214
21.117276,4.67369965939398,0.1345745122436349
21.119656,4.698795803537621,0.1340074456423506
21.122056,4.724311256561843,0.133415769796139
21.124448,4.743308550667617,0.1329496399210909
21.126828,4.76272515365397,0.132452411593375
21.129228,4.776135454401074,0.1320829120918453
21.13162,4.794481122200788,0.1316159538634475
21.134004,4.815248199627501,0.1310814691916041
21.136416,4.839415074069231,0.1303989794816941
21.138808,4.8566444807119336,0.1298586259361033
21.141192,4.873454578474055,0.1293469841678626
21.143588,4.893849568848431,0.1287800940598654
21.145976,4.916246659969223,0.1281800756671316
21.14836,4.9387835207168775,0.1275800821433027
21.150756,4.962111777397448,0.126979342949924
21.153144,4.985719573331739,0.1263574331028949
21.155528,5.010538074079528,0.1257080171947848
21.157928,5.035216805200458,0.1250605415226539
21.160312,5.049512945536966,0.1245947616692059
21.162696,5.058873718820861,0.1242259802714061
21.165096,5.067582865798698,0.123850582940716
21.16748,5.070844789044726,0.1235554303076424
21.169864,5.068240179678363,0.1233661594685738
21.172264,5.063913008819305,0.1231943444673683
21.174651999999995,5.059818155385724,0.1230602421757958
21.208104,4.92133145055653,0.1230433104518786
21.210491999999995,4.917329144921566,0.1229552397452262
21.212875999999994,4.913838695965799,0.1228840254047691
21.215272,4.91086010368923,0.1228297131673806
21.217659999999995,4.9126771088384125,0.1226961363542875
21.220043999999994,4.918079006599849,0.1225172243817074
21.22244,4.924039982868726,0.1222982378806442
21.224827999999995,4.929069793577823,0.122093810796979
21.227208,4.9382435754066165,0.1218018203679257
21.229608,4.949559227608686,0.1214616634526765
21.231995999999995,4.962225354251115,0.121077492893858
21.234376,4.976474272759379,0.120691634416374
21.236776,4.993376918320118,0.1202837011787992
21.239163999999995,5.008789319813637,0.119931010568457
21.241544,5.028717779479189,0.1195185903206631
21.243944,5.046923677652043,0.1191230684485645
21.246331999999995,5.0639188710114,0.1187638155657785
21.248712,5.080634525117036,0.1184255005866135
21.251112,5.093345977729838,0.1181570578036727
21.253496,5.105266034409722,0.1178934185644732
21.25588,5.124403098142355,0.1174932670144867
21.25828,5.138604794822378,0.1171815693460069
21.260667999999995,5.156298836316035,0.1167873749754847
21.263048,5.17520358262319,0.1163623485899487
21.265448,5.194248098557207,0.1159314282905513
21.267832,5.216225880797418,0.1154623644528526
21.270216,5.235130627104574,0.1150482286639847
21.272616,5.254966538971509,0.1146242743098961
21.275004,5.277316408264059,0.1141896999681542
21.277387999999995,5.298874881623689,0.1137600554826394
21.279784,5.318571023863763,0.1133545224702915
21.282176,5.33067807199875,0.1130487891124817
21.284555999999995,5.339851853827542,0.1127913401551868
21.286952,5.347582613417358,0.1125273881824311
21.289344,5.356663847447534,0.1122262018269902
21.291728,5.366676247037487,0.1119135055772508
21.294124,5.377619812187219,0.1115908842206388
21.296516,5.3894945428967285,0.1112578937672631
21.2989,5.405653014352793,0.1108408171918032
21.3013,5.424465212861332,0.1104040979083964
21.303688,5.4383420443172605,0.1100478773288108
21.306068,5.453801667639022,0.10968843197698
21.308464,5.464977550214231,0.1094111288463116
21.310856,5.477084598349219,0.1091259288552817
21.313236,5.49184537353668,0.1088232748552129
21.315632,5.501531012044671,0.1086005011364104
21.318024,5.517362722418771,0.1082844396641194
21.320404,5.534405137606371,0.107944738725718
21.322804,5.547583120927996,0.107654806089157
21.325192,5.562623435369179,0.1073481539092013
21.327572,5.578734684997,0.1070233869258946
21.329968,5.602714567983629,0.1065938659183628
21.332356,5.622690249477423,0.1062185476879596
21.33474,5.647181989143249,0.1058058416176189
21.337136,5.669531858435798,0.1054327718866399
21.339527999999994,5.692673123661265,0.1050602727966019
21.341908,5.71660578481965,0.1046903986539851
21.344324,5.740538445978034,0.1043225161176987
21.346708,5.769126934935311,0.1039178146582429
21.349087999999995,5.7947821575863925,0.1035522404793424
21.351484,5.818807366543394,0.1032362940405431
21.353872,5.843112114754118,0.1029053405718107
21.356252,5.868999654830676,0.1025723390511995
21.358647999999995,5.897029065280515,0.1022125451756932
21.361036,5.9184005471850405,0.1019234267320162
21.363416,5.940842964276207,0.1016161499983829
21.365812,5.959793036553737,0.1013806601520082
21.368199999999995,5.974040059204134,0.1012363442997729
21.370584,5.989078477787446,0.101090981612204
21.37298,6.003557817863319,0.1009799581208624
21.375367999999995,6.021482280924585,0.1008536644349955
21.377748,6.037125103985713,0.10076990143256
21.380164,6.05956562521901,0.1006130409566587
21.382548,6.07986427607903,0.1004904650082819
21.384932,6.102165027685466,0.1003450845490728
21.387328,6.12539694485168,0.1001932657750863
21.389716,6.148768631644755,0.100036068077758
21.392095999999995,6.173351023251328,0.0998578035299437
21.394492,6.189273385566176,0.0997663942203001
21.39688,6.207197848627442,0.099652972523049
21.39926,6.227543721315705,0.0994930001497093
21.401656,6.248820759563746,0.0993275034174977
21.404044,6.270517106692368,0.0991398149718713
21.406424,6.28485667714138,0.0990507434653198
21.40882,6.303991845016144,0.0989164928955226
21.411207999999995,6.323266782517769,0.0987748814210769
21.413588,6.342681489646253,0.0986262797297344
21.416,6.365728311215235,0.0984084428901134
21.418388,6.391848168717271,0.0981548561379404
21.420767999999995,6.414522903233915,0.0979152523301247
21.423168,6.432681579578526,0.0977072184027495
21.425556,6.452470269617217,0.0974567165056847
21.427935999999995,6.468534297416796,0.0972378248049084
21.430332,6.486088569283593,0.0969841972172666
21.43272,6.499918178911276,0.0967593236488406
21.4351,6.512304766299984,0.0965279053014433
21.437496,6.522829022569135,0.0963116183291808
21.439884,6.530420012532091,0.0961241054249123
21.442268,6.542154973614741,0.0958868931428974
21.444664,6.550165272458276,0.0956773852672561
21.447047999999995,6.559526045742174,0.0954412006377775
21.449428,6.568235192720012,0.0951991084847573
21.451844,6.576432483018651,0.0949431623469293
21.454228,6.588541427011508,0.0946087414690447
21.456612,6.597065478392111,0.0942938881424866
21.459008,6.6066604649593526,0.0939663765139165
21.461396,6.615091968541338,0.0936167494337282
21.463776,6.623663241750185,0.0932619639497826
21.466176,6.633864528653111,0.0928710559240714
21.46856,6.647558160369674,0.092426995136078
21.470944,6.663393662459513,0.0919577032935122
21.47334,6.6781582293627135,0.0915055263093451
21.475728,6.694133501079414,0.0910353131456841
21.478108,6.705173405743502,0.0906085046559653
21.480508,6.720357281527283,0.090138732544997
21.482896,6.73246812137801,0.089698943205899
21.485276,6.744067104549538,0.0892444518600323
21.487672,6.754874691788148,0.088787220219304
21.49006,6.763680178280341,0.0883494139071347
21.492444,6.77555870070559,0.0878806750993156
21.49484,6.78529535275756,0.0874397706527341
21.497228,6.788094537010504,0.0870562616978047
21.499607999999995,6.790474412382865,0.0866941180424093
21.502008,6.79057264775509,0.0863634989451778
21.504396,6.795606250179927,0.0859927044126706
21.506775999999995,6.796915190365651,0.0856430499147752
21.509172,6.797525282417073,0.0853274817845589
21.51156,6.795341877789161,0.0850279669616021
21.51394,6.782728660548583,0.0848366321294915
21.51634,6.764760767374813,0.0847057314093644
21.518724,6.744651003827766,0.0845986455212371
21.521108,6.725332636213637,0.0844923152260464
21.52352,6.699868196733398,0.0844447477013648
21.525908,6.680270289865548,0.0843512004616788
21.528288,6.656248872624284,0.0843122914848906
21.54262,6.530180810149088,0.0842438149279212
21.545016,6.518309871155317,0.0842161770607509
21.55218,6.479437026785843,0.0842117529504803
21.554568,6.470452132270022,0.0842043001075223
21.556948,6.461467237754205,0.0841969625545031
21.559363999999995,6.455787696596917,0.0841902232794167
21.561752,6.454903752865381,0.0841512794435642
21.564132,6.457604701746098,0.0840984563846563
21.56892,6.45872285876098,0.0840418668176045
21.5713,6.465288239507672,0.0839609758818936
21.573699999999995,6.46663871394803,0.0839345616613516
21.576088,6.471201993948305,0.0838713564352761
21.578472,6.474694338761942,0.0838208544954199
21.580867999999995,6.486055316934385,0.0837086661552659
21.583251999999995,6.498766769547186,0.083571041559915
21.585636,6.5098954302941525,0.0834297153359536
21.588032,6.523305731041256,0.0832574728591541
21.590419999999995,6.534481613616465,0.0830721063436601
21.5928,6.543795165072117,0.0828991735937595
21.595195999999994,6.557112918020603,0.0826951687834556
21.597584,6.5727123109692265,0.0824611433579873
21.599964,6.591244970224046,0.0822066639609489
21.602363999999994,6.602700392052975,0.0820135405127458
21.604752,6.6170890801881,0.0818000519924002
21.607132,6.629894976457388,0.0815833566080931
21.609531999999994,6.6491264838465085,0.081301027447151
21.61192,6.6738524367956815,0.0809597283083543
21.6143,6.698578389744855,0.0806190604886863
21.616699999999994,6.723723651574608,0.0802525610945766
21.619084,6.74286261116511,0.0799361537332362
21.621468,6.76442298038261,0.0795831006585263
21.623864,6.786123119226971,0.0792260176568595
21.626252,6.806240466205494,0.0788653520644629
21.628632,6.818768719078931,0.0785467459942734
21.631028,6.831017432698648,0.0782432988058513
21.633416,6.845128477437921,0.0779321790498892
21.6358,6.8593792918040535,0.0776164577345452
21.638196,6.876283833222663,0.0772955852038925
21.640584,6.889323942775297,0.0769982918217922
21.642968,6.894495418969125,0.0767536119793945
21.645364,6.8996668951629525,0.0765100605371233
21.647756,6.902324413931167,0.0762658664147496
21.65014,6.908334507886156,0.0759826681986898
21.652536,6.913972514788807,0.0756790852028738
21.654924,6.9204019176243765,0.0753790214145708
21.657304,6.9220357230341945,0.0751069660054676
21.659704,6.917663226204761,0.0748773478505472
21.662092,6.916503534935244,0.0746191319556138
21.664472,6.9250748081440925,0.0743086798947496
21.666868,6.93951261396533,0.0739668590355319
21.669256,6.953810650159706,0.0736323093878728
21.671636,6.96983124784678,0.0733004750759773
21.674036,6.98622393258619,0.0729902868773974
21.676424,7.010485250684408,0.072636762123905
21.678804,7.035957273596124,0.0722705025052465
21.681204,7.060358361321202,0.0719150178684879
21.683592,7.085690614606058,0.07155985302582
21.685972,7.112885199010471,0.0712021070601251
21.688368,7.140871179347803,0.0708460668142248
21.69076,7.172721591551107,0.0704697452447684
21.69314,7.206434334873969,0.0700913377033123
21.69554,7.241590100435806,0.0697264712836654
21.697928,7.277117953049983,0.0693844528316293
21.700308,7.311015791970078,0.0690781213313061
21.702724,7.345984566076811,0.068765519204132
21.705112,7.377181456116189,0.0685026352463401
21.707491999999995,7.408890202834764,0.06825501387716
21.709892,7.434452877687229,0.0680495696670976
21.71228,7.454940415860221,0.0678792335307597
21.714664,7.469421651793962,0.0677437725978923
21.71706,7.488558715526596,0.0675971437038341
21.719448,7.503691577766395,0.0674733212367748
21.721827999999995,7.52203724556611,0.0673251177269889
21.724224,7.537821734111968,0.0672128718425958
21.726612,7.55053318672477,0.0671202196378098
21.728995999999995,7.563104869710711,0.0670334772933831
21.731396,7.574326078256297,0.0669671695429753
21.73378,7.580751689376126,0.0669186848998349
21.736163999999995,7.594254537921848,0.0668320739671611
21.73856,7.61283252314704,0.0667187098447603
21.740948,7.629268637998956,0.0666220328614487
21.743328,7.646124061731452,0.0665092700728699
21.745728,7.663538563971389,0.0663747987926281
21.748116,7.681092835838186,0.06623488995516
21.750499999999995,7.695853611025647,0.0661020530523489
21.7529,7.719042098079357,0.0659142810045362
21.755288,7.745443390692983,0.0657047845632572
21.757667999999995,7.777571446292138,0.0654776542235698
21.760064,7.811981141891432,0.0652327394553463
21.762452,7.847461772677364,0.0649794349340886
21.764832,7.878426345291264,0.0647338290863753
21.767232,7.910741392345523,0.0644702595371721
21.76962,7.940682251601029,0.0641990384426353
21.772,7.971461728617695,0.0638979126917901
21.774396,8.008387277500471,0.0635678103799261
21.776784,8.046803070450467,0.0632161734724507
21.779168,8.084707006721267,0.0628516628234722
21.781564,8.127546310044677,0.0624696542130361
21.783952,8.161725584076363,0.0621168940431776
21.786331999999994,8.192180195868934,0.061775523516317
21.788728,8.218258519116334,0.0614306564880802
21.791115999999995,8.245407777550373,0.0610819499914099
21.793496,8.271765640051495,0.0607315745511373
21.795891999999995,8.298403041806337,0.0603716969300327
21.79828,8.325319982814898,0.0600018778431854
21.800664,8.34758109602457,0.0596429766332129
21.803059999999995,8.367328251808624,0.0592802258805967
21.805443999999994,8.386703320540343,0.058901629919094
21.807828,8.400211856659672,0.0585415494068814
21.810224,8.417072967965776,0.0581589734588974
21.812611999999994,8.431792208898603,0.0577886082465092
21.814996,8.44544051464479,0.0574247570703164
21.817392,8.45773834595062,0.0570777468683033
21.819784,8.462958939830559,0.0567579580913503
21.822164,8.458308799605275,0.0564690048741946
21.824563999999995,8.451656558633575,0.0561871661042736
21.826952,8.443141986542319,0.0559066249716362
21.829332,8.428900651465531,0.0556365143479924
21.831731999999995,8.414799086015604,0.0553594129290253
21.83412,8.393480513512928,0.0551122482292541
21.8365,8.376026372876224,0.0548550950241097
21.838899999999995,8.351494994813633,0.0546231406591294
21.841288,8.32682384712418,0.0543954945949517
21.843668,8.30015059868831,0.0541734379428591
21.846064,8.275199911745137,0.0539541302828637
21.848451999999995,8.247176188868908,0.0537457097318643
21.850836,8.215148264499847,0.0535484714617052
21.853232,8.182049404944147,0.0533560276882784
21.855624,8.15160427244092,0.053165797523897
21.858004,8.11780656475092,0.0529967997678102
21.8604,8.086150727434195,0.0528155045405264
21.862792,8.052492789371053,0.0526391082219954
21.865172,8.016832750561495,0.0524675810911971
21.867572,7.985828539550829,0.0522922666382071
21.86996,7.96148225708547,0.0521073073217967
21.87234,7.936856435366391,0.0519317723365841
21.87474,7.914884340699789,0.0517592411715863
21.877128,7.896776677899158,0.0515789581129571
21.879512,7.883976469203477,0.0514062786070844
21.881908,7.878113728306825,0.0512142737903358
21.884296,7.87411331852973,0.0510219669459328
21.886675999999994,7.877841772484582,0.0508160978579874
21.889076,7.879288586439296,0.050626110463458
21.891464,7.883389127446486,0.0504402463715232
