Time,Force,Position
23.5683,2.16529307221117,0.1802269733816613
23.570704,2.235810378750152,0.1790143246771274
23.573092,2.2940374374147825,0.1787360978578795
23.575468,2.348634277496786,0.1785639993877021
23.577868,2.4100307116088278,0.1774085481602218
23.580256,2.458579715196945,0.176545493950529
23.60892,2.55143741173913,0.1753776452786196
23.613716,2.5515771813659898,0.1753554276922271
23.616104,2.5554869392023374,0.1753549223791034
23.618484,2.565775086330273,0.1750482400549945
23.62088,2.577413707898568,0.1746130924736988
23.625648,2.594357887713942,0.1742928580515912
23.635224,2.6221473973068243,0.1739300923545502
23.637608,2.6300613566360056,0.1737227177196693
23.639988,2.6380678637638035,0.1736104269800743
23.642388,2.6513818249965517,0.1732877280212219
23.644772,2.671493484401468,0.1726055036107447
23.647152,2.692256770112442,0.1719324490723481
23.649556,2.7169770354880067,0.1711828652652622
23.651944,2.744351027916046,0.1703757016170478
23.654324,2.7747980562771413,0.1694250865717649
23.656728,2.8127416309447058,0.1680881331747281
23.659112,2.8430035637085664,0.1670246830152733
23.661496,2.8710310783005326,0.1660012711935105
23.663892,2.901340232892637,0.1648662181487157
23.66628,2.9260623941260717,0.1639271380935839
23.66866,2.950552237934028,0.1629224600805819
23.671056,2.970014166890755,0.1620673164596807
23.673444,2.989615865474343,0.1611943848834272
23.675824,2.9999984562587647,0.1607740001251973
23.67822,3.022206660066584,0.1598978890668632
23.680608,3.0479997564866563,0.1588968661343681
23.718828,3.04344216405999,0.1580251580019576
23.721232,3.0436291555150934,0.1579141849357871
23.72362,3.0518245499558643,0.1574778270157652
23.726,3.0584371525307987,0.1570839334846626
23.728404,3.0633271936130364,0.1567374562867282
23.730792,3.0774363424944413,0.1560270655677659
23.733172,3.0958292321223992,0.1551298753425143
23.735568,3.117946783989471,0.154110481657439
23.737956,3.1399245662296824,0.1531066849311822
23.740336,3.162833514029672,0.1520845680252306
23.742732,3.18066732515019,0.1512504199771965
23.74512,3.194589482576491,0.1506381109441005
23.7475,3.210746058174686,0.1500036140439498
23.749904,3.2292768215716348,0.1493329103810688
23.752288,3.2523236431406155,0.1485289420145706
23.754668,3.2761618606425142,0.1476997100561924
23.757064,3.3013033307565287,0.146888609932886
23.759452,3.326724340124263,0.1460454495080451
23.761832,3.3516334928128013,0.1452184684425426
23.764236,3.373888918448864,0.1444697272277968
23.7905,3.4398524242769186,0.1437052444523116
23.7929,3.450559880285435,0.1435290945043121
23.795284,3.462897349988031,0.143254988375089
23.79768,3.4757938981980665,0.1429261137327231
23.800076,3.485757180101907,0.1426882334566178
23.802464,3.5013074553644183,0.1423117884876349
23.804848,3.512993298760956,0.1420432554991362
23.807244,3.52654147327705,0.1417318406480905
23.809632,3.537668238166147,0.141533649334249
23.812016,3.551960586786916,0.1413044374434062
23.814412,3.5702099150722764,0.1410379469163618
23.8168,3.5891108696636937,0.1407762045144812
23.81918,3.612016025747945,0.1403946777786651
23.821576,3.637994217765252,0.1399207472796701
23.823964,3.6655552016483943,0.1394218898997624
23.826348,3.7001934229574265,0.1386952331868615
23.828752,3.7384637587069545,0.1378160478980693
23.831136,3.770495474791755,0.1370827021081295
23.833516,3.801735794943637,0.1363731865134163
23.83592,3.837631942894411,0.135555392529616
23.838308,3.8724571556585463,0.134784557069664
23.840688,3.897783721369796,0.1343246076265584
23.843084,3.920177020774849,0.1339515157700597
23.845472,3.9402886801797656,0.1336672131183948
23.847852,3.9611917355176,0.1333728807467273
23.850252,3.976368027869904,0.1332237670183617
23.85264,3.998901096901818,0.1328528931848349
23.85502,4.017989042948338,0.1325407683973164
23.857416,4.035494197129024,0.1322424445950786
23.859808,4.048762832391398,0.1320061511772272
23.862188,4.05793471836232,0.131819403536495
23.864584,4.067945222094405,0.1315550080072006
23.866972,4.074510602841095,0.1313451315472643
23.869356,4.080005048401148,0.1311707937642404
23.871752,4.087920903588199,0.1309078068164907
23.874136,4.091972326909276,0.1307354727995307
23.876516,4.09229908799124,0.130639143352253
23.878916,4.093277475379261,0.1305489921494765
23.881304,4.094116093140422,0.1304723063496382
23.8837,4.093092379782027,0.1304329823444099
23.886096,4.09355891049085,0.1303257236486019
23.888484,4.102872461946503,0.1299494917163816
23.890868,4.115398818962071,0.129487925337799
23.893264,4.130346585604636,0.1289461883315462
23.895648,4.144642725941145,0.1283954530605008
23.898032,4.161080736650929,0.1277848038206723
23.900428,4.169510344375047,0.1273673278329544
23.902816,4.18101298803222,0.1268769245756068
23.905196,4.19330702762231,0.1263805556506894
23.907596,4.207323628705097,0.1258592389573468
23.909984,4.222271395347663,0.1253200473481628
23.912364,4.234797752363231,0.1248657708846283
23.914768,4.250257375684995,0.1243511171508793
23.917156,4.26371489826034,0.1238833869370931
23.919536,4.274239154529491,0.1234815271058158
23.921936,4.2867655115450605,0.1230343383786302
23.924324,4.302225134866824,0.1225280580339453
23.926704,4.320106167815584,0.1219413041430377
23.979276,4.259129042584123,0.121506965056212
23.981664,4.268393476353664,0.1214228054542545
23.984044,4.285945852362591,0.1211537708213358
23.986444,4.309364760983908,0.1207728213096831
23.988832,4.334506231097922,0.1203777026350236
23.991212,4.361929341212075,0.1199287149827438
23.993612,4.390423386512866,0.1194473843455649
23.995996,4.413982064761044,0.1190680089853468
23.99838,4.437308425583745,0.1186443514133902
24.000784,4.460634786406446,0.1182253542691689
24.003172,4.486103017602424,0.1177603901521971
24.005556,4.515063593612038,0.1171982563390924
24.007952,4.545606961487489,0.1166343392430306
24.010336,4.578943826042274,0.1160304670984921
24.01272,4.608788345783423,0.1155194519740922
24.015116,4.641566131830768,0.1149603950361424
24.0175,4.677184636385691,0.1143016368082144
24.019884,4.711173127246535,0.1137131074138442
24.022284,4.749585128480794,0.1130128224211631
24.024672,4.779988726729383,0.1124717597321735
24.027052,4.806248353858279,0.1120208628697986
24.029448,4.82426726057603,0.1116851497726446
24.031836,4.831344498001919,0.1115500623158746
24.034216,4.835628238748474,0.1114557036719547
24.039008,4.836699173935112,0.111431901134093
24.041388,4.840703375427945,0.1113611976317921
24.043784,4.847640843226975,0.1112432421132563
24.046172,4.858023434011397,0.1110979849241221
24.048552,4.86719531998232,0.1109860795257103
24.050952,4.87715860188616,0.1108752730616293
24.053336,4.887261653416862,0.1107573942305463
24.05572,4.893779812335311,0.1106758576646002
24.05812,4.898575409761063,0.1106081805787216
24.060508,4.910355696814087,0.1103733128202928
24.062888,4.918690860881718,0.1101658847762488
24.065284,4.926606716068768,0.1099911395340595
24.067672,4.938154685696315,0.1097269033811783
24.070056,4.949562885697001,0.1094760559753589
24.072452,4.965254826444242,0.109142061764057
24.07484,4.984299342378257,0.1087381477280028
24.077236,5.007859916484304,0.1082891926828212
24.079632,5.03942889357602,0.1077111725855473
24.08202,5.069787165854236,0.1071619293577191
24.0844,5.098422876639756,0.1066209829003641
24.086796,5.127617665932717,0.1060408377631024
24.089184,5.150526613732707,0.1055804936050257
24.091568,5.170362525599641,0.1051734222504533
24.093964,5.186753314481183,0.1047931974961756
24.096352,5.203423642616445,0.104393700406337
24.098732,5.215158603699094,0.1040677414527733
24.101132,5.225682859968245,0.1037749908642518
24.103516,5.239280152170451,0.1034316616668008
24.1059,5.2536688403055765,0.1030887003765892
24.108296,5.265077040306263,0.102847669979575
24.110684,5.281141068105841,0.1025601717199049
24.113068,5.295063225532142,0.1023124697642362
24.115464,5.30470164221189,0.1021424354505286
24.117852,5.312198188518359,0.1020109424180118
24.120232,5.319275425944247,0.1019077109657158
24.122636,5.323279627437081,0.1018516708335973
24.127408,5.32435056262372,0.101833143857004
24.129804,5.329565468930053,0.1017519836515549
24.132192,5.33864480710236,0.1016256594137463
24.134576,5.35037787232714,0.1014829658212814
24.136972,5.370910736470506,0.1012371829647739
24.13936,5.391443600613871,0.1009891160031573
24.141744,5.410346451063159,0.1007917054855206
24.14414,5.43190302856492,0.1005786833615498
24.146528,5.456532641999738,0.1003204488744758
24.148912,5.475947349128221,0.1001396281637887
24.194328,5.444151742184637,0.100122472359992
24.196716,5.434562443191002,0.1000770206762456
24.199096,5.431398755317199,0.0999294190746847
24.201496,5.430516707443532,0.0997395696514049
24.203884,5.4336388610627,0.0995008451209612
24.206264,5.439834050614923,0.0992189551816457
24.20866,5.4486829672196215,0.0989204851831777
24.211048,5.459533984570736,0.0985976607292799
24.213432,5.474109664160964,0.0982448097849996
24.215828,5.493620710803804,0.0978349593900575
24.218216,5.504471728154918,0.0975127202707741
24.220596,5.514531349573114,0.0971919097176712
24.222996,5.529154250991586,0.0967866562800792
24.225384,5.549271597970109,0.0962862407367453
24.227764,5.5705996497621335,0.0957634535594557
24.230164,5.597282377487349,0.0951574538120492
24.232552,5.62131137816009,0.0945609160000909
24.234932,5.638263141406941,0.0940590568667366
24.237332,5.652933264653655,0.0936048321915936
24.23972,5.669186179766205,0.0931533703888543
24.2421,5.688372361184951,0.0926700898476344
24.244504,5.706347837790198,0.0922189983218787
24.246888,5.714964436969419,0.091896052703103
24.249272,5.722370331335141,0.0915986493061743
24.251676,5.720836657155418,0.0914000315720098
24.254064,5.720373918162333,0.0911861201828179
24.256444,5.717536991370492,0.090968851706062
24.258836,5.7128377334590965,0.0907661127494091
24.261224,5.705344978868365,0.0905854387059543
24.263604,5.6957103539043565,0.0904353701666885
24.266,5.695946463045574,0.0901816710472695
24.268388,5.6948320977464295,0.0899595113651603
24.270768,5.69129632282029,0.0897843270861719
24.273164,5.689622879013705,0.0895965569894763
24.275552,5.686598960766761,0.0894402075954582
24.277932,5.679151532146404,0.0893509956466872
24.280328,5.67542876576516,0.0892345774587722
24.282716,5.676781136063388,0.0890600309347679
24.285096,5.675479779309142,0.0888971690483735
24.287492,5.673387026621977,0.0887330649390819
24.28988,5.671154504307952,0.088577581171286
24.292276,5.663846845314454,0.0884787585806669
24.294672,5.663476654119987,0.088309729120939
24.29706,5.665108563671937,0.0881203345005991
24.29944,5.6735381713960535,0.087866950401374
24.301844,5.681967779120172,0.0876153126714312
24.304232,5.694773675389459,0.0873490846337293
24.306612,5.710233298711223,0.0870732035861671
24.309008,5.724342447592627,0.0868275892663487
24.311396,5.7392429924069495,0.0865845364702081
24.31378,5.749347939795519,0.0863833467610307
24.316176,5.759592656810951,0.0861734572238022
24.31856,5.771979244199659,0.0859355824240899
24.320944,5.782363730841949,0.0857208680225708
24.32334,5.7930277567379616,0.0854906785021005
24.325728,5.808766919313445,0.0852075981477653
24.328108,5.827579117821983,0.0848941463278776
24.330504,5.842387114837689,0.0846209218462376
24.332892,5.860780004465648,0.0843332671087157
24.335272,5.881035225213163,0.0840367688066158
24.337672,5.905294647453512,0.0837080078111099
24.34006,5.934768976000193,0.0833207381182674
24.34244,5.960658411934621,0.0829508201744359
24.344836,5.984545747122632,0.0826021777674005
24.347224,6.010574952683919,0.082232377720128
24.34962,6.0366041582452095,0.0818658017843036
24.352016,6.056627061567246,0.0815525483810963
24.354404,6.071574828209811,0.0812869480289415
24.356784,6.092156810039289,0.0809463019773662
24.35918,6.11287856149563,0.0805999042883551
24.361568,6.1362540400044425,0.0802476191637791
24.363948,6.160560684073034,0.0798903339538375
24.366344,6.187940364074682,0.0795096355660198
24.368732,6.213178173703053,0.0791541666867514
24.371112,6.238136444077702,0.0788141729264341
24.373516,6.261372152959655,0.0784809124566637
24.375904,6.281395056281692,0.0781862190999416
24.378288,6.307144722589262,0.0778591308910148
24.380684,6.331171827404132,0.0775362709131965
24.383068,6.350263565166393,0.0772501402721015
24.385452,6.361626439196704,0.077015542029676
24.387848,6.3709872124806,0.0767983537817957
24.390236,6.382210316884052,0.0765732942865864
24.392616,6.394504356474142,0.0763379019944303
24.395016,6.403073733825119,0.0761208925868018
24.397404,6.410572175989459,0.0759157325957891
24.399784,6.425427394833407,0.0756410794596199
24.40218,6.44363518886413,0.0753246337467763
24.404568,6.456208767707943,0.0750799524408219
24.406964,6.467990950618835,0.0748332486122424
24.40936,6.482985939089644,0.0745584212240488
24.411744,6.501053963493509,0.07426106092974
24.414128,6.510973815284845,0.0740280525578016
24.416528,6.519171105583484,0.07379422799617
24.418916,6.526576999949207,0.0735570220089374
24.421296,6.5298389231952365,0.073354839205752
24.423692,6.5343115512547625,0.0731357585081912
24.42608,6.531055315582341,0.0729597035236083
24.42846,6.523515339163367,0.0728249680631012
24.430856,6.517837693863949,0.0726821746399345
24.433244,6.512020278937671,0.0725452867694594
24.435628,6.506854490317451,0.0724186923044423
24.438024,6.498615665764175,0.072317047946556
24.440412,6.48930590602426,0.0722259503364879
24.442792,6.481439168523323,0.0721481314255838
24.445192,6.47157033027597,0.0720844158895084
24.44758,6.455834959416224,0.0720555836740765
24.44996,6.441170523743116,0.0720154642378126
24.461924,6.33413939377046,0.0719863120436054
24.464304,6.31612238291058,0.0719823376032065
24.4667,6.303180508730169,0.0719398773423817
24.469088,6.293963296788873,0.071883996201158
24.471468,6.283814919287796,0.071831109447827
24.473864,6.281535175145529,0.0717312251160394
24.476252,6.28647243805601,0.0715740443706654
24.478632,6.297416003205742,0.0713784597371791
24.481028,6.312084230594588,0.0711692545325963
24.483416,6.324098730930957,0.070962754567599
24.4858,6.342119533506578,0.0707179441264263
24.488196,6.360000566455339,0.0704801753033143
24.490584,6.374017167538126,0.0702609616305827
24.492968,6.393108905300385,0.0700064594145397
24.495364,6.415785535674898,0.0697469375219954
24.497752,6.437111691609051,0.069512222420493
24.500132,6.4600206394090405,0.0692854321993165
24.502532,6.483720983141948,0.0690636464680918
24.50492,6.517431830606941,0.0687767601107015
24.507316,6.552213613258572,0.0684810264456167
24.509712,6.588997496656619,0.0681740664496199
24.512096,6.619914847442277,0.0679006103973441
24.51448,6.642823795242267,0.0676789463014449
24.516876,6.668293922296114,0.0674214168648311
24.519264,6.695766150096378,0.0671541932359253
24.521644,6.720444881217308,0.0668994310662801
24.524048,6.742190346032041,0.0666618317176077
24.526436,6.756206947114829,0.0664594443653751
24.52882,6.770782626705057,0.0662326821290926
24.531216,6.791504378161396,0.0659675535178894
24.533604,6.806639136259064,0.0657189783488164
24.535984,6.82419530398373,0.0654419676439261
24.538384,6.84710614764159,0.065121959851352
24.540772,6.8682944298067525,0.0648040623765429
24.543152,6.884826884173023,0.0644971801131008
24.545548,6.9056430792858485,0.0641594617692253
24.547936,6.925947417719476,0.0638064481219674
24.550316,6.944668964287266,0.0634461619947269
24.552712,6.9565928126828895,0.0631139799718991
24.5551,6.968004804399316,0.0627665878900488
24.557484,6.9801156442500405,0.062391734161436
24.55988,6.992506023354488,0.0620027995299932
24.562268,7.011833870257964,0.0615821954781098
24.564652,7.0288800771613005,0.0611877477935241
24.567056,7.042061852198665,0.0608075769746784
24.569444,7.052961987235892,0.0604496927393113
24.571824,7.067074927833034,0.0600713464504657
24.57422,7.084260904363233,0.0596751273646758
24.576608,7.10130711126657,0.0592876373489816
24.578988,7.113138411863575,0.0589346286933636
24.581388,7.127623439513056,0.0585835352821261
24.583772,7.140246136042979,0.0582377449721937
24.586156,7.15487093331932,0.0578878196006494
24.588552,7.167214090595523,0.0575589749302965
24.59094,7.188636586044032,0.0571925473126832
24.59332,7.20526348406679,0.0568408751980265
24.595716,7.222821547649325,0.0564897715101243
24.598104,7.245175208657612,0.0561305612198387
24.600488,7.272604006345372,0.0557497919465354
24.602884,7.296819998473215,0.0553891014188957
24.605272,7.31940597690698,0.0550611362713787
24.607668,7.346787552766496,0.0547246831036553
24.610064,7.374169128626013,0.0543925825786612
24.612452,7.398617438179334,0.0540689095495214
24.614832,7.421715273292297,0.0537611193188084
24.617228,7.444161482099203,0.0534419883721766
24.619616,7.459111144599637,0.0531683233962555
24.621996,7.474991972659851,0.0528952988215174
24.624396,7.4888706999736465,0.0526301625958524
24.626784,7.503820362474081,0.0523588337109632
24.629164,7.518770024974516,0.0520888760143448
24.631564,7.531158508221093,0.0518481063210047
24.633952,7.5372611499746975,0.0516401136514052
24.636332,7.542153086914806,0.0514431457506853
24.638728,7.537686146428887,0.0512912084390069
24.641116,7.534662228181944,0.051155016354802
24.6435,7.529356669934863,0.0510365441901432
24.645896,7.518975975008312,0.0509372827779363
24.648284,7.506313640081622,0.0508553561919141
24.650664,7.499378068140463,0.0507653691771494
24.653064,7.48871783396019,0.0506765849663118
24.655448,7.4760554990334995,0.0505940726214017
24.657828,7.455524530748002,0.05053015103159
24.660232,7.432991461716088,0.0504718270959457
24.66262,7.416464694923424,0.050394898668861
24.665004,7.40552492148943,0.0503160629962272
24.667408,7.400079593615491,0.0502022933113082
24.669796,7.395425661674468,0.0500941204405471
24.67218,7.393425456785921,0.0499909009524279
24.674576,7.390214547083874,0.0498987393344765
24.676964,7.38593270219519,0.0498123242907671
24.679348,7.384863662866421,0.0497088361729039
24.681744,7.385656954657207,0.0496047509575656
24.684132,7.389802821634772,0.0494781178176968
24.686516,7.397021724545391,0.0493394851182383
24.688912,7.399584799657117,0.0492011310260216
24.6913,7.401356478835927,0.049056891776746
24.693684,7.398984186895042,0.0489289712081402
24.69608,7.395680729394378,0.0488010482839689
24.698472,7.386650508908185,0.0486794704196947
24.700852,7.379482619541548,0.0485569635102462
