Time,Force,Position
23.601028,2.1075589844221487,0.1830621320095643
23.603416,2.1957231106265453,0.1800183943613899
23.605796,2.274530255262785,0.1780660403093358
23.608191999999995,2.34863624612976,0.1762142376260495
23.61058,2.414363642816598,0.1745406834244238
23.612956,2.4759036382712383,0.1724165168361461
23.615352,2.529344578799463,0.1705155615059777
23.617736,2.5789683092899574,0.1690331442748257
23.620116,2.6253339082501626,0.1676059999912765
23.6488,2.6917072436694505,0.1670590031806644
23.651204,2.703019104155781,0.1668744629222268
23.653592,2.7154018998287515,0.1666386022437782
23.655972,2.7325802929274725,0.1662094699193967
23.658376,2.754274744198225,0.1656138758577451
23.66076,2.781556188827647,0.1648259698325885
23.66314,2.810327877524289,0.1639296913644362
23.665544,2.8291362843170886,0.1633842332677789
23.667932,2.8508779574160847,0.1627331027074768
23.670312,2.8763442927541933,0.1619496958031367
23.672712,2.902602024025221,0.1611286597537022
23.6751,2.928580216042527,0.1603116224219088
23.67748,2.961495875858862,0.1591469662525157
23.679876,2.9961340971678947,0.1579612316899825
23.68226,3.0290025351559877,0.1569623957481054
23.68464,3.064105391315973,0.1559250099163487
23.68704,3.096414750796626,0.1550086437519678
23.689424,3.1244875913589665,0.1542197262726347
23.69182,3.1503260137494133,0.1534994214854147
23.694216,3.177375140953358,0.152730943072993
23.696604,3.2033533329706643,0.1520331319403268
23.698984,3.225467093121998,0.1514742010760897
23.701388,3.2429250254744395,0.1510734263529607
23.703776,3.255168051520549,0.1509076555848916
23.718108,3.31288704522172,0.1508246655662671
23.720492,3.3248505320141084,0.1507172751124437
23.722896,3.345893356978803,0.1502827716288201
23.72528,3.365493159704521,0.1498650397846948
23.727664,3.3845811057510424,0.1494417099315989
23.73006,3.405438835118503,0.1489095336264297
23.732448,3.4257847078067662,0.1483584069296985
23.734828,3.4509261779207807,0.1476768142432223
23.737224,3.4774181224751546,0.1469209886415535
23.739612,3.500185404790414,0.1462741639456181
23.741992,3.516015219306646,0.1458446080560134
23.84712,3.458808082284672,0.145557945558365
23.851896,3.469980173144142,0.1454863041479459
23.854288,3.4823176428467386,0.1452085728381368
23.856668,3.495306738855392,0.1449393698861618
23.859068,3.5075044389311265,0.1446796010241099
23.861456,3.5185386560216068,0.1443969770635044
23.863852,3.5316221956867464,0.1439748341637766
23.866248,3.5440541090458284,0.1435463406953964
23.868636,3.5582085838976063,0.1430875878742917
23.871016,3.579580065802133,0.1423916088645072
23.873412,3.599228986213965,0.141745521381956
23.8758,3.620088611439295,0.1410640403200788
23.87818,3.6374558918509887,0.1405212161700632
23.880584,3.6573371296882975,0.1399436932351721
23.882972,3.6825730434587984,0.1391831220213056
23.885352,3.709811057975717,0.1383787293972527
23.887748,3.74054141730627,0.1374449632574906
23.890136,3.774065273316159,0.1364403762781927
23.89252,3.8060063374602113,0.135443118764137
23.894916,3.837575314551926,0.1344242091473909
23.897304,3.863417528658111,0.1335768836171264
23.899684,3.890610217204655,0.1326669834814112
23.90208,3.9163126616839783,0.1318554381985527
23.904468,3.944017206909721,0.1310044329649199
23.906852,3.97428293138932,0.1300574164489674
23.909248,4.007062613294534,0.1290949345118634
23.911636,4.037932742251948,0.1282588461403279
23.914016,4.067452396769004,0.1274725825162049
23.916412,4.094318324233583,0.1267326229577914
23.9188,4.117180050205331,0.1261122123667295
23.921184,4.138598753938101,0.1254974739414587
23.92358,4.153219759498702,0.1250343956767946
23.925968,4.17226427543272,0.1244359559725489
23.928352,4.188375525060541,0.1239057124355962
23.930744,4.202624443568804,0.1234207660941627
23.933132,4.211286368718398,0.1230415165657979
23.935508,4.216455949054357,0.1227784815162439
23.937924,4.220973903084258,0.1225089890615994
23.940312,4.229216519353272,0.1221720100911502
23.942692,4.2323839989428125,0.1219553886459503
23.945096,4.234480543345716,0.1217680135288027
23.947484,4.238159879614456,0.1215731052822451
23.95942,4.213908040805585,0.1214791300614979
23.961808,4.208927347782599,0.1214592633844836
23.964192,4.20580898587917,0.1214071573833423
23.966588,4.200968062483043,0.1213750983505132
23.968972,4.195847599833198,0.1213665834818184
23.973768,4.191937841996849,0.1213178748618676
23.976152,4.193707625317789,0.121230284608483
23.978532,4.195197869385009,0.121167127829937
23.980932,4.1998536971839,0.1210880088906748
23.983316,4.207582560915848,0.1209380758039964
23.985696,4.214892115767214,0.1208241894292968
23.988104,4.222853296924639,0.1207209953502566
23.990488,4.23840357218715,0.1204821779370448
23.992868,4.251811977076383,0.1202934504869719
23.995264,4.265872008271676,0.1201172773317975
23.997648,4.285519032825638,0.1198545590837915
24.000028,4.310892820365129,0.1194897773067595
24.002432,4.335614981598563,0.1191217705477047
24.00482,4.356053402085443,0.1188587128278742
24.0072,4.382218585557853,0.1184979458627948
24.009604,4.407592373097344,0.1181461087286662
24.011992,4.435619887689311,0.1177693127368742
24.014372,4.468303230080169,0.117327984922411
24.016768,4.499216789150089,0.1169630138012185
24.019152,4.532272218593285,0.1165523503153189
24.021532,4.566258813596257,0.1161274392068329
24.023928,4.594239106359981,0.1158235046239332
24.026316,4.619006593563789,0.1155918036536013
24.028696,4.646335260021456,0.1152811264388497
24.031092,4.671382286478984,0.1150334483515178
24.03348,4.701504449615985,0.1146919065243748
24.03586,4.727762180887011,0.1144163039126077
24.03826,4.751366185105564,0.1141769746586852
24.040644,4.780976491563367,0.113825021846639
24.043028,4.807933070968694,0.1135058285756494
24.045424,4.828883348134772,0.1133008934309425
24.047812,4.8466208197409335,0.1131681480545979
24.050196,4.860214320227401,0.1131166980233266
24.052592,4.878231331087283,0.11296059630393
24.05498,4.889590413401859,0.1129063009213937
24.062144,4.911469960269845,0.1128642130602241
24.064524,4.916917184001656,0.1128001479726679
24.066924,4.92012998956157,0.1127331878056874
24.069312,4.923622334375205,0.1126463973983962
24.071692,4.930327484748758,0.1124923987730833
24.074088,4.941595915122584,0.1122288776784852
24.076476,4.947789208816937,0.112057219906593
24.078856,4.9553329769516505,0.1118434904640084
24.081256,4.958081147660612,0.1117020598593532
24.083644,4.960317461690375,0.1115413013401304
24.086024,4.960551674973722,0.1114144410281681
24.088424,4.961205197137649,0.1112595808074951
24.090808,4.963069424115076,0.1110740086967238
24.093188,4.965492729599943,0.1108480872694999
24.095604,4.96954604877889,0.1105619647080895
24.097988,4.979885209450806,0.1101580075182692
24.100368,4.986359938256749,0.1098103895069158
24.102764,4.996419559674945,0.1094248899855763
24.105152,5.00741034665292,0.1090314919139115
24.107532,5.0159797240038975,0.1086989475247251
24.109932,5.02790167654165,0.1082925360945003
24.11232,5.037402219452407,0.1079494699073171
24.1147,5.044481352736165,0.1076678266250928
24.117096,5.052771190833421,0.1073584681340866
24.119484,5.06026963299776,0.1070518136232848
24.121868,5.065765974415682,0.1067789476255708
24.124264,5.074475121393521,0.1064442207457749
24.126652,5.084534742811718,0.1060737754877708
24.129032,5.09059016273708,0.1057620382369748
24.131444,5.102651884901695,0.1053605392601549
24.133832,5.11434152001397,0.1049293951953828
24.136212,5.12267857993947,0.1045721662103001
24.138612,5.127011438372137,0.1042746549213637
24.141,5.1361398942305545,0.1039193201766831
24.14338,5.14112437896928,0.1036326046041178
24.14578,5.141033727028532,0.1034260436841286
24.148168,5.1405237662072025,0.1032466744933774
24.150548,5.139641718333537,0.1030396776658098
24.152964,5.13289313784748,0.1029127173845777
24.155352,5.128426197361562,0.1027359481771963
24.157732,5.121537847248645,0.1026181357100414
24.160128,5.1167913675090055,0.1024604398206617
24.162516,5.111905118142507,0.1023117093201253
24.164896,5.103806063216092,0.1022228995105353
24.167296,5.097709109036093,0.1021035899255454
24.169684,5.090261680415734,0.1020230717414548
24.172064,5.083745417355156,0.1019321275526068
24.174468,5.073736809480941,0.1019179741205867
24.176852,5.070525899778895,0.1018156901747032
24.179232,5.065033350076711,0.1017612601946523
24.181628,5.065499880785534,0.101677797285329
24.184016,5.066106181121219,0.101585083242937
24.186396,5.075512280375488,0.1013822397640066
24.1888,5.076770207017231,0.1012993944157624
24.191188,5.082823731084725,0.1011610614289756
24.193572,5.09381262220483,0.1009591446880133
24.195968,5.111227124444767,0.1006493920413479
24.198352,5.131295353737179,0.1003264118345047
24.200732,5.156159180455343,0.0999458637227959
24.203132,5.185818604599258,0.0995202026925791
24.205516,5.215617798370034,0.0990823357609
24.207916,5.246208388073726,0.0986503640227084
24.210308,5.280803179270253,0.0981651530014777
24.212696,5.315258200839922,0.0976854405574804
24.21508,5.344358546476395,0.0972948291777459
24.217476,5.378673798419203,0.0968290961077301
24.219864,5.406051582562982,0.0964488265328782
24.222248,5.4335691363336185,0.0960566306681809
24.224644,5.457222258238284,0.0957114924466062
24.227032,5.476219552344057,0.0954101236651444
24.229416,5.486696586784965,0.0951966585799789
24.260484,5.37101301095206,0.0950806414130181
24.262872,5.359980689719451,0.0950154183370794
24.265252,5.343081835874449,0.0950123300027739
24.267656,5.337124651321311,0.0948825800898755
24.270044,5.334380272328089,0.0947048623230424
24.272428,5.333917533335002,0.0944868167778373
24.274828,5.338110622140809,0.0942314576169998
24.277216,5.348310013185866,0.0939048914660087
24.279596,5.361722209790838,0.0935297612319281
24.282,5.381652565314259,0.0930991377158568
24.284388,5.407868762330652,0.0925849266193862
24.286768,5.4347365856531,0.0920826882560797
24.289172,5.457739977109577,0.0916169784703843
24.29156,5.480603598939194,0.091160316227493
24.29394,5.506680026328725,0.0906573547423825
24.296336,5.5314059792778965,0.0901933033489101
24.298724,5.555060997040431,0.0897422422440954
24.301104,5.582021368161497,0.0892935990660402
24.3035,5.613637567081455,0.0888115160325477
24.305888,5.642972126001276,0.0883761324237396
24.308268,5.674169016040654,0.0879302603244653
24.310664,5.702013330893255,0.0875401960094822
24.313048,5.730369502425056,0.087164782164239
24.315432,5.752719371717605,0.0868621668092863
24.317828,5.772787601010016,0.086599822666576
24.320216,5.793507456608486,0.0863506192334223
24.322596,5.812225211460538,0.0861238146913272
24.324992,5.831874131872368,0.0858948982532124
24.32738,5.851383282657339,0.0856760371933718
24.329764,5.8690301023227525,0.0854704228110887
24.33216,5.883975973107449,0.0853276001137144
24.334548,5.900132548705645,0.0851650212126831
24.336928,5.922947052849148,0.0849548482522752
24.339332,5.949765758485486,0.0847093495998823
24.341716,5.974582363375406,0.0844852326837616
24.3441,6.000330133825106,0.0842580205053764
24.346504,6.0267295305808615,0.0840379582921757
24.348888,6.049544034724366,0.0838351824554781
24.351268,6.070496207748312,0.0836460153343342
24.353672,6.091168841518538,0.0834728160909474
24.35606,6.111050079355847,0.0832996774996442
24.35844,6.135075288312849,0.0830842657368611
24.36084,6.165246569135961,0.0828100148781407
24.363228,6.195138310705354,0.082550555500723
24.365608,6.224890282647886,0.082298079434495
24.368004,6.252779923470862,0.0820580586946044
24.370391999999995,6.282951204293974,0.0817881161433827
24.372776,6.308047348437616,0.0815666463047523
24.375172,6.33114139183484,0.081362967587601
24.377556,6.354235435232063,0.0811592888704497
24.379936,6.372813420457256,0.0809729392767344
24.38234,6.391251636055588,0.0807963190296051
24.384728,6.407827520534364,0.0806323671800746
24.387108,6.420538973147166,0.080496787661468
24.389508,6.433250425759969,0.0803615507852118
24.391896,6.442237216133657,0.0802455805091234
24.394276,6.4547163513209815,0.0800803802480925
24.396676,6.468266421694945,0.0799042947398331
24.399064,6.478883225762714,0.0797491170146113
24.401444,6.4872656116585885,0.0795795501204546
24.403848,6.494856601621544,0.0794084583253654
24.406236,6.5019357349053015,0.0792231885425863
24.408616,6.504638579643889,0.0790478877748466
24.411016,6.507900502889918,0.0788451098184589
24.413404,6.513723605389805,0.078600359525706
24.415784,6.520757412703189,0.0783385645348149
24.418188,6.523647248896879,0.0781142613325408
24.420572,6.529889660277345,0.0778499868754731
24.422956,6.541486747591003,0.0775332650476885
24.425356,6.552711747852326,0.0771935909574035
24.427744,6.566078618486924,0.0768302972410377
24.430124,6.573718726135993,0.0764972762142001
24.43252,6.576051379680113,0.0761743128551378
24.434908,6.575590536544896,0.0758622407349786
24.437288,6.576480167850039,0.0755263539776182
24.439688,6.579232130274737,0.0751816936861723
24.442072,6.579050826393242,0.0748566598057202
24.444456,6.577007191392189,0.0745396385927922
24.446852,6.579387066764551,0.0741734358316367
24.44924,6.585212065122305,0.0738061403436477
24.45162,6.588755423479922,0.0734661842094574
24.454016,6.58587317071771,0.0731891608973715
24.456404,6.57963834276872,0.0729497320844578
24.458784,6.575265845939287,0.0727035393770995
24.461188,6.566889147617021,0.0724853208205976
24.463576,6.556370578921477,0.0722875969291659
24.465956,6.550275520599349,0.0720417173631217
24.468356,6.542178361530802,0.0718094172591609
24.470744,6.526724425782646,0.0716413851180849
24.473124,6.514855382646745,0.0714663444404782
24.47552,6.509923807309872,0.0712495270213027
24.477908,6.51020713827933,0.070989415754522
24.480288,6.514866757793959,0.0707259534772641
24.482684,6.522459643614786,0.0704454373314513
24.485072,6.524837623129279,0.0702067332092327
24.487456,6.527495141897491,0.069954939210649
24.489852,6.532154761412122,0.0696907581790481
24.49224,6.534952049807195,0.069431499074934
24.494636,6.534256993388634,0.0692154255840588
24.497032,6.531839375477374,0.0689992906338553
24.49942,6.536498994992004,0.0687375393821556
24.501804,6.548235851932523,0.0684290102722804
24.5042,6.566118780739153,0.0680776881890113
24.506588,6.57999750805295,0.0677518136797599
24.508968,6.59666973204608,0.0674179314910804
24.511364,6.61441289122585,0.0670748599109968
24.513752,6.627592770405345,0.0667831917763865
24.516132,6.643566146264176,0.0664847709819609
24.518528,6.661821162123142,0.0661594234300383
24.520916,6.677142911675914,0.0658513296480776
24.523296,6.684456258243019,0.0655926585950813
24.525696,6.689487964809987,0.0653590140157572
24.528084,6.6937282754440375,0.0651219582147997
24.530464,6.698899751637864,0.0648832265615042
24.53286,6.711008695630721,0.0646085256886381
24.535248,6.722838100369857,0.064347412725002
24.537628,6.736390066601689,0.0640906117239389
24.540028,6.7555290261921925,0.0638211756618492
24.542416,6.776018460223055,0.0635306309788339
24.544812,6.796647663880776,0.063234975728545
24.547208,6.810618938993189,0.0629633936808349
24.549596,6.820586012612768,0.0627140724169197
24.55198,6.82827144623221,0.0624895821153366
24.554376,6.83809875022493,0.0622485323116688
24.556764,6.847926054217649,0.0620087427465408
24.559144,6.858824293397007,0.06176194669877
24.56154,6.870793467763003,0.0615058108024757
24.563928,6.880108915076525,0.0612500740141757
24.566312,6.891426463136464,0.060985279417816
24.568716,6.89887957933043,0.0607326651522534
24.571104,6.905401529964617,0.060480230385216
24.573484,6.91513628615872,0.0602048289102687
24.57588,6.923939876793044,0.0599312951155663
24.578272,6.932883237054228,0.0596530120863857
24.580652,6.939824496568995,0.0593863073650992
24.583056,6.948767856830179,0.0591114850827394
24.585443999999995,6.955197259665749,0.0588308414467014
24.587824,6.960043870635483,0.0585431177346523
24.59022,6.964750711978356,0.0582619315500751
24.592608,6.969317783694369,0.057987257352294
24.594988,6.976398812835996,0.0577207672811056
24.597384,6.983619611604484,0.0574478467281536
24.599772,6.989257618507136,0.0571658197993449
24.602152,6.994616086156066,0.0568962480648813
24.604548,6.995318726006107,0.0566318759332474
24.606936,6.996952531415925,0.0563677911747007
24.609316,7.002078681639379,0.0560712849049171
24.611712,7.008787623728669,0.0557850179186526
24.6141,7.012423529884904,0.0555138006324322
24.61648,7.021646429399809,0.0552359662442589
24.61888,7.037806796713741,0.0549344900935964
24.621264,7.04968342328112,0.0546613663318876
24.623648,7.063422380968056,0.0543870424050484
24.626044,7.076090403468354,0.0541207309164835
24.628432,7.085825159662456,0.0538629761910544
24.630812,7.091835253617444,0.0536089799143693
24.633216,7.09342183719902,0.05338672409489
24.635604,7.0955202774597925,0.0531825866116507
24.637984,7.09934127921326,0.0529836104145866
24.64038,7.104884842459426,0.0527898519263892
24.642768,7.108566074586035,0.0525976031782952
24.645152,7.11396986820534,0.0524101023432382
24.647548,7.118162957011146,0.0522345040666522
24.649936,7.121285110630314,0.0520652144185001
24.652332,7.131716819100848,0.0518972101561208
24.654728,7.137864786824827,0.0517551508507496
24.657116,7.142382740854727,0.0516436510636067
24.659496,7.145969529324851,0.0515329321940295
24.661896,7.154491684847585,0.0514085725470609
24.664284,7.161291278877622,0.0512799821306788
24.666664,7.16166526178783,0.0511889887310657
24.66906,7.167905777310426,0.0510842875373095
