Time,Force,Position
22.913744,2.7756287039144767,0.164930962448128
22.916144,2.784753368057157,0.1646841822021101
22.918532,2.806542262984395,0.1639088509872076
22.920912,2.826561374590695,0.163313597878774
22.923316,2.846021407689553,0.16278923189243
22.925704,2.868834015975187,0.1620660587356114
22.928084,2.892717559447461,0.161287424697788
22.93048,2.9180913469869525,0.160408981895944
22.932868,2.934246026727278,0.1599724324152013
22.935252,2.957617713520354,0.1591891793651417
22.937648,2.9803377740073707,0.1583832623658947
22.940036,3.0004041074419137,0.1576863471874958
22.94242,3.021960684943674,0.15690015686947
22.944816,3.045659132818713,0.156009110759823
22.947204,3.0792283147989763,0.1547427012944709
22.949584,3.110004000099904,0.1535876242167183
22.951988,3.140919455027692,0.1524301106194756
22.954376,3.168622104395564,0.151411548735816
22.956756,3.1936710267109616,0.1504970808368202
22.959156,3.2245864816387484,0.1493567990205607
22.961544,3.2537793750738406,0.1482766103391908
23.018884,3.283478437614522,0.1479255041185048
23.021264,3.2877621783610764,0.147757904145629
23.023668,3.293116854294269,0.1475503649613537
23.026056,3.2967489687347658,0.14737465053634
23.028436,3.304664823921816,0.1470309051583432
23.030832,3.3165848806017,0.146554292060601
23.03322,3.3305070380280006,0.1460221806415333
23.0356,3.350435497693552,0.1452774176760756
23.037996,3.369293022172465,0.1445632440735199
23.040384,3.389640790718597,0.1437668828400289
23.042764,3.412270199264866,0.1428485562114891
23.045168,3.4341082118782174,0.1419495629010468
23.047552,3.4485894478119583,0.1413250650793537
23.049932,3.461999748559062,0.1407473303827386
23.052336,3.4715456174401917,0.1402918721544791
23.05472,3.476947515201627,0.1399944783142716
23.0571,3.478764520350809,0.1397852940867799
23.059496,3.485377122925745,0.1394278049043538
23.097732,3.490871568485798,0.1391500078214372
23.100116,3.5005553111359182,0.1389515929483603
23.102512,3.512380924159316,0.1386760153404036
23.133576,3.5952848180870065,0.1385373846161055
23.135956,3.605153656334361,0.1384709699636016
23.13836,3.616884825701273,0.1383618800330723
23.140748,3.630897635068321,0.1381662371921216
23.143132,3.6467727755549264,0.137928354933833
23.145528,3.6621360593623344,0.1376734994798956
23.147916,3.671493040930492,0.1375980073403497
23.150296,3.680710252871788,0.1375384025103391
23.152692,3.6963530759329166,0.1372719990578902
23.155076,3.715488243807681,0.1368779642431341
23.157456,3.735554577242224,0.1364592178847779
23.159856,3.7526876443705706,0.1361148456859669
23.16224,3.7767581792979463,0.1355787134100479
23.164624,3.8011082534790432,0.1350123655141711
23.167024,3.825737866913861,0.1344236206053031
23.169412,3.853300746654873,0.133773896640925
23.171796,3.875136863410354,0.1332609769252617
23.174192,3.897671828300138,0.1326731816832871
23.17658,3.920998189122839,0.1320799232171021
23.178964,3.947257816251736,0.1314119861941717
23.18136,3.96928092446232,0.1308106140670879
23.183748,3.985856808941097,0.1303200057154298
23.186128,3.996985469688063,0.1299392350028562
23.188532,4.007555051927588,0.129618275968271
23.19092,4.015331137487777,0.1293583585476718
23.193304,4.020173956741773,0.1291710805763594
23.1957,4.025156545622627,0.1289686360548708
23.205252,4.019943535174164,0.1289091679721736
23.207632,4.022644484054882,0.1287930241011647
23.210028,4.0239949584952415,0.1287359955216097
23.21242,4.027627072935737,0.1286048722592661
23.217204,4.025160337338367,0.1285620965218768
23.219592,4.0272096599130265,0.1284429977846928
23.221972,4.033775040659718,0.1282500314390772
23.224368,4.042482291779686,0.1280005846814987
23.226756,4.051469082153375,0.1277309372714411
23.229136,4.062969829952678,0.1274348289254749
23.231539999999995,4.078846866297153,0.1270771483157177
23.233928,4.101102291933215,0.1266150661928801
23.236308,4.118981429024107,0.1262103218627323
23.238704,4.138862666861415,0.1257597777698467
23.241092,4.164750206937974,0.1251770045389133
23.243472,4.193571013320728,0.1245347373148655
23.245868,4.219738092651007,0.123938753509351
23.24826,4.247115876794785,0.1232924759375028
23.25064,4.281291359110732,0.122497382245235
23.253036,4.312393805493623,0.1217890472498463
23.255424,4.335627618517707,0.1212560447907613
23.257808,4.356207704489317,0.120761486083879
23.260204,4.376228711953487,0.1203233838182577
23.262596,4.399182985723849,0.1198278900312448
23.264976,4.424790986546687,0.1192932977267642
23.26738,4.44690664255589,0.1188724931177568
23.269768,4.4640869315124805,0.1185581481999993
23.272148,4.478473723789736,0.1182946117021019
23.274548,4.490718645693715,0.1180873074569229
23.276936,4.5048258987172485,0.1178536980548453
23.27932,4.518281525434726,0.117614961034911
23.281716,4.526150158793533,0.1174652186608504
23.284104,4.539745555137871,0.117217496291682
23.286488,4.553061412228488,0.1169940552553693
23.288884,4.560882823759052,0.1169108765216923
23.291272,4.567493530476117,0.1168649832279319
23.293652,4.575826798685879,0.1168030746973906
23.296048,4.585091232455419,0.1167268602928172
23.298436,4.5949147447324,0.1166109156389991
23.300816,4.602596386636104,0.1165424577842413
23.303212,4.612140359659364,0.1164442571438621
23.3056,4.622755267869263,0.116320847269547
23.307984,4.631787384213326,0.1162043596707381
23.310388,4.638817399810971,0.116127445235207
23.312776,4.645335558729419,0.1160321082579666
23.315156,4.651341860968671,0.1159172161649005
23.317552,4.657627702461642,0.1157795993044463
23.319939999999995,4.663773774327753,0.1156531176603052
23.32232,4.669919846193864,0.115526636016164
23.32472,4.672341255820861,0.1154557357892263
23.327108,4.675042204701578,0.11536394924058
23.329488,4.680816189515351,0.1152100282409755
23.331884,4.681934346530233,0.1151237489379109
23.334272,4.683611582052556,0.1149950940820918
23.336656,4.687058600895818,0.1147883941115058
23.339052,4.690924928619661,0.1145507762367988
23.34144,4.691206363731251,0.1143550392224718
23.34382,4.693629669216117,0.1141130849298523
23.346216,4.6929799387679285,0.1139324623003672
23.348604,4.696753718693154,0.1136488610070708
23.350988,4.704811239364934,0.1132751406973353
23.353384,4.712868760036714,0.1129019918908181
23.355772,4.720134884775575,0.1125307489755269
23.358156,4.728611714327936,0.1121278039190996
23.360552,4.7360176086936585,0.111747486587529
23.36294,4.745285834178937,0.1113431825215702
23.36532,4.755485225223993,0.1109262188938338
23.36772,4.767826486642328,0.110467086688309
23.370108,4.778305416941104,0.1100300060975742
23.372488,4.788924116866741,0.1095805863608936
23.374888,4.797261176792241,0.1091879864454088
23.377272,4.807600337464159,0.1087666043376414
23.379652,4.821664160375189,0.1082983646036673
23.382052,4.83451727847272,0.107865363627353
23.384436,4.846019922129893,0.1074748796117394
23.38682,4.85552046504065,0.1071189762839308
23.389216,4.864881238324545,0.1067699956546082
23.391604,4.873450615675521,0.1064265424151615
23.393984,4.880669518586141,0.1061247452272211
23.396384,4.8870970255638415,0.105828001739851
23.398768,4.889380561421848,0.1056078851777422
23.401152,4.89473713321291,0.1053370463131243
23.403548,4.9016764968698086,0.1050648050744789
23.405936,4.908336321272986,0.1048141296404131
23.408316,4.920583139034834,0.10450316546319
23.410716,4.932969726423542,0.1041851041998882
23.4131,4.948429349745306,0.1038209360657112
23.415484,4.962026641947511,0.1034804110395881
23.41788,4.979767905269413,0.1030721853676215
23.420272,4.99937149971087,0.1026449151346569
23.422652,5.024050230831798,0.1021449042609074
23.425052,5.044305451579312,0.1017345662459507
23.42744,5.059625305274215,0.1013907476892313
23.42982,5.076667720461814,0.1010392981937941
23.43222,5.098645502702025,0.1006252185349859
23.434608,5.120343745688517,0.10022765250467
23.436988,5.144975254981204,0.0997911819148025
23.439388,5.167325124273752,0.0994038011438247
23.441776,5.186741727260107,0.0990480310400623
23.44416,5.206390647671937,0.0987343340446245
23.446556,5.227110503270407,0.0984010643246304
23.448944,5.242475682935684,0.0981641825932104
23.451324,5.25905156741446,0.0979020048634317
23.453724,5.27376512077368,0.0976586134823792
23.456112,5.282891680774228,0.0974739286843029
23.472832,5.272138898795338,0.0973920356146619
23.475228,5.27325705581022,0.0973195374860602
23.48,5.265530087936142,0.0972510272788207
23.484784,5.251424730770477,0.0972331802423643
23.487168,5.245373102560852,0.0972111029482306
23.489564,5.248540582150393,0.0970591617200723
23.491952,5.249194104314321,0.0969148142717203
23.494336,5.253851827971082,0.0967211455526847
23.496736,5.26093096125484,0.0964745141650236
23.499124,5.264797288978683,0.0962799101828022
23.501504,5.270665717448942,0.096060137230153
23.5039,5.277605081105841,0.0958232942291039
23.506288,5.282402574389461,0.095619715162335
23.508672,5.290133333979277,0.0953806911439128
23.511068,5.302287603942507,0.095062151723788
23.51346,5.313790247599681,0.094738881188844
23.51584,5.329157323122827,0.0943767110166713
23.51824,5.347317895325308,0.0939892908646421
23.520628,5.369203129766902,0.0935753795042682
23.523012,5.383731587528887,0.0932733103779329
23.525408,5.397049340477373,0.0929963497533257
23.527796,5.416233626038249,0.0926560451629285
23.530196,5.4384909475321805,0.0922797006194364
23.532604,5.463681535332309,0.0918733402083754
23.534991999999995,5.488732353505576,0.0914781567430279
23.537372,5.510570366118927,0.0911395445101963
23.539776,5.53599327134453,0.0907826809516218
23.54216,5.557132435823581,0.0904920937147416
23.54454,5.581856492914884,0.0901861983088781
23.546948,5.609653585939243,0.0898438310118521
23.549332,5.637450678963601,0.0895042325532258
23.551712,5.660824261614546,0.0892297718324431
23.554112,5.69048368575846,0.0888756344493138
23.556496,5.722936606581711,0.0885038799265599
23.558876,5.757112088897658,0.0881336545864562
23.56128,5.7899370967732455,0.0877988923667034
23.563668,5.8186181335291405,0.0875164887915829
23.566048,5.846228235098397,0.0872488706303649
23.568444,5.867692264801541,0.0870530554720616
23.570832,5.893160495997519,0.0868156984263328
23.573212,5.921422223872832,0.0865598567064541
23.575612,5.948613016561507,0.0863230247393351
23.578,5.974593104436682,0.0861128359978441
23.58038,5.998710861192301,0.0859166310843833
23.582776,6.021897452388141,0.0857269625309492
23.585164,6.040428215785091,0.0855673200892358
23.587544,6.052580589890452,0.0854415180515744
23.589948,6.064081337689755,0.0853058160275879
23.592336,6.070786488063307,0.085208545506283
23.594716,6.072835810637967,0.0851407475801186
23.59712,6.077166773212765,0.0850391490816253
23.599504,6.090996382840448,0.0848252485312561
23.601884,6.100682021348439,0.0846593863520588
23.604284,6.106131140938118,0.0844993033663873
23.606672,6.107855598288684,0.0843619690938324
23.609055999999995,6.108276803027134,0.0842056110914086
23.611452,6.1113989566463,0.0839938269310066
23.61384,6.118292994332825,0.0837157970619128
23.616223999999995,6.129890081646485,0.0833654261859377
23.61862,6.141906477840724,0.0829965481735372
23.621008,6.151828225489929,0.0826078036928895
23.623392,6.161238116459938,0.0822051103952409
23.625788,6.168273819631192,0.0817968036663478
23.628176,6.176520227615944,0.0813706318489498
23.630556,6.184254778921497,0.0809273931801928
23.632956,6.198926798026081,0.0804314490999864
23.635344,6.218673953810137,0.0798892787559161
23.637724,6.236838317728358,0.0793395457528966
23.64012,6.252628493847823,0.0787782460651012
23.642508,6.270420770713704,0.0781971685362169
23.644892,6.279413248661001,0.0776793211472956
23.647288,6.282539193995907,0.0772084638414499
23.649676,6.286875844144313,0.0767199139147039
23.65206,6.296008091718469,0.0762040927754837
23.654456,6.306071504852404,0.0756839637664013
23.656844,6.31450490429226,0.0752026079298296
23.659228,6.320377124478258,0.0747670517847008
23.661632,6.321825834290842,0.0743866849853764
23.66402,6.317268241864176,0.0740521046788811
23.666396,6.30563341201162,0.0737736826270741
23.668804,6.293439503651623,0.0735229905847682
23.671192,6.275890919358433,0.0733275735476716
23.673572,6.258714422117582,0.07315627650643
23.675968,6.239675593757173,0.0729918893285695
23.678352,6.222499096516321,0.0728186489974381
23.680732,6.200107692969137,0.0726928092113051
23.683128,6.1783679157280105,0.0725762803287048
23.685516,6.160073261472277,0.0724583236002755
23.687896,6.148296766134992,0.0723139291632473
23.6903,6.143457738596735,0.0721241463456813
23.692688,6.147138970723344,0.0718951682080592
23.695068,6.150540663596232,0.071679947612545
23.697472,6.152591882028761,0.0714898436404214
23.69986,6.149288424528099,0.0713521492687221
23.70224,6.146636593333493,0.0712252813299983
23.70464,6.147988963631721,0.0710710655252132
23.707028,6.151343434676367,0.0709032454998749
23.709408,6.1554893016539305,0.0707389044244276
23.711804,6.1660135579230815,0.0705583780262617
23.714192,6.18319574273754,0.0703466402692795
23.716572,6.202100489044696,0.0701355171588443
23.718976,6.225940602404464,0.0698921520318327
23.72136,6.2489893198313125,0.0696449059437332
23.72374,6.27254989393736,0.0694160339177252
23.726148,6.295970698416547,0.069196732704634
23.728532,6.319391502895735,0.0689765285460364
23.730912,6.340670437001646,0.0687784219455105
23.733316,6.362880536667333,0.068578898035996
23.735704,6.383879931519524,0.0683995118509643
23.738084,6.392587182639493,0.0683128215022318
23.74048,6.399292333013044,0.0682399873624879
23.742864,6.406928648946373,0.068164214961922
23.745244,6.414984273760284,0.0680681583983546
23.747648,6.426252704134111,0.0679425886521695
23.750032,6.436869508201879,0.0678067637527312
23.752412,6.444692815590312,0.0676801317273551
23.754816,6.451724727045827,0.0675500820938643
23.757204,6.460107112941703,0.0673973672407477
23.759584,6.463693901411825,0.0672657452441469
23.761988,6.467699998762529,0.0671150953038493
23.764372,6.47291680092673,0.0669492529838738
23.766752,6.478413142344653,0.0667709663061141
23.769155999999995,6.48684275006877,0.0665788930179393
23.771544,6.496343292979526,0.0663780713984064
23.773924,6.505843835890281,0.0661784451688421
23.776328,6.515623918054757,0.0659652337865281
23.778716,6.5238212083533975,0.0657433567654892
23.781096,6.5304357067862,0.0655143700409998
23.7835,6.53346531260675,0.0652887497559611
23.785884,6.547995666226605,0.0649775143240191
23.788268,6.560803458353762,0.0646650602638791
23.790672,6.574682185667558,0.0643447860445432
23.793056,6.589352308914274,0.0640303074944931
23.79544,6.605093367347625,0.063709648727571
23.797844,6.620834425780978,0.0633898759542143
23.800228,6.633921757161858,0.0630682401185463
23.802608,6.649011189289152,0.0627378633559882
23.805008,6.664240391043308,0.0624035646425765
23.807392,6.682822167984237,0.0620377843359484
23.809776,6.7003330097385305,0.0616838198475689
23.81218,6.7151901244403485,0.0613308274288701
23.814568,6.731118174328805,0.0609727856292281
23.816948,6.745323662724564,0.0606140879668432
23.819344,6.763161265560821,0.060217264413046
23.821732,6.781138638023937,0.0598166072480112
23.824112,6.802189046420108,0.0594009948746882
23.826508,6.825893181868755,0.0589872181436602
23.828892,6.851599418063818,0.0585676584383237
23.831275999999995,6.881030316497995,0.0581436344651489
23.833672,6.903244207879422,0.0577639493754057
23.836056,6.927320430380406,0.0573827234350588
23.83844,6.950325717694751,0.0570102836212393
23.840844,6.969466573143122,0.0566487298867443
23.843228,6.987676263031716,0.0562913588140527
23.845612,7.004815017733671,0.0559413909036257
23.848008,7.027540765794296,0.0555844008416957
23.850396,7.043049506802172,0.0552645675735024
23.852776,7.054134737436633,0.0549793263976821
23.855172,7.064940428817374,0.0547079138890108
23.85756,7.075326811317533,0.0544557853288461
23.85994,7.085154115310253,0.0542273855832345
23.862344,7.0916288441161965,0.0540268413080329
23.864732,7.095821932922003,0.0538460254857725
23.867112,7.094241036914035,0.0537187654891599
23.869516,7.088376400159514,0.0536187168585034
23.871904,7.079159188218217,0.0535451383565313
23.874284,7.070081745903781,0.0534655830853406
23.87668,7.058443124335487,0.0534172919241474
23.879068,7.044662632393916,0.0533822961479796
23.881448,7.0344670330645975,0.0533500591257286
23.883844,7.023200498548641,0.0533242514875012
23.886228,7.01379629515224,0.0532968784436557
23.888612,7.008768380301012,0.0532776552876029
23.891008,7.003321156569202,0.0532759454893617
23.893396,7.002529760636283,0.0532707827058478
23.89578,7.002669530263142,0.053264996348879
23.898176,7.013890738808724,0.0532177997093478
23.900564,7.030047314406921,0.0531558656007668
23.902944,7.043782480378118,0.0531183097670234
23.905339999999995,7.053513444856483,0.0530945488551257
23.907728,7.06859908526804,0.0530392367885339
23.910112,7.084615891239374,0.0529832277839185
23.912507999999995,7.103565963516904,0.0529196621782748
23.914896,7.122516035794434,0.0528555665520867
23.917276,7.146261705497716,0.0527821996135602
23.919672,7.172009475947415,0.052701958405021
23.92206,7.196826080837336,0.0526233408619841
23.92444,7.2200598938614196,0.0525340430429514
23.926836,7.242362541325725,0.0524452125285718
23.929224,7.264153332110832,0.0523405670734422
23.931608,7.285804353269081,0.0522419113763825
23.934004,7.301728611441799,0.052152338248539
23.936392,7.31620984737554,0.0520469130281293
23.938776,7.327106190697029,0.051937712560526
23.941172,7.33162414472693,0.0518268415540854
23.943556,7.3332088324506355,0.0517238064923719
23.94594,7.326924886815534,0.0516421694061261
23.948336,7.314914178194901,0.0515686561754728
23.95072,7.30467325289521,0.051460107581075
23.9531,7.299926773155572,0.0513148741456593
23.955504,7.288242825616902,0.0511895148882949
23.957892,7.274044920652619,0.051053165536928
23.960272,7.260266324568918,0.05089961394888
23.962672,7.245044706246237,0.0507286435245633
23.96506,7.226517734565027,0.0505413854988748
23.967444,7.204266100644702,0.0503545193895232
23.96984,7.178941430791324,0.0501789464202571
23.972228,7.151614660191527,0.0500081806304155
