Time,Force,Position
23.093343999999995,2.493201705886529,0.1676234820005864
23.095732,2.550966025558074,0.1674968863739807
23.098116,2.606917131796175,0.1669767831753204
23.100511999999995,2.65421010460042,0.1666248457355391
23.1029,2.6914472477022064,0.166606420646894
23.105284,2.725054172221366,0.1665252509139014
23.107679999999995,2.7574995096131394,0.1660907947176197
23.110068,2.782544640212799,0.1655578556284219
23.112448,2.792133939206433,0.165427677155326
23.114847999999995,2.808707927827339,0.1648966772331737
23.117236,2.8327312409264724,0.1640957260028834
23.119616,2.865926439996528,0.1629417129610466
23.122015999999995,2.9023344446265,0.161618238052154
23.124404,2.9408843196297485,0.1601541634299757
23.126788,2.976361158699941,0.1588626855286838
23.129183999999995,3.006483321836942,0.1579072356728732
23.131572,3.0339970838918418,0.1572092304927198
23.133956,3.067377378559132,0.1562357458547679
23.136351999999995,3.1005253558009453,0.1551751494237351
23.186547999999995,3.246264914363915,0.1546930749933171
23.188936,3.2502691158567485,0.1545400621333
23.191316,3.257346353282637,0.1542651647029272
23.193712,3.2683805703731164,0.1539209493907543
23.1961,3.277272917090319,0.1536604950561828
23.19848,3.2883071341807986,0.1533009430128356
23.210435999999994,3.305298535824416,0.1530543655404683
23.212816,3.3054383054512755,0.1530373159822779
23.215212,3.30427482246602,0.1530124542332749
23.2176,3.305532749107762,0.1528581563320413
23.219984,3.314799078735171,0.1523943310953824
23.22238,3.3184784150039115,0.1521176038740205
23.224771999999994,3.31820077160806,0.1519048891010191
23.227152,3.3162005667195125,0.1517349390472129
23.229548,3.321649686309192,0.1513471120565272
23.231936,3.330823468137984,0.1508565303047625
23.234316,3.346934717765805,0.1501357816870256
23.236716,3.360112701087431,0.1495162195671203
23.2391,3.370077878849141,0.1490243432187949
23.241484,3.3792516606779337,0.1485430637452392
23.24388,3.395921988813196,0.1477676087836088
23.246268,3.41222022989612,0.1469630397151
23.248652,3.42586474392657,0.1462185942322753
23.251044,3.438578092397241,0.1454955268097359
23.253436,3.4554354119876063,0.1446187937943058
23.255816,3.475365767511028,0.1436378061842982
23.258216,3.493154252661171,0.1427379299657334
23.260604,3.509592263370956,0.1419022302108779
23.262988,3.526402361133078,0.1411001862669835
23.308408,3.4621690002291965,0.1405747178349171
23.3108,3.4649624969085315,0.1405060706772063
23.31318,3.4660334320951707,0.1404690487654067
23.315576,3.4717601950807007,0.1403195143640528
23.317964,3.480000915491845,0.1401286277940196
23.320348,3.492478154821301,0.1398642117740437
23.322744,3.505886559710535,0.1395755765127145
23.325132,3.5190154253460486,0.1393165988850253
23.327512,3.53852268027315,0.138908081573595
23.329912,3.560636440424484,0.138513004708487
23.332296,3.58647486281493,0.1380224825691866
23.33468,3.6192507530044047,0.1373464873814632
23.337076,3.6458805713277695,0.1368750982616919
23.339468,3.672091080770554,0.1364465012643121
23.341848,3.701234856519533,0.1359359714531405
23.344244,3.730099093014791,0.1354640803652004
23.346632,3.755378436897797,0.1350767133660028
23.349011999999995,3.7805180111539434,0.1347095306115951
23.351408,3.803515715036811,0.1344039294134768
23.353796,3.8267929581734,0.1340674924594874
23.356179999999995,3.849278805377071,0.1337487548117875
23.358576,3.865246493662293,0.133589357022998
23.360964,3.880283016387736,0.1334523764836327
23.363344,3.8950399998594607,0.1333474640014504
23.365744,3.911659314450741,0.1332022883616052
23.368132,3.928697937922602,0.1330194346620818
23.370515999999995,3.9460161006481833,0.1328109191142214
23.372912,3.9673384648665984,0.1325015983512163
23.375304,3.985727562778818,0.1322690418645672
23.377683999999995,4.005886444011977,0.1319359869526185
23.38008,4.024742072633021,0.1315962931635775
23.382468,4.030793700842645,0.1315729735742437
23.384851999999995,4.042060235358602,0.1314023729758826
23.387248,4.051743978008723,0.1312416504852146
23.389636,4.061287951031984,0.1310968284643808
23.392019999999995,4.069249132189408,0.1309649867055744
23.394416,4.077210313346832,0.1308331449467681
23.3968,4.085031724877396,0.1307151762977773
23.399184,4.099790604206989,0.1304275509953818
23.40158,4.117482749842777,0.1300760705756644
23.403968,4.135314665105425,0.1297189454480426
23.406348,4.152075645181435,0.1293875278193119
23.408748,4.168045229324527,0.1290610520523897
23.411136,4.182152482348061,0.1287730871316101
23.413516,4.194816713132621,0.1284868711990787
23.415912,4.205898152051343,0.1282149332916692
23.418299999999995,4.216327964664009,0.12793786530896
23.42068,4.221962179850921,0.1277642420579714
23.42308,4.226804999104917,0.1275950456374152
23.425467999999995,4.229645717612494,0.1274735421203474
23.427848,4.230996192052853,0.1274191372663184
23.430248,4.242636709479017,0.1271015084726799
23.432635999999995,4.248550463919651,0.1269028566541169
23.435016,4.259120046159175,0.1266175544881037
23.437411999999995,4.268106836532866,0.1263445219050006
23.439803999999995,4.278304331720053,0.1260315644219577
23.442187999999994,4.2886415965341005,0.1257068082586392
23.444584,4.296045595041954,0.1254439129458767
23.446971999999995,4.298793765750914,0.1252692772079751
23.451752,4.290462393399022,0.1251631310812612
23.454139999999995,4.286552635562673,0.1251195613656895
23.456523999999995,4.285156835151942,0.1250492767396006
23.45892,4.2860426747413465,0.1249094615677303
23.461307999999995,4.285438270263531,0.1248344779990895
23.468475999999995,4.281248973173463,0.1248149065814471
23.470859999999995,4.284461778733379,0.1247286431317332
23.473256,4.289676685039711,0.12459707874291
23.478027999999995,4.291214150935174,0.1244638182479337
23.480428,4.294938813174286,0.1243975887356287
23.482816,4.296009748360925,0.1243694009441892
23.485195999999995,4.298151618734202,0.1243134543041648
23.487596,4.298943014667121,0.1243091857945976
23.489984,4.301456972092734,0.1242849591299787
23.492368,4.306392339145346,0.1241812857024087
23.494764,4.311187936571098,0.1240888013246157
23.497152,4.317938412915025,0.1240192989479793
23.499531999999995,4.333768227431255,0.1237452648131918
23.501928,4.3482947893353705,0.1234594525398442
23.504316,4.363240660120067,0.1231437020225003
23.506699999999995,4.376975826091265,0.1228709638315287
23.5091,4.3952742720627365,0.1224714463236899
23.511488,4.414783422847708,0.1220352881643683
23.513867999999995,4.433640947326621,0.1215886168543103
23.516268,4.456642442925228,0.1210521366629345
23.518656,4.472054844418748,0.1206485705320327
23.521035999999995,4.489329577031825,0.1202218637597552
23.523432,4.510701058936352,0.1197693255392478
23.52582,4.536635820841154,0.1191904046881127
23.528203999999995,4.559265229387424,0.1186447635188423
23.530604,4.582825803493472,0.1180880335127053
23.532992,4.605315442412881,0.1175606180204196
23.535371999999995,4.62822439021287,0.1170007850460538
23.537772,4.649550546147023,0.1164520924698473
23.54016,4.675951838760649,0.1158164144078487
23.542539999999995,4.703424066560913,0.1151550390222746
23.54494,4.727730710629505,0.1145033130158556
23.547328,4.749104088391902,0.1139156235402984
23.549712,4.772200027646996,0.1133192567318332
23.552112,4.790220830222617,0.11281865174852
23.5545,4.806658840932401,0.1123238591262028
23.556884,4.816811010149214,0.1119603480432685
23.55928,4.82603201380625,0.111611192849098
23.561668,4.837394887836561,0.1112163295625577
23.564052,4.844753560374041,0.1108957591710669
23.566448,4.859049700710549,0.1104566976410954
23.568836,4.870831883621442,0.1100390277066615
23.57122,4.881450583547079,0.1095996438715737
23.573616,4.8900671827263,0.1091978321580594
23.576004,4.895470976345605,0.1088595313003128
23.578388,4.901945705151548,0.1085024266203584
23.580784,4.906418333211075,0.1081774448695048
23.583175999999995,4.909680256457105,0.1078841381093294
23.585556,4.912802410076272,0.1076014385724734
23.587956,4.9065656862694125,0.1074940825921514
23.590343999999995,4.902470832835831,0.1073437245778159
23.592728,4.901309245708444,0.107149104732928
23.595127999999995,4.8961434570882245,0.1070193847445037
23.597511999999995,4.889766963654506,0.1069210807869605
23.599896,4.888605376527119,0.1067266512127041
23.602292,4.889166350892429,0.1065201041858451
23.604679999999995,4.8955938578701295,0.1062268967295732
23.607064,4.903232069661329,0.1059043414539515
23.609464,4.908868180706111,0.1056143111670879
23.611852,4.91636662287045,0.1053029092914273
23.614236,4.9186501587284575,0.1050862555428923
23.616632,4.918512284959466,0.1049302203778606
23.61902,4.915813231936617,0.1048453307780661
23.621404,4.912834639660048,0.1047801659853629
23.623804,4.914931184062951,0.1046315351474645
23.626192,4.915025627719437,0.1045148220410631
23.628584,4.918984503241896,0.1043460450867391
23.630984,4.928809911376748,0.1040973593880764
23.633371999999994,4.936353679511461,0.1038974235271594
23.63576,4.949112353952506,0.1036033931916235
23.63816,4.959309849139693,0.1033814545599361
23.640547999999995,4.968296639513381,0.1031906561598999
23.642936,4.982870423245741,0.1029373196920128
23.645332,4.9963732717914615,0.1027045917248701
23.647724,5.007314941083325,0.1025428453949635
23.650112,5.0161147400019095,0.1024211311173179
23.6549,5.023284525226416,0.1023592549378664
23.659688,5.031198484555596,0.1023547488060965
23.662076,5.037297334593465,0.1023128414098223
23.664463999999995,5.047400386124166,0.1022111068234208
23.666864,5.058574372841505,0.1020888780401012
23.669252,5.071610690678402,0.1019473061510081
23.671651999999995,5.082505138142021,0.1018465451917429
23.674052,5.094330751165419,0.1017367241736666
23.67884,5.108762869413049,0.1016652545714507
23.681248,5.117934755383971,0.1015785874455891
23.683636,5.130831303594007,0.1014572705640653
23.686043999999995,5.150153462923875,0.1012295215244215
23.68846,5.170546557440381,0.1009846903892915
23.69086,5.190148256023969,0.1007440099508302
23.693268,5.211100429047916,0.1004685692385513
23.69566,5.233682615765943,0.1001405851773783
23.69806,5.260548543230524,0.0997446085225434
23.700456,5.287414470695103,0.0993486318677085
23.702839999999995,5.320426470025794,0.0988627361196527
23.705236,5.347711706370955,0.0984416607020546
23.707632,5.382725806448064,0.0979356112187513
23.71002,5.4185313024580894,0.0974390592355318
23.712416,5.453126093654617,0.0969726529360004
23.714816,5.486789719291365,0.0965133604319809
23.7172,5.5187307834354185,0.0960652969984365
23.71958,5.55081161720633,0.0956091273421511
23.721976,5.581030119857686,0.095170809550585
23.724363999999994,5.611667931389623,0.094709434107364
23.726748,5.644168074041117,0.0942289925455296
23.729144,5.674386576692471,0.0937977572648453
23.731531999999994,5.699669712291215,0.0934301609954713
23.733912,5.716013279344514,0.0931709494197381
23.736308,5.729423580091617,0.0929430722358099
23.738696,5.742182254532663,0.092708709416328
23.741091999999995,5.754940928973709,0.0924764421176176
23.743488,5.768490999347673,0.0922479698867957
23.745876,5.776965933042164,0.0920818326960327
23.748259999999995,5.786931110803875,0.0918766900584727
23.750664,5.79531349669975,0.0916718847571512
23.753048,5.807979623342177,0.0914073932124376
23.755432,5.817340396626072,0.0911505076340081
23.757828,5.824978608417271,0.0909015484709832
23.760216,5.83331566834277,0.0906144870475268
23.762595999999995,5.847938569761242,0.0902528699524586
23.764996,5.861490535993074,0.0899050732229033
23.76738,5.879046703717742,0.0895203372878012
23.769763999999995,5.895252397002048,0.0891627629364814
23.77216,5.906522723233745,0.0888512257632881
23.774548,5.917141423159381,0.0885301698730312
23.776928,5.929390136779099,0.0881667705470613
23.779323999999995,5.939776519279259,0.0878145435854747
23.781712,5.952304772152696,0.0874316591714124
23.784092,5.970839327265384,0.0869898581507079
23.786492,5.987092242377934,0.0865850809859125
23.78888,6.001482826370928,0.0861938868033832
23.79126,6.012940144057726,0.0858303994879445
23.79366,6.0282618936105,0.0854349914284895
23.796048,6.042093399096053,0.0850785888158314
23.798432,6.054574430141246,0.0847528271560901
23.800828,6.065565217119222,0.0844664461854825
23.803216,6.070921788910284,0.0842619750202569
23.805596,6.07320532476829,0.0840903755105254
23.808004,6.074278155812799,0.0839405999827114
23.810388,6.067063044617918,0.0838826809201885
23.812771999999995,6.062129573423176,0.0837903842023792
23.815168,6.054542375175958,0.0837071005299833
23.817556,6.052449622488795,0.0835515609475796
23.819939999999995,6.059156668720214,0.0833255423294043
23.822336,6.065584175697914,0.0831140188414395
23.824724,6.069450503421757,0.0829518062708126
23.827104,6.080254298944629,0.0827320593828151
23.8295,6.093572051893115,0.0825124442003633
23.831883999999995,6.099812567415712,0.0823590447925696
23.834267999999994,6.106984248498087,0.0822002379532479
23.836672,6.113876390326742,0.0820559144773587
23.83906,6.120628762528537,0.0819185943273851
23.84144,6.125518803610774,0.0817922105966427
23.843844,6.128406743946596,0.0816829763153587
23.846232,6.133576324282554,0.0815419639196426
23.848612,6.1390254438722325,0.0813869070737964
23.851012,6.151831340141521,0.0811520327359393
23.8534,6.166499567530367,0.0809060924715172
23.85578,6.177675450105576,0.080711076965611
23.85818,6.1920641382407,0.0804771185727055
23.860568,6.208315157495381,0.0802363645665677
23.862948,6.220934062309567,0.08005520664615
23.865348,6.230340161563835,0.0799129461792706
23.867736,6.234950663392353,0.0798039429196852
23.870116,6.238769769287954,0.0796918946409089
23.872512,6.240586774437136,0.0795963924672746
23.8749,6.233603980667734,0.0795661797358843
23.877284,6.222896524659217,0.0795550932150444
23.87968,6.21926630607659,0.079481271539776
23.882068,6.215915626747684,0.0793927997885991
23.884448,6.217360544844529,0.0792740479520331
23.886848,6.220807563687791,0.0791387737931268
23.889236,6.225465287344552,0.0789849481402837
23.891616,6.234546521374728,0.0787770165232887
23.894012,6.244558920964682,0.0785674106783591
23.8964,6.2517778238753,0.0783712525765092
23.898779999999995,6.254201129360167,0.0782047793990214
23.90118,6.259185614098891,0.0779952782651173
23.903568,6.271946184397805,0.0776934807092921
23.905947999999995,6.284846524323581,0.0773856743836423
23.908344,6.292531957943023,0.0771274945581996
23.910732,6.303849506002962,0.0768146719573656
23.913115999999995,6.31651752850326,0.0764782789246778
23.915512,6.32718345025714,0.0761564608718002
23.917896,6.344786839810049,0.0757886460108036
23.92028,6.362809538243539,0.0753974608271669
23.922676,6.387118078169999,0.0749473757319094
23.925064,6.411985696603902,0.0744672459750604
23.927448,6.430195386492496,0.0740242699652117
23.929844,6.449615781194589,0.0735660140723216
23.932232,6.460935225112396,0.0731282446845535
23.934616,6.46866977641795,0.0726977285441601
23.937012,6.474402226977087,0.0722824867774624
23.9394,6.478923972722727,0.0718875458850303
23.941784,6.478650121042614,0.0715183910956124
23.944184,6.4800988308552,0.0711483094814445
23.946572,6.484341037347119,0.0707676393164723
23.948952,6.484159733465623,0.070435831648338
23.951352,6.479554919210713,0.070153840707835
23.95374,6.47560173126186,0.0698826762871191
23.95612,6.476211823313283,0.0695579021481772
23.95852,6.474400505737706,0.0692669537871172
23.960908,6.469096843348495,0.0690191386571668
23.963288,6.466726447265479,0.0687548313258741
23.965692,6.4615625545031286,0.0685022630543553
23.96808,6.46133402879339,0.0682221533656203
23.97046,6.455471287896738,0.0680029872625758
23.972856,6.452774130731759,0.0677990665078086
23.975244,6.4548725709925305,0.0675742646146883
23.977628,6.454829140880026,0.0673686605419194
23.980024,6.462886661551806,0.0671517907265786
23.982412,6.47359790927606,0.0669328052493968
23.984792,6.483377991440536,0.0667160716363531
23.987196,6.491295742485457,0.0665052364758792
23.989584,6.499073723903518,0.0663001493645125
23.991964,6.506991474948435,0.0660887368308558
23.994364,6.515840391553135,0.0658762693465365
23.996752,6.524829077784692,0.0656558818896479
23.999132,6.533957533643111,0.0654292281516107
24.001528,6.542294593568611,0.065199207957061
24.003916,6.5429953375607806,0.0650394700592382
24.0063,6.542764915993173,0.0648815594744002
24.008696,6.543745199239064,0.064706910789577
24.011084,6.545656648044734,0.0645307342567637
24.013464,6.54221342091721,0.0644003370465101
24.015864,6.536628323416409,0.0642886423452748
24.018252,6.534395801102384,0.0641426159311698
24.020632,6.531511652482302,0.063986268928426
24.023036,6.525274928675445,0.0638636436676286
24.02542,6.5196898311746425,0.0637517505454297
24.027804,6.511590776248228,0.0636339925969274
24.030204,6.5067045268817285,0.0634902662894338
24.032588,6.503261299754205,0.0633614416973322
24.034972,6.501540634119378,0.063234843098131
24.037368,6.503544630723663,0.0630997496025386
24.039756,6.506340023260867,0.0629694205663136
24.04214,6.506062379865015,0.062858604306182
24.044536,6.511511499454694,0.0627295082363196
24.046928,6.515889683857735,0.0626089395068511
24.049308,6.519988329007055,0.0625014477817406
24.051704,6.529301880462707,0.0623567190951696
24.054096,6.541688467851416,0.0621928589090686
24.056476,6.560221127106234,0.0619933791782865
24.058872,6.5739581889353005,0.0618103717904472
24.06126,6.59277038744384,0.0615981410371567
24.063644,6.609161176325381,0.0614157177105839
24.06604,6.626483130766702,0.0612325106325327
24.068428,6.645807185954437,0.0610414998921459
24.070812,6.667552650769172,0.0608216876479201
24.073208,6.688646489277848,0.0605909781203464
24.075599999999994,6.709740327786525,0.0603625240650833
24.07798,6.725619259988869,0.0601692754084121
24.080376,6.742988436258431,0.0599496828706338
24.082767999999994,6.759426446968216,0.0597324889748788
24.085148,6.775352600998802,0.0595000074066937
24.087544,6.792489459842887,0.0592553385760115
24.089932,6.8129788938737486,0.0589824571526286
24.092316,6.830814600852135,0.0587109596091855
24.094712,6.8495814733903,0.0584380740873848
24.097103999999995,6.871700921115241,0.05813859509002
24.099484,6.89610200884032,0.0578202767379282
24.101884,6.924647067685092,0.0574835318722713
24.104271999999995,6.945043953917336,0.0571890953909534
24.106652,6.971167603135112,0.0568822957666504
24.109047999999994,6.99542892123333,0.0565798084218382
24.111436,7.024253519331823,0.0562384144041291
24.113816,7.052146951870537,0.0558998474365992
24.116215999999994,7.076315722170138,0.0555681795621596
24.118604,7.098482391723321,0.0552457296791145
24.120988,7.1234425579558405,0.0549218616575098
24.123383999999994,7.143187817882028,0.0546255183212493
24.125772,7.166006113741269,0.0543145972679236
24.128156,7.1877534744138725,0.0540121494252157
24.130551999999994,7.210571770273114,0.0537041017430523
24.13294,7.22975795169186,0.0534339498081183
24.135324,7.244939931617772,0.0531796113749078
24.137719999999995,7.254907005237351,0.0529529498915473
24.140108,7.260869877364097,0.0527408807121194
24.142492,7.264970418371286,0.0525298734192895
24.144887999999995,7.262785117885506,0.0523526515486995
24.147276,7.258318177399587,0.0521948189986174
24.149656,7.245703064301139,0.0520713288476358
24.152055999999995,7.237092152695527,0.0519333357405367
24.154444,7.223685643664162,0.0518040533676749
24.156828,7.20841680351324,0.05167519858693
24.159223999999995,7.187421200376788,0.051554371186636
24.161612,7.169498633173392,0.0514202452562045
24.163992,7.152227692276055,0.0512966177819068
24.166391999999995,7.138821183244691,0.0511655036459677
24.16878,7.121410472720491,0.0510471189423759
24.171164,7.107072798129348,0.0509153779418282
24.173559999999995,7.089801857232009,0.0507899866111631
24.175948,7.070249276334535,0.0506822033932145
24.178332,7.0499052995041405,0.0505683822022856
24.180727999999995,7.031051566740966,0.0504306611902429
