Time,Force,Position
23.170248,2.5213497589220104,0.1588232876583475
23.172644,2.584374310870262,0.1586296763504692
23.175032,2.6414870042357483,0.1585923011516964
23.177412,2.6939457656602137,0.1584186813533937
23.179808,2.73853778958374,0.158319689917845
23.23716,2.8352145920215257,0.1580950421644723
23.239544,2.8455027391494605,0.1579142222513209
23.241924,2.8606790315017645,0.1576300215795463
23.244328,2.876459728331884,0.1574552759115346
23.246716,2.89833927519987,0.1571079398006807
23.249096,2.9276209247178397,0.1566103549604972
23.2515,2.9600681579674823,0.1560431515818894
23.253888,2.9934465567769037,0.1554349469744164
23.256268,3.02431099816071,0.1549084789042814
23.258672,3.0657450217840414,0.1539101290458368
23.26106,3.100288799436587,0.1530859586415602
23.26344,3.1328776981709594,0.1522552879236042
23.265836,3.164163344293215,0.1514162760863777
23.26822,3.1925157241092763,0.150693309093801
23.2706,3.223661600604672,0.149876981410665
23.273004,3.25210652821935,0.1492363734145201
23.275392,3.2799923773265878,0.1486754000535934
23.277772,3.309972874978859,0.1480997738438116
23.280176,3.338091041511573,0.1475755347025999
23.28256,3.362484545805174,0.1471948860217087
23.284944,3.39116179084533,0.1466484471144377
23.287348,3.412249941780398,0.1463708983127623
23.289732,3.4323143793570714,0.1460604091781174
23.292112,3.448561606896014,0.145787956184576
23.294516,3.462993725143644,0.1454930318326778
23.296904,3.4708151366742075,0.1453198197518365
23.299284,3.479614935592793,0.1450391442927102
23.30168,3.4924661578324554,0.1445524841673359
23.304068,3.504525984139199,0.1440784408630338
23.306448,3.5085774074602765,0.1438705846572292
23.308852,3.51993838563272,0.1434836533227329
23.31124,3.5381896097759484,0.1429795942373381
23.31362,3.559466648023989,0.1424596654541216
23.316024,3.5835371829513654,0.1418700918018167
23.318412,3.609609818625159,0.1412371176804401
23.320788,3.635310367246614,0.1405607070862599
23.323192,3.659567893629093,0.139885619207287
23.32558,3.6829414762800377,0.1391536189364959
23.32796,3.70915577743856,0.1382742872931097
23.490436,3.752125371099485,0.1374713561847741
23.492816,3.752032823300868,0.1374103280652606
23.49522,3.757574490689165,0.1371499584449799
23.497608,3.7592517262114873,0.1369874591503517
23.499988,3.763442919159424,0.1367923721291587
23.502384,3.7692169039731978,0.1365806866414788
23.504772,3.7762015936004696,0.1363248041603184
23.507156,3.783278831026359,0.1361311291738061
23.509552,3.795523752930337,0.1358545077937576
23.511936,3.814706142633344,0.1353978993348501
23.51432,3.838684129762104,0.1348351170110582
23.516716,3.8716016854363073,0.13404121983894
23.519104,3.904798780364233,0.1332347467193762
23.521488,3.9417677593595135,0.1322813103307343
23.523884,3.974872306488823,0.1314285162541436
23.526272,4.00946709768535,0.130507428041165
23.528656,4.047182146643175,0.1294187760242632
23.531052,4.082243468548527,0.1283816172159588
23.53344,4.116466172692716,0.1274264212101224
23.535824,4.1451944312768525,0.1266584195777201
23.53822,4.1700582579950165,0.1259925547729067
23.540608,4.192780214339903,0.125395480617261
23.542992,4.2130807610577925,0.1248908578441706
23.545388,4.234824330014658,0.1243875242273344
23.54778,4.255636733411745,0.1239095220526125
23.55016,4.278311467928387,0.1233947251215526
23.552556,4.298844332071753,0.1229453880882364
23.55494,4.318865339535922,0.1224773429504897
23.607488,4.320357479461009,0.1221866017493279
23.609884,4.325385394312239,0.1221406626149248
23.612272,4.332135870656165,0.1220726208736188
23.614652,4.337955181440312,0.1220207973809917
23.617052,4.347127067411234,0.1218717605849637
23.61944,4.354436622262601,0.1217554079336357
23.62182,4.3640278171141045,0.1215694787082112
23.62422,4.374038320846189,0.1213514225796849
23.626604,4.384188594205134,0.1211236123208075
23.628984,4.394618406817799,0.1208773223031098
23.6314,4.401183787564491,0.120705490627327
23.633788,4.400951470139014,0.1206629186551917
23.636168,4.405514750139288,0.1205328406807036
23.638564,4.415944562751953,0.1202924587315326
23.640952,4.425443209804839,0.1200705865139463
23.643336,4.436292331298085,0.1197996101196487
23.645732,4.443416790552217,0.1195895874087656
23.648116,4.459341048724935,0.1192201598309493
23.650496,4.481551148390624,0.118714633815498
23.652904,4.509535232870086,0.1180532366488026
23.655288,4.533794655110435,0.117457519763328
23.657672,4.554329415111669,0.1169248561512971
23.660068,4.583152117352292,0.1162296532635931
23.662456,4.612254358846637,0.1155147185068269
23.664836,4.645221032206954,0.1147486049077275
23.667232,4.680701662992885,0.1139671433003669
23.66962,4.7191155600850125,0.1131472284054429
23.672004,4.757389687550281,0.1123513409966416
23.6744,4.794732649455767,0.1115725296597116
23.676784,4.829933740987978,0.1108477437803626
23.679164,4.868207868453245,0.1100701746151381
23.68158,4.911836671851703,0.1091728269886693
23.683964,4.950018251518354,0.1083423028902389
23.686344,4.978748405960361,0.1076461040354573
23.68874,5.009480661148784,0.1069283563208603
23.691124,5.041935477829902,0.1062041835867272
23.693508,5.076112856003719,0.1054695981109396
23.695904,5.103772075259085,0.1048279289266165
23.698292,5.126216388208121,0.1042886313129973
23.700676,5.1460995219033,0.1038279642383638
23.703072,5.167193360411976,0.1033407507384282
23.70546,5.186564637427956,0.1028638453480988
23.707844,5.198998446644906,0.1024958318651817
23.779528,5.01316396375175,0.1022545463132934
23.781928,5.011720941512773,0.10224519339333
23.784316,5.01563259520699,0.1021419585110351
23.786696,5.03132453595423,0.1018338619818619
23.7891,5.048366951141829,0.1014878010514251
23.791488,5.063547035209872,0.1011587216040748
23.793868,5.074350830732745,0.1008592316987476
23.796268,5.090509302188808,0.1004654697131506
23.798656,5.109740809577927,0.1000235734639984
23.801036,5.122314388421738,0.0996582369648879
23.803432,5.140102873571883,0.0992105632237093
23.80582,5.15560971872189,0.0988147259079607
23.8082,5.179124966857563,0.0983114572311534
23.810604,5.199055322380983,0.0978357021197409
23.812992,5.217774973090905,0.0973872307709122
23.815372,5.2406385949205205,0.096881694795593
23.817772,5.263781756003858,0.0963589240487264
23.820156,5.285062585967636,0.0958523042788968
23.82254,5.301128509625083,0.0954291293680457
23.824936,5.316682576603332,0.0949894861685255
23.827324,5.335030140260918,0.0945290627991256
23.829704,5.353098164664782,0.0940926046650587
23.832108,5.366882448322093,0.0937238660106901
23.834496,5.373961581605851,0.0934805966173109
23.836876,5.382903046009167,0.0932233788423266
23.839276,5.395848711905315,0.0929177651269837
23.84166,5.411308335227079,0.0926060460305253
23.844044,5.422623987429147,0.0923526738113628
23.84644,5.434219178884937,0.0920840948471055
23.848828,5.449539032579839,0.0917834270428894
23.851212,5.461646080714826,0.0915346552481356
23.853608,5.471239171424199,0.0912911452524392
23.855996,5.475105499148043,0.0911034494866496
23.858376,5.4820448628049405,0.0908765738525139
23.860776,5.490194931275338,0.0906250075143667
23.863164,5.496482668626179,0.0903919808358216
23.865544,5.503282262656216,0.0901778673824695
23.867948,5.513526979671647,0.0899523799712729
23.870336,5.529638229299468,0.0896694921574066
23.872716,5.544119465233209,0.0894354023064602
23.875112,5.551663233367921,0.0892753850456867
23.877504,5.551338368143827,0.0891960974433024
23.879884,5.556880035532123,0.0890571753227839
23.882288,5.561770076614362,0.0889080442373378
23.884676,5.564658016950182,0.0887824232308436
23.887056,5.568616892472643,0.0886432004290221
23.889452,5.572855307248824,0.0884880639364266
23.89184,5.583100024264254,0.0882689198716305
23.894224,5.592925432399104,0.0880761000934693
23.896616,5.602890610160815,0.0878761209263036
23.899004,5.6149976582958026,0.0876481355127125
23.901388,5.63162076460282,0.0873974798953641
23.903784,5.650106202029397,0.0871346582262902
23.906172,5.670826057627865,0.0868891454763725
23.908552,5.694339409905671,0.0866284554321109
23.910956,5.717573222929754,0.0863878390876882
23.913344,5.739364013714861,0.0861357743728333
23.915724,5.762784818194049,0.0858427356092949
23.91812,5.785274457113458,0.0855616904572874
23.920508,5.812187606406282,0.0852211735860367
23.922892,5.846177993124995,0.0848102213625944
23.925288,5.889107948389153,0.084313451562221
23.927676,5.928964867720255,0.0838528982538653
23.930056,5.972686218917331,0.0833661501260689
23.93246,6.0162678004875465,0.0828878010270786
23.934848,6.05570541093807,0.0824589546678152
23.937228,6.093001151015315,0.0820576311593269
23.939624,6.125221754413089,0.0817106134413899
23.942012,6.155580026691306,0.0813743385361915
23.944392,6.185146903036604,0.0810379640455778
23.946788,6.211640743448847,0.0807341424750051
23.949176,6.236272252741534,0.0804442012200276
23.951556,6.259041430914662,0.0801652636596716
23.953952,6.276782694236562,0.0798888850010872
23.95634,6.2905197560656285,0.0796490184512636
23.958724,6.298390285282305,0.0794532009947311
23.96112,6.308914541551458,0.0792506589226278
23.963508,6.315434596327775,0.0790841015703373
23.965888,6.316227888118562,0.0789541694650893
23.968284,6.313156748043377,0.0788510555920219
23.970672,6.306081406475357,0.0787812974855324
23.973068,6.2991458345341975,0.0787043392912583
23.975464,6.2967735425933125,0.0785670103382155
23.977852,6.29267868915973,0.0784319852286566
23.980232,6.291796641286064,0.0782636649352998
23.982632,6.28984365822576,0.0781059351111402
23.98502,6.288170214419175,0.0779336532347053
23.9874,6.284634439493036,0.0777690717342106
23.989804,6.282449139007255,0.0775785927186535
23.992192,6.280124068894613,0.0773952754523885
23.994576,6.278078538035692,0.0771972255627296
23.996972,6.272168575310796,0.0770229591251747
23.999356,6.264256511839483,0.0768636417268461
24.00174,6.258718636166925,0.0767126181000346
24.004136,6.254251695681007,0.0765498654354788
24.006524,6.253649187061062,0.0763615149446813
24.008904,6.249461785828863,0.0761833992770791
24.0113,6.243784140529445,0.0760380497883636
24.013688,6.239829056722724,0.0758904245162886
24.016072,6.2383879303416165,0.0757444147593061
24.039976,6.134431732159883,0.0756246010019139
24.042364,6.130474752495292,0.0756088927239583
24.044744,6.133315471002871,0.0755510512909121
24.047148,6.1421624917497,0.0754483554648248
24.049536,6.152359986936889,0.0753215419467515
24.051916,6.163768186937574,0.0751776195833457
24.054312,6.17652686137862,0.0750095743797752
24.0567,6.195943464364974,0.0748105406089009
24.059084,6.221645908844299,0.0745556845813761
24.06148,6.25042138925668,0.0742771480180122
24.063868,6.277753847430084,0.0739872823624076
24.066252,6.306064692991509,0.0736520982761433
24.068648,6.337448574485991,0.0732926448847919
24.071036,6.372324800794107,0.072888660779832
24.073416,6.414418034154974,0.0724296676715928
24.075812,6.454928475650004,0.0719631769274991
24.0782,6.492645420465699,0.0715082787355181
24.080584,6.535344954162249,0.0709843012511478
24.08298,6.575390760806324,0.0704709724450515
24.085368,6.620651473756733,0.069917515088344
24.087748,6.6640498555875824,0.0693727844273656
24.090148,6.701721474432904,0.0688581762389671
24.092532,6.735156574359914,0.0683447437855104
24.094912,6.766449803913648,0.0678555394129682
24.097312,6.795880702347825,0.0673760903791685
24.0997,6.82545137040886,0.0668944059826864
24.102096,6.857303678470035,0.0663946669949926
24.104492,6.880635726866343,0.0659273618663849
24.10688,6.899451717090621,0.0654704271211771
24.10926,6.915753749889283,0.0650103210000149
24.111656,6.932055782687946,0.0645516827441004
24.114044,6.946727801792529,0.0641291826243415
24.116424,6.958746093844638,0.0637075656214541
24.118828,6.969693450710109,0.0632963459781078
24.121216,6.971701239030135,0.0629303902459723
24.123596,6.978504624775912,0.0625488980332338
24.125992,6.987310111268105,0.0621567477755932
24.12838,6.991692087386883,0.0618067574128587
24.130764,6.993001027572608,0.0614747252747132
24.13316,6.991097162198416,0.0611682867488357
24.135548,6.989333066451083,0.0608551317704987
24.137928,6.990222697756226,0.0605425147497719
24.140324,6.990273711300207,0.0602661799001754
24.142712,6.988741932978352,0.0599812383633901
24.145096,6.988792946522334,0.0597060864867847
24.1475,6.987353715999097,0.0594574965580839
24.149888,6.982282371035363,0.0592510840607596
24.152268,6.9815873146168,0.0590481837119289
24.154668,6.980472949317656,0.0588631301614851
24.157052,6.977868339951294,0.0587033066743107
24.159436,6.974053025771433,0.058556962169438
24.161836,6.969166776404933,0.0584179923324365
24.164224,6.9678654196506855,0.0582792896823674
24.166604,6.963211487709663,0.0581687527995651
24.169004,6.95962849095528,0.0580496148466612
24.171392,6.952181062334923,0.0579424560503847
24.173772,6.947387360767042,0.0578375254964221
24.176168,6.943385055132078,0.0577374221750186
24.17856,6.942316015803308,0.0576271930915624
24.18094,6.942457681288039,0.0575037913098323
24.18334,6.942180037892188,0.0573983326666681
24.185728,6.94004006337678,0.0572953556788299
24.188108,6.941392433675008,0.0571587120896037
24.190504,6.943396430279293,0.0570329623848971
24.192892,6.941955303898186,0.0568998398245375
24.195272,6.940653947143939,0.056760700205618
24.197676,6.936419324083497,0.0566304651387102
24.200064,6.934466341023192,0.056480608161398
24.202444,6.934235919455584,0.0563345914324504
24.20484,6.942153670500504,0.0561512612488641
24.207228,6.950862817478343,0.055972715499286
24.209608,6.962924539642956,0.0557679791426315
24.212012,6.9760571969942085,0.05555850757606
24.214396,6.993333825465153,0.0553269858147832
24.216776,7.019689792108405,0.0550601755143219
24.219172,7.0460457587516565,0.054793684446927
24.22156,7.068537293528935,0.0545380527480378
24.22394,7.0903772020001545,0.0542728243494166
24.226336,7.112356880098235,0.0540036543622971
24.22872,7.1331258533828175,0.0537481453109578
24.2311,7.160972064093289,0.0534672491033675
24.233496,7.185885008497564,0.0531926054413465
24.235884,7.208516312901703,0.052938640439731
24.238268,7.229425055813146,0.0526801696300267
24.240664,7.251776820963563,0.0524377809942239
24.243052,7.273337190181063,0.0521905487116578
24.245432,7.300252235331756,0.0519117584525953
24.247828,7.323302848616477,0.0516430246176061
24.250216,7.347983475595276,0.051347380015168
24.252596,7.364655699588408,0.0510811591950139
24.254992,7.382678398021897,0.0507983880702985
24.25738,7.396557125335693,0.0505351068082278
24.25976,7.404429550410239,0.0502913925127343
24.26216,7.411231040298146,0.0500542820748029
24.264548,7.40653178238675,0.049871699203264
