Time,Force,Position
23.1322,2.27419970827021,0.1739079434508325
23.134588,2.3660903925715893,0.1707519897508131
23.136968,2.448996182357149,0.1686248260429597
23.139372,2.5304608457616022,0.1660975588163332
23.14176,2.605269476478616,0.1637939858001424
23.14414,2.6674157722689404,0.1620139906574651
23.146544,2.722159965409281,0.1606351761909437
23.148932,2.7704332214594163,0.1595624099655248
23.151312,2.811211827060951,0.1586865523820878
23.175216,2.912684226924488,0.1580451677171753
23.177604,2.927533758194828,0.1578995342951624
23.179984,2.9461079517042825,0.1576229129384057
23.182384,2.963611210027098,0.1573941972481049
23.184768,2.980043533163274,0.1572154978888135
23.187152,2.998430735217626,0.1570614451841911
23.189548,3.0163060805927784,0.1568883882636394
23.191932,3.035951209288871,0.1565573363172928
23.194316,3.056202638320648,0.1560617123194882
23.196712,3.073148713993892,0.1556294527769372
23.1991,3.0914452641074943,0.1551092773344528
23.20148,3.114305094221372,0.1543641353548293
23.203884,3.142379830641582,0.1533825391427687
23.206272,3.165007343329983,0.1525823267611542
23.208652,3.178695287472937,0.1521535154839213
23.211056,3.1935467146011467,0.1517602370179169
23.213444,3.213565826207445,0.1512237583492312
23.215824,3.230092593000108,0.1508519796816397
23.21822,3.24783006460627,0.1504037091393802
23.258832,3.2919140235663384,0.1497995404084715
23.261236,3.290750540581083,0.1497729867868764
23.263624,3.294429876849822,0.1495004602069657
23.3114,3.219303964340191,0.1493115072097323
23.313784,3.2227963091538268,0.1491491660378541
23.316168,3.22829075471388,0.1489147065283401
23.318564,3.236159388072687,0.148641832029386
23.320952,3.24724082699141,0.1482366313341071
23.323348,3.260184597029689,0.1477820525013141
23.325744,3.2666102081495207,0.1475190653924953
23.328132,3.273455128149932,0.1472043169127928
23.330516,3.279229112963705,0.1469321302073239
23.332912,3.2834203059116422,0.1466839525881066
23.3353,3.292966174792772,0.1462228502686202
23.337684,3.307587180353374,0.1455847382454401
23.34008,3.316713740353923,0.1451731732986761
23.342468,3.3315670633400023,0.1445950942667616
23.344848,3.35307831487139,0.1438174337563738
23.347244,3.373658400842999,0.143062621068177
23.349632,3.3928880123742493,0.1423808330877522
23.352016,3.41197785427864,0.1417164674797801
23.354412,3.4329300273025867,0.1410033845495179
23.3568,3.4521596388338374,0.1403326972985247
23.35918,3.4647313218197797,0.1398686184493299
23.416524,3.617922100718844,0.1397853452888173
23.41892,3.630537213817291,0.1397326150339839
23.421308,3.6462253628487926,0.1395819824942109
23.423688,3.663403755947513,0.1393581810859072
23.426084,3.676485399754784,0.1391920893727039
23.428472,3.683980050203384,0.1391576627494691
23.430856,3.6988314773315945,0.1388843972935707
23.433252,3.71703547964658,0.1384844576541213
23.43564,3.73393622934945,0.1380758279761865
23.438024,3.749114417559624,0.1376911247939333
23.44042,3.766015167262494,0.1372793217443429
23.442808,3.7859889528984194,0.1367796251257827
23.445188,3.805031572974566,0.1363147502387084
23.447588,3.8266353723045703,0.1357489929911274
23.449976,3.854664782754407,0.1349749128913577
23.452356,3.87924907021885,0.134257309522649
23.454756,3.904252666563874,0.1335058909764326
23.45714,3.9247402047368665,0.1328550514034213
23.45952,3.946857756603938,0.13212606335691
23.46192,3.9709774092174266,0.1313408796299857
23.464304,3.9964475362712735,0.1305149207251356
23.466688,4.016982296272509,0.129815367638668
23.469084,4.039938465900742,0.1290458326818467
23.471472,4.055817398103087,0.1284562487780569
23.473852,4.073139352544406,0.1278688518996724
23.476252,4.096607378851837,0.1271216054343764
23.478636,4.114208872546876,0.1265173666166419
23.48102,4.134092006242054,0.1258520206007809
23.483416,4.155837471056788,0.1251596481731458
23.485804,4.183449468483913,0.1243427258861506
23.488184,4.209897982925782,0.1235074718304769
23.4906,4.231690669568759,0.1227623889176526
23.492984,4.249618924345763,0.1220981729426485
23.495368,4.262611812070155,0.1215467957375392
23.497764,4.27360259904813,0.1210493555119952
23.500152,4.286595486772523,0.1205058322742926
23.502532,4.298517439310276,0.1199936962527387
23.504932,4.313884514833422,0.119446160812221
23.50732,4.3248280799831536,0.1190221625298862
23.579012,4.254769720721518,0.1189494492473929
23.581392,4.2609611185580025,0.118936347950075
23.583788,4.275859767514455,0.1187026899812371
23.586176,4.2910379557246285,0.1184489608836061
23.58856,4.310360115054497,0.1181100603509515
23.590956,4.329961813638084,0.1177551134027911
23.593344,4.353847252968225,0.117304387435952
23.595728,4.374427338939835,0.1168713915315972
23.598128,4.392353697858971,0.1164707118529868
23.600512,4.420011021256468,0.1158890495633568
23.602896,4.447947883907687,0.1152864852276247
23.605292,4.4770954513724055,0.1146512631451015
23.607684,4.507733262904342,0.113959198616275
23.610064,4.535437808130084,0.11332334110922
23.612472,4.5582069863032135,0.1127771304614233
23.61486,4.582326638916702,0.1121900232324207
23.61724,4.606865600410771,0.1115758515750577
23.619644,4.627959438919448,0.1109997157970468
23.622028,4.648401651122065,0.1104130182141721
23.624408,4.670706194444241,0.1098050121492748
23.626812,4.692778420340939,0.109154120397734
23.6292,4.709775509558163,0.1086083070688724
23.63158,4.717833030229943,0.1082235614549447
23.633976,4.727752882021279,0.1078192939441013
23.636364,4.732737366760004,0.1075011599463458
23.638744,4.730784383699699,0.1072981017878147
23.64114,4.724687429519701,0.1071754842361018
23.643528,4.7235258423923145,0.1069714901486382
23.645908,4.723295420824707,0.10675523082934
23.648304,4.722413372951041,0.1065321068516655
23.650692,4.720320620263876,0.1063411356818401
23.653076,4.717156932390074,0.1061724104863106
23.655472,4.715203949329769,0.1059725503055591
23.65786,4.713390735896325,0.10576169493791
23.66024,4.720796630262047,0.1053909605582406
23.662636,4.72741112869485,0.1050249295152129
23.665024,4.7308128215677385,0.1047216333211966
23.667408,4.735657536679603,0.1044276764259556
23.6698,4.741433417351245,0.1041226723078623
23.672188,4.742134161343415,0.1039012120035717
23.674572,4.743486531641644,0.1036891829719822
23.676972,4.747911937872926,0.1034255458747906
23.67936,4.755130840783545,0.1031261756798778
23.681744,4.75834554220133,0.1028921395518591
23.68414,4.762351639552032,0.102657141345776
23.686528,4.772224269515126,0.1023336747823923
23.688912,4.783028065037998,0.1019983374353554
23.691308,4.789408350187456,0.101758762078458
23.693696,4.7976509664564695,0.1014991773518269
23.69608,4.805614043471763,0.1012636221923459
23.698476,4.817441552353031,0.1009775817874351
23.700864,4.829920687540356,0.10070203720816
23.703244,4.839698873846963,0.1005094238308548
23.705644,4.851059852019406,0.1003162085154761
23.710412,4.854924283885379,0.1002662597059098
23.712812,4.861162903550107,0.1002164662943302
23.7152,4.868612228028333,0.1001383144584151
23.71758,4.878435740305314,0.1000609241078422
23.71998,4.895196720381323,0.0998867995726772
23.722364,4.914331888256087,0.0997143439087647
23.724748,4.929974711317215,0.0996190580265985
23.727144,4.949202426990597,0.0994958432005564
23.729532,4.971223639343314,0.0993446862446765
23.731916,4.994036247628949,0.0991938239458547
23.734316,5.019362813340197,0.0990373853830142
23.736704,5.045620544611223,0.0988723898656656
23.739084,5.077884578121501,0.0986244720467933
23.74148,5.107866971631641,0.0984246293166305
23.743868,5.135567725141644,0.0982723954412299
23.746248,5.163268478651648,0.0981257608490513
23.748652,5.1921799369751485,0.0979541431555617
23.751036,5.219368833805954,0.0977879549444468
23.75342,5.249770536196675,0.0975723061167739
23.755824,5.281755030453232,0.0973542272060515
23.758212,5.318674891762401,0.0970750833335795
23.760592,5.349867990086041,0.096859483036111
23.762996,5.38078154915596,0.0966666498189278
23.76538,5.409600459680845,0.0964576969222363
23.76776,5.436184952033836,0.0962454388374161
23.77016,5.458672695095376,0.0960398775099711
23.772548,5.487865588530467,0.095719407860518
23.774928,5.516826164540081,0.095370115125875
23.777328,5.543133013497221,0.0950374117090155
23.779712,5.571861272081358,0.0946597104032621
23.782092,5.598355112493601,0.0942771279247075
23.784496,5.625919888092482,0.0938820928778712
23.786884,5.64962023182539,0.0935294714997724
23.789264,5.675881754812155,0.0931229137083341
23.791668,5.704983996306499,0.0926474641425592
23.794052,5.728639014069032,0.0922085390753482
23.796432,5.745636103286258,0.091825846138722
23.79884,5.766637393996319,0.0913977271374634
23.801224,5.778838885787792,0.0910588570991733
23.803604,5.790668290526928,0.0906933101755259
23.806008,5.799983737840449,0.090336795146423
23.808396,5.814793630714023,0.0898977752347804
23.810776,5.826158400602205,0.0894709286669983
23.81318,5.835241530490249,0.0890817140690691
23.815568,5.841623711497575,0.0887562205466652
23.817944,5.84986822362446,0.0884164435538557
23.820348,5.849824793511955,0.0881817151309123
23.822736,5.849501824145731,0.0879649415376365
23.825112,5.849970250712423,0.0877493456219975
23.82752,5.844572144666724,0.0875892575259898
23.829904,5.836101002687972,0.0874643930557369
23.832284,5.825907299216523,0.0873442797481365
23.834688,5.818135005372072,0.0871794134852061
23.837072,5.807429445221424,0.0870409695645691
23.839452,5.793091770630282,0.0869680307878506
23.841856,5.78327015421117,0.0868719100232647
23.844244,5.783179502270423,0.0866910126195223
23.846624,5.783368389583396,0.086495775418971
23.84902,5.792776384695534,0.0862002151649788
23.851404,5.8048381068601485,0.0858959862866508
23.853788,5.815177267532064,0.0855967351551533
23.856184,5.821232687457426,0.0853535014600864
23.858572,5.828079503315708,0.0851114278200925
23.860952,5.8401412254803216,0.0848113316089043
23.863348,5.851551321338876,0.084499597605916
23.865736,5.863752813130351,0.0841912611374038
23.868116,5.875162908988907,0.0838763355883187
23.87052,5.882568803354629,0.0836004754964186
23.872908,5.888252136227655,0.0833273852538848
23.875288,5.893516160220099,0.0830750275760925
23.877692,5.900642515332101,0.0828102523658405
23.88008,5.905906539324546,0.0825568514420124
23.88246,5.906747052943576,0.0823669779431824
23.9207,5.701163518408494,0.0822421739565335
23.923088,5.702700984303956,0.082156614479032
23.925468,5.707171716505614,0.0820483842451122
23.927872,5.716438046133022,0.0819076310068157
23.93026,5.730779512439903,0.0817189399817441
23.93264,5.74805424505298,0.0815065725561346
23.935044,5.772778302144284,0.0812540200754177
23.937432,5.793498157742753,0.0810378987290406
23.939812,5.819293150020696,0.0807751643488994
23.942208,5.844017207112,0.0805236880152859
23.944596,5.87088313457658,0.0802466719273217
23.946976,5.894955565361824,0.0799861985339809
23.94938,5.920378470587428,0.0796987077256827
23.951768,5.945009979880116,0.079409580084956
23.954148,5.969921028426523,0.0791051382052641
23.956544,5.998883500294006,0.0787164441865441
23.958932,6.0327813392141,0.0782943000527887
23.961312,6.070403840373309,0.0778557663313003
23.963708,6.1032307441067655,0.077457596366844
23.966096,6.136988813400001,0.0770566675234714
23.968476,6.170886652320096,0.0766533076372358
23.970876,6.200360980866779,0.0763099814000978
23.97326,6.227972978293902,0.0759797896279081
23.975644,6.252372170161112,0.0756870049338082
23.97804,6.276119735722261,0.0753890664498443
23.980428,6.300426379790855,0.0750653086735223
23.982808,6.322219066433831,0.0747436694016123
23.985212,6.3460138538232265,0.0744062977426251
23.9876,6.368458166772261,0.0740978154421606
23.98998,6.393835746027492,0.073770650086786
23.992376,6.418561698976664,0.0734353496848214
23.994764,6.444498356739335,0.0730831453518864
23.997144,6.46857268338245,0.0727397448359439
23.99954,6.493717945212203,0.0723874199172657
24.001928,6.519142746295676,0.0720226626341613
24.004308,6.54293753368507,0.0716982831417033
24.006704,6.55672181734238,0.071443680437249
24.009092,6.56477933801416,0.0712170397064326
24.011472,6.570694988312662,0.0710112954642587
24.013868,6.578752508984442,0.0707869269446139
24.016256,6.585878864096443,0.0705674741299964
24.01864,6.594215924021944,0.0703318457726262
24.021036,6.601342279133946,0.0701135690938043
24.023424,6.608468634245948,0.0698952924149823
24.025804,6.609169378238118,0.0697364472887614
24.0282,6.610521748536346,0.0695887752866789
24.030588,6.610523644394215,0.0694645872704103
24.032968,6.610525540252085,0.0693404520010186
24.035372,6.6050802123781445,0.0692278594006309
24.037756,6.599774654131065,0.0691087820051359
24.04014,6.5951207221900425,0.0690000144036385
24.042536,6.591118416555077,0.0689015687734579
24.044924,6.588838672412809,0.0688038364189098
24.047308,6.5864191586436815,0.068712931268819
24.049704,6.58465127118061,0.0686324150973282
24.052092,6.586096189277455,0.0685243247067643
24.054476,6.595829049613688,0.0683545852927338
24.056872,6.612639147375811,0.0681404175145556
24.059264,6.630799719578292,0.0679042187433187
24.061644,6.646027025474578,0.0676847718937544
24.064048,6.661394100997724,0.0674605577049178
24.066436,6.672756975028037,0.0672592275229347
24.068816,6.683468222752291,0.0670475167200913
24.07122,6.6944590097302665,0.0668231854134945
24.073608,6.711875407828073,0.0665443389639983
24.075988,6.726218769992824,0.0662868829977701
24.078384,6.739770736224656,0.0660252615218886
24.080772,6.750249666523433,0.0657829871837361
24.083156,6.764453259061323,0.0655293211817478
24.085552,6.776654750852797,0.0652877847958721
24.08794,6.788064846711353,0.0650431209641311
24.09032,6.797612611450352,0.0648037001578107
24.09272,6.803295944323378,0.0645800304961087
24.095108,6.808327650890345,0.0643465413089582
24.097488,6.808563760031562,0.0641307279584835
24.099888,6.802793566933526,0.0639488870208277
24.102272,6.794881503462215,0.0637853689720019
24.104652,6.782825468871208,0.0636505481124328
24.107056,6.772491995772899,0.0635176185906645
24.109444,6.759225256368395,0.0633968942955042
24.111824,6.742745711403974,0.0633013259511361
24.114224,6.732272468678804,0.0631735425443957
24.116612,6.72459272263297,0.0630394079160546
24.118992,6.717844142146913,0.0629032301752353
24.121392,6.709884856847357,0.062781895035443
24.123776,6.704346981174801,0.0626313765859103
24.126156,6.701230515129241,0.0624519173422693
24.128564,6.706681530576788,0.0622086058494759
24.130948,6.716416286770893,0.0619355241258179
24.133328,6.730295014084689,0.0616386657795632
24.135724,6.7411007054654295,0.0613583174020568
24.138112,6.751115000913253,0.0610726902240918
24.140492,6.766204433040548,0.0607601883819079
24.1429,6.780083160354343,0.0604620645093336
24.145284,6.802110060280667,0.0601211537735732
24.147664,6.831353967259739,0.0597402718398635
24.150064,6.86180857905231,0.0593493552296129
24.152448,6.891611564538826,0.0589484410634993
24.154832,6.919691988532643,0.0585471863455508
24.157236,6.951636844392434,0.0581339603038851
24.159624,6.98786544099878,0.0576921855796158
24.162004,7.020089836112291,0.0572709239624195
24.1644,7.045656302680493,0.0568642261316283
24.166788,7.067358337382722,0.0564685312876239
24.169168,7.086127105778757,0.0560829703840003
24.171564,7.102614234174654,0.0557193238255619
24.173952,7.116540183316693,0.0553894802505861
24.176336,7.1249716868986805,0.055104904239641
24.178732,7.126186183427917,0.0548584992422037
24.181116,7.121534147344764,0.0546302275918505
24.1835,7.121165852008165,0.0543736894938744
24.185896,7.123730822977762,0.0541083486247673
24.188284,7.126575333201078,0.0538331645973998
24.190664,7.130490778611033,0.0535511063212525
24.193064,7.130402022528155,0.0532859741853994
24.195448,7.1221650938327485,0.053055999326601
24.197828,7.107362784390651,0.0528706903093731
24.200224,7.091349770135055,0.0526967912382453
24.202612,7.073986281439099,0.0525407033730977
24.204992,7.053689526436949,0.0523918272413704
24.207408,7.031250901061521,0.0522553400566299
24.209792,7.010022980499593,0.0521057844628159
24.212176,6.995732527736693,0.0519338094403297
24.214572,6.983444175720209,0.0517538359589601
24.21696,6.972086989263504,0.0515725600564079
24.21934,6.961660968366577,0.0513904714250129
24.221736,6.952445652283151,0.0511957473174944
24.224128,6.938434738773971,0.0510078730576859
24.226508,6.927636630824708,0.050799816495971
24.228912,6.917350379554643,0.0506079689168109
24.2313,6.9057136538442165,0.0504344930650193
24.23368,6.893937158506932,0.0502671148973797
24.460668,3.4575831144512845,0.0501723893228221
24.463048,3.424620232806705,0.0501359171249116
24.465452,3.3899347896694305,0.0500889086629985
