Time,Force,Position
4.364156,0.0,0.0
4.36656,0.0,0.0
4.368948,0.0,0.0
4.371324,0.0,0.0
4.373732,0.0,0.0
4.376116,0.0,0.0
4.378499999999999,0.0,0.0
4.380896,0.0,0.0
4.383284,0.0,0.0
4.38566,0.002055249419217148,0.0
4.388056000000001,0.007183534771489677,0.0
4.39044,0.011799963444564516,0.0
4.39282,0.017068018423697255,0.0
4.395216,0.02140490784305167,0.0
4.397603999999999,0.028535293941741056,0.0
4.399984,0.034734514480652116,0.0
4.402379999999999,0.04265629651225961,0.0
4.404767999999999,0.04378038037169844,0.0
4.407164,0.04569586016405537,0.0
4.409568,0.050824145516327905,0.0
4.411951999999999,0.0588856971747956,0.0
4.414332,0.0669472488332633,0.0
4.416736,0.07486903086487079,0.0
4.419124,0.08092848177692163,0.0
4.4215040000000005,0.0847062926888352,0.0
4.4239,0.08470629268883521,0.0
4.426288,0.08470629268883521,0.0
4.428668,0.08470629268883523,0.0
4.431063999999999,0.08470629268883523,0.0
4.433451999999999,0.08265104326961807,0.0
4.435832,0.07752275791734554,0.0
4.438236,0.0729063292442707,0.0
4.440624,0.06763827426513797,0.0
4.443004,0.06530941243675754,0.0
4.4454080000000005,0.059535427622984256,0.0
4.447796,0.05483237799584951,0.0
4.450175999999999,0.04761537094310021,0.0
4.452572,0.050129328368714754,0.0
4.454955999999999,0.053062594674909924,0.0
4.457336,0.05064118504791244,0.0
4.45974,0.04421557392808126,0.0
4.462128,0.03765019318138986,0.0
4.464508,0.03122458206155868,0.0
4.466899999999999,0.028523633180840776,0.0
4.469288000000001,0.032248295419954054,0.0
4.471667999999999,0.04189263894425797,0.0
4.474072,0.051397212841701685,0.0
4.476459999999999,0.060110390806227286,0.0
4.47884,0.06789240321097456,0.0
4.481235999999999,0.07367231486930499,0.0
4.483623999999999,0.07731035615435836,0.0
4.486003999999999,0.08108816706627194,0.0
4.488408,0.08108816706627194,0.0
4.490796,0.07908013947529795,0.0
4.493176,0.07772373819038185,0.0
4.49558,0.07679257263060353,0.0
4.497964,0.07865490375016017,0.0
4.500344,0.0765130333768831,0.0
4.502739999999999,0.07502278930966394,0.0
4.505127999999999,0.07460348042908332,0.0
4.507512,0.07296753989044681,0.0
4.509907999999999,0.07147136897867051,0.0
4.512292,0.06997519806689421,0.0
4.514671999999999,0.06661669603556125,0.0
4.517075999999999,0.0591142228845344,0.0
4.519463999999999,0.04946987936023047,0.0
4.521844,0.03996530546278676,0.0
4.524239999999999,0.03125212749826116,0.0
4.5266280000000005,0.023470115093513873,0.0
4.529007999999999,0.017690203435183443,0.0
4.531404,0.014052162150130073,0.0
4.533792,0.010274351238216494,0.0
4.536184,0.010274351238216494,0.0
4.53858,0.010274351238216496,0.0
4.540968,0.010274351238216496,0.0
4.543348,0.00970934588621851,0.0
4.545752,0.007142239787803673,0.0
4.54814,0.005646068876027366,0.0
4.550520000000001,0.0022875668446944173,0.0
4.55292,0.0,0.0
4.555308,0.0,0.0
4.557688000000001,0.0,0.0
4.560084,0.0,0.0
4.562472,0.0,0.0
4.564852,0.0,0.0
4.567247999999999,0.0,0.0
4.569635999999999,0.0,0.0
4.572016,0.0,0.0
4.574415999999999,0.0,0.0
4.576803999999999,0.0,0.0
4.579184,0.0013564012849160963,0.0
4.581580000000001,0.004714903316249044,0.0
4.5839680000000005,0.008352944601302412,0.0
4.586364,0.014132856259632842,0.0
4.588760000000001,0.021914868664380124,0.0
4.5911480000000005,0.028625945882488874,0.0
4.593527999999999,0.03533702310059762,0.0
4.595924,0.043119035505344905,0.0
4.598312,0.05197198309673072,0.0
4.600692,0.059753995501477995,0.0
4.603088,0.06753600790622527,0.0
4.605476,0.0733159195645557,0.0
4.607856,0.07937537047660656,0.0
4.610256,0.0854348213886574,0.0
4.612644,0.09135450267384804,0.0
4.615024,0.09727418395903868,0.0
4.617419999999999,0.10077245561723186,0.0
4.619807999999999,0.10240839615586837,0.0
4.622192,0.10240839615586836,0.0
4.624587999999999,0.10240839615586836,0.0
4.626972,0.10105199487095226,0.0
4.629368,0.09769349283961931,0.0
4.631767999999999,0.09405545155456595,0.0
4.634155999999999,0.08827553989623553,0.0
4.636536,0.08049352749148826,0.0
4.6389320000000005,0.0738355989461798,0.0
4.641316,0.07118187189370503,0.0
4.643696,0.06339985948895775,0.0
4.646092,0.05632262206306868,0.0
4.648479999999999,0.05124748538359644,0.0
4.650864,0.04738305351762295,0.0
4.65326,0.04659165758470484,0.0
4.655647999999999,0.0455207223980663,0.0
4.658044,0.04417024795770735,0.0
4.66044,0.04496164389062546,0.0
4.6628240000000005,0.047755140569960414,0.0
4.665208,0.052178650943374746,0.0
4.667612,0.06018705392904215,0.0
4.669995999999999,0.067689527080069,0.0
4.672376,0.07612316579087418,0.0
4.67478,0.08562773968831791,0.0
4.677168,0.09112811209292791,0.0
4.6795480000000005,0.0964887148706777,0.0
4.681951999999999,0.09984721690201066,0.0
4.684340000000001,0.10027245262714846,0.0
4.686719999999999,0.10021930395434817,0.0
4.689116,0.09616195378871417,0.0
4.691504,0.09658718951385195,0.0
4.693884000000001,0.09481147934835521,0.0
4.696287999999999,0.09210460362308018,0.0
4.698675999999999,0.08818702308430637,0.0
4.701056,0.08319850735889406,0.0
4.70346,0.07820999163348175,0.0
4.705848,0.07350101516178983,0.0
4.708228,0.06678993794368109,0.0
4.7106200000000005,0.058076759979155484,0.0
4.713008,0.050154977947547995,0.0
4.715387999999999,0.04051063442324407,0.0
4.717784,0.03300816127221721,0.0
4.720172,0.024574522561412022,0.0
4.722552,0.01506994866396831,0.0
4.724956000000001,0.0095695762593583,0.0
4.727344,0.0042089734816085,0.0
4.729723999999999,0.0008504714502755519,0.0
4.732128,0.00042523572513777593,0.0
4.734515999999999,0.00042523572513777593,0.0
4.736896,0.003861118692133846,0.0
4.739291999999999,0.035543323400539756,0.0
4.741680000000001,0.10703167316701628,0.011909105827635972
4.744059999999999,0.20938256845942993,0.022128470841889087
4.746464,0.3309101658812431,0.03205547626017297
4.748851999999999,0.464862093230661,0.04236749472721395
4.751232,0.6264618646882312,0.05236264379469853
4.753627999999999,0.8300962725312091,0.06158250741771588
4.756015999999999,1.073904881497907,0.07017289366193273
4.758395999999999,1.344107199646754,0.07854418166744888
4.760792,1.6383743651493692,0.08685067007919374
4.76318,1.9592656614017414,0.09515101257254492
4.765559999999999,2.3126476210162608,0.10333668511206814
4.767956,2.6919567591041047,0.11145544638596588
4.770344,3.09128121708251,0.11954338591649752
4.772724,3.5101544642426536,0.127658546897431
4.775119999999999,3.960354891779688,0.13568913829968277
4.777507999999999,4.448727419694025,0.1435305848539256
4.779888,4.9645192660067785,0.1512292787239624
4.782284000000001,5.493812065007383,0.15883138154994184
4.7846720000000005,6.019995742122955,0.16639554129058245
4.787068,6.510804607256297,0.17397902188753508
4.789464000000001,6.953479985966362,0.1697257673041199
4.791852,7.3631981706054574,0.16716380380677323
4.794231999999999,7.750294530129762,0.16492178679547465
4.796628,8.121661206367927,0.16231720506826927
4.799016,8.462913302900569,0.16001895670545932
4.801396,8.752354472599064,0.15855960331661867
4.803799999999999,8.99165815927,0.1578318566538325
4.806188000000001,9.195069489705897,0.15746732832923416
4.808567999999999,9.365988260921783,0.15729996763212814
4.810967999999999,9.506418469521934,0.15719127562379243
4.813352,9.614497784386801,0.15719106962853066
4.815735999999999,9.70288854044307,0.1571893170449276
4.818132,9.773358625153811,0.15721464029169824
4.82052,9.830378770720683,0.15715238280027022
4.822900000000001,9.861426411843857,0.15709054014583898
4.825296,9.855420109604609,0.1571710315282313
4.827684,9.816314947809659,0.15743436454776844
4.830064,9.763289524446275,0.15781206153633165
4.832468,9.712031988545963,0.1582246235960209
4.834856,9.670690512721249,0.1585679144579299
4.837235999999999,9.640662793240732,0.15878847806767812
4.839632,9.613753435663648,0.15902120854413293
4.84202,9.595828972602382,0.15919350571219265
4.844403999999999,9.593594554430487,0.15920083623679512
4.846807999999999,9.603557836334328,0.15910585818526973
4.849192,9.621295307940493,0.1589716680959422
4.851576,9.645503716636862,0.158791483409825
4.853972000000001,9.686799866491205,0.15838532404314376
4.8563600000000005,9.74811702380971,0.15772059350391923
4.858739999999999,9.816930727434688,0.15694542826503655
4.861136,9.884860487328131,0.1561526149636168
4.863524,9.940592547145839,0.15546950217047067
4.8659040000000005,9.993391340657352,0.1548216826283559
4.868307999999999,10.03860104006378,0.1542644029125095
4.870692,10.076733502044316,0.1538042491686648
4.873075999999999,10.11588967738325,0.1533620793159854
4.87548,10.161377020185528,0.15288130732967128
4.877864000000001,10.212032047465895,0.15236022838447413
4.880243999999999,10.267342902545154,0.1517973637534596
4.88264,10.325307484676888,0.15122233508411806
4.885028,10.382340901248842,0.15066385847484942
4.887408000000001,10.436767812596564,0.15009852071419136
4.889811999999999,10.4872377442797,0.14955917338384667
4.892199999999999,10.528768107417381,0.1491387279173869
4.89458,10.557401922345033,0.1488446538017807
4.896984,10.590087160593761,0.14847758443433037
4.899372,10.625473347723208,0.148057703021082
4.901752,10.652431822986404,0.1477498362027127
4.904147999999999,10.670310960077297,0.14755307786018218
4.906535999999999,10.68669985310097,0.14738762839992686
4.908916,10.698245926870646,0.14729613432874497
4.911315999999999,10.712538275491415,0.1472040957374369
4.913703999999999,10.732836926351435,0.14704474505685255
4.916084,10.759281649077563,0.14681348049443604
4.918483999999999,10.789078946990472,0.1465361924757594
4.9208680000000005,10.80705063187998,0.146359332713618
4.923252,10.824650229717152,0.14617087289249603
4.925647999999999,10.837501451956813,0.14600494710528839
4.9280360000000005,10.844021506733132,0.1458687347838584
4.930415999999999,10.842720149978886,0.14578957539831622
4.932812,10.832898533559774,0.14579204462780518
4.9352,10.820375968259945,0.14584317602021518
4.937583999999999,10.808505029266174,0.1458955953957798
4.93998,10.793188967287008,0.1459716312180665
4.942368,10.78052663236032,0.14602735773416922
4.944748000000001,10.763440787060217,0.14614242919101675
4.947144,10.74686679843931,0.14626459132545283
4.949532,10.734856089818676,0.1463215392714591
4.9519280000000006,10.721821667839649,0.1463643079127646
4.954324,10.708182841382808,0.14637728728552588
4.956712,10.700178230112877,0.14631286601228488
4.959092,10.695665963656586,0.14619754360410017
4.961487999999999,10.6871967175357,0.14609939835954855
4.963875999999999,10.678123066937003,0.14597263610381594
4.966256,10.662671027046716,0.14589811546022866
4.9686520000000005,10.659184369806686,0.145720297347405
4.97104,10.65593002999214,0.14555951127924532
4.973424,10.654538021297144,0.14538234983919168
4.975820000000001,10.656498587788924,0.14516112784314283
4.978208,10.65766775834779,0.14494216053138864
4.980604,10.663864843757882,0.1446914984173232
4.9830000000000005,10.679281036967142,0.14433528077238036
4.985388,10.695163760885224,0.14393924046163417
4.987767999999999,10.71258395069877,0.14348920797166959
4.990164,10.728980427153918,0.14302495474153049
4.992552,10.744957594728488,0.1425731374590578
4.994932,10.768571078236388,0.1420280528008704
4.997335999999999,10.793302718759168,0.1414497539329164
4.9997240000000005,10.814729005923414,0.14088920699845672
5.002103999999999,10.831964100139723,0.14040237799655061
5.0045,10.851665929953404,0.13993030223687025
5.006888,10.875092422006198,0.1394296744271259
5.0092680000000005,10.900009158126212,0.13890481119577203
5.011664,10.917708887193475,0.1384599879412506
5.014052,10.939365595925333,0.1379984149652135
5.016436000000001,10.95888043428391,0.13756377774975614
5.018832,10.979792968911092,0.13708185135824685
5.02122,10.996096897567622,0.13661155907866554
5.0236,11.005603128051984,0.1362052488549245
5.025995999999999,11.018786798947216,0.13579458028130592
5.028383999999999,11.039978872828117,0.13530645668838023
5.03078,11.057213967044426,0.13483549606471315
5.033175999999999,11.071376025327679,0.13439807096148745
5.03556,11.083069452155693,0.13402153965601193
5.037939999999999,11.09722961458108,0.1336591100387985
5.0403400000000005,11.118327244805492,0.13323217802229545
5.042728,11.129693910551541,0.1328945098475593
5.045107999999999,11.133564029991122,0.13264095156482386
5.047504,11.139389028348878,0.13239422555013985
5.049892,11.14707635782619,0.13213234811102095
5.052272,11.154299052452545,0.13183871797508928
5.054663999999999,11.156214292973951,0.1315787092843389
5.0570520000000005,11.153054396815886,0.1313678636353056
5.059452,11.153199854016353,0.1311426308326124
5.061848,11.160422548642709,0.13085132657820017
5.0642320000000005,11.168995717709425,0.1305397067494059
5.066616,11.17486793789542,0.1302704215875516
5.06902,11.19028413110468,0.12995121853862748
5.071403999999999,11.210588469538308,0.1296144542579267
5.073784,11.231312116852518,0.1292649373122984
5.076179999999999,11.240582238195666,0.12900594785570205
5.078568000000001,11.249013741777652,0.12877526987476748
5.080952,11.259959202785254,0.12853455649576684
5.083344,11.272255138233215,0.1282733335605153
5.085732,11.283108051442198,0.128011745759769
5.088115999999999,11.287303036105868,0.1278014467035492
5.090508,11.294011978195162,0.12758018144921346
5.092896,11.306727222523701,0.12730597140017086
5.095276,11.320653171665741,0.12701667036574976
5.097676,11.337791926367698,0.12669486308247
5.100064,11.349948092188798,0.12644036860811037
5.102459999999999,11.367551481741705,0.1261529012242985
5.104856,11.390741864653284,0.12582754700768128
5.107244,11.415282722005223,0.12548319753547144
5.109624,11.429813075625077,0.12522652081209254
5.112024,11.445134825177849,0.12496957400774766
5.114412,11.462598445103898,0.1246914459538245
5.116792,11.470890179059026,0.12447258260165195
5.119187999999999,11.478949595588674,0.12423846640896126
5.121575999999999,11.48807994730496,0.12399492758569576
5.123956,11.50880359461917,0.12366583817918839
5.126351999999999,11.526733745254043,0.12335410452649812
5.1287400000000005,11.545083204769496,0.12303120059472383
5.131124,11.565294995404509,0.12269772362918384
5.133519999999999,11.588020743465131,0.12235607531845402
5.135908000000001,11.616613024138148,0.12197086746068404
5.138292,11.645345074438026,0.12158172265593077
5.140687999999999,11.669001988058428,0.12123636190086182
5.143076000000001,11.688514930559137,0.12092729740314584
5.145455999999999,11.707608564179267,0.1206332718767549
5.147855999999999,11.730985938545949,0.12029796974941899
5.150243999999999,11.750359111419796,0.119996524608324
5.152623999999999,11.764517377987314,0.11974180509045654
5.15502,11.780258436420663,0.11948592876492695
5.157404,11.803868128212827,0.11917187358932904
5.159800000000001,11.824404784071929,0.11888428897090016
5.162196,11.845593066237097,0.1186010969621401
5.164579999999999,11.872228572134068,0.11828916513490237
5.16696,11.900167330643153,0.11798552316852962
5.1693560000000005,11.925824449152104,0.11770708421362484
5.171744,11.947197826914502,0.11747057398842087
5.17414,11.973087262848932,0.1172110489167156
5.1765360000000005,11.991619922103748,0.11701440031290228
5.17892,12.00908164617193,0.11682849009977699
5.1813,12.02603151356091,0.11663638958054767
5.1837040000000005,12.041770676136395,0.11645949863825071
5.186092,12.060582874644933,0.1162596997723062
5.188471999999999,12.081397173899887,0.11604508480871786
5.190868,12.110499415394234,0.11576514770153275
5.193256,12.140952131328934,0.11547003563587276
5.195636,12.171265077636779,0.1151804269593675
5.198032,12.200507088757982,0.11489982754331672
5.200416000000001,12.234172610252601,0.11457866639538661
5.202812,12.265975800627663,0.1142697367429314
5.205207999999999,12.292052228017194,0.11399640375671226
5.207596000000001,12.32120169133978,0.11370073237102907
5.209975999999999,12.34862859316967,0.11341199557651609
5.21238,12.372330832760449,0.11314413821135723
5.214767999999999,12.392587949365833,0.11288882322660072
5.217148,12.412984835598078,0.11262975294994328
5.219543999999999,12.42979682921807,0.11238644520257822
5.221931999999999,12.447167901345502,0.11212838108257099
5.224311999999999,12.4725473764586,0.11181510975110141
5.226708,12.496064520452144,0.11151197299193324
5.229092,12.519162355565106,0.11122205467541289
5.231475999999999,12.5354624925059,0.11097314404646312
5.233867999999999,12.547758427953859,0.11075231562747241
5.236255999999999,12.561265068215317,0.11051934942218583
5.238652,12.567414931797165,0.1103442526369635
5.241047999999999,12.568769197953262,0.1101968859104457
5.243435999999999,12.57040300336308,0.11004195765725883
5.245816,12.574086131347558,0.10985084544996564
5.2482120000000005,12.574975762652702,0.10967388106692684
5.2506,12.569207465412536,0.10953246301046983
5.252979999999999,12.566651973732284,0.10936533325900687
5.255376,12.558649258320226,0.10922151742674074
5.257759999999999,12.551205621415608,0.10906183272493984
5.260144,12.545112458951348,0.10888565289440089
5.262535999999999,12.537156965367531,0.10871810229133841
5.264924000000001,12.525616579171462,0.10856433553837422
5.26732,12.516218063348669,0.10839330665084543
5.269715999999999,12.50616792121982,0.108219038788424
5.2721,12.491601720918936,0.10806308355142485
5.274483999999999,12.479456930245052,0.10788234098177168
5.27688,12.464146555839497,0.10770323384590298
5.279264,12.45526179255377,0.10747348906970329
5.281648000000001,12.441721201469154,0.10726500722221573
5.284044,12.422174308145287,0.10709466575299899
5.286432,12.405048824448418,0.10689922166506985
5.2888280000000005,12.385921240005128,0.10671605340157443
5.291224,12.364000158882506,0.10654587037938268
5.293612,12.338958819998586,0.10642001621055985
5.295992,12.315640042607365,0.1062888239739048
5.298387999999999,12.301400603388444,0.10609744402376417
5.300775999999999,12.285019293796251,0.1059226110157877
5.30316,12.275156143122503,0.10571683611216455
5.305555999999999,12.26180064763512,0.10554363151083236
5.30794,12.24509257696096,0.10539906573569224
5.310324,12.22931567184658,0.10524964261881628
5.3127200000000006,12.218194594531091,0.10507795420910154
5.315108,12.2070735172156,0.10490613212917552
5.317487999999999,12.192739634340198,0.10475900584343727
5.319884,12.181990644077045,0.10459845542322722
5.322272,12.168540704933173,0.10447022196793761
5.324664,12.160537989521115,0.10432021353496951
5.32706,12.153186900415113,0.10417408042096739
5.329447999999999,12.155427006160616,0.1039779717729044
5.331832,12.165675514891786,0.10373247547964817
5.334228,12.175924023622954,0.10348746537228443
5.336612000000001,12.19297023052629,0.10320572228907707
5.338996,12.211599229295468,0.10292358019610552
5.341391999999999,12.232929176945358,0.10260928263553151
5.343776,12.251605397542775,0.10230381094010624
5.346171999999999,12.266929042953416,0.10202789785749389
5.348568,12.284254789110474,0.10174053230604038
5.350956,12.2975763337747,0.10147810578577461
5.3533360000000005,12.315041849558618,0.1011877897002852
5.355732,12.33851366758179,0.10086222836540476
5.358115999999999,12.365849917470928,0.10051764975895046
5.360496,12.392534541054015,0.10017056999327706
5.3629,12.41707729426382,0.09983919033263267
5.365288,12.44241144340655,0.09950737080734576
5.367668,12.465091865496799,0.0991845154131381
5.370072,12.488331366094489,0.09884588580623652
5.37246,12.507706434826208,0.09852802233406897
5.374839999999999,12.524939633184651,0.09822672937014529
5.3772400000000005,12.538308399677119,0.09794613368116456
5.379624,12.549535295796307,0.09768223273888982
5.382007999999999,12.563695458221694,0.09740472202752953
5.384404,12.571057922474912,0.09716072314832468
5.386792,12.577768760422073,0.09691286152430752
5.389172,12.584339828742372,0.09666922986679086
5.391568,12.589420652995452,0.09644367214861255
5.393955999999999,12.594781016502253,0.09621074525298894
5.396336,12.595997408889358,0.09600353672006309
5.398731999999999,12.598704045343684,0.09577757189173311
5.401120000000001,12.60033974661137,0.09555937809876881
5.403516,12.598530324893664,0.09534833837993113
5.405911999999999,12.593787636869761,0.0951518311396457
5.4083000000000006,12.589836344778778,0.09495582467872765
5.410679999999999,12.587095757501293,0.0947484874786763
