Time,Force,Position
5.569259999999999,0.0,0.0
5.571647999999999,0.0,0.0
5.574027999999999,0.0,0.0
5.576424,0.0,0.0
5.578808,0.0,0.0
5.581203999999999,0.0,0.0
5.5836,0.0,0.0
5.585988,0.0,0.0
5.588368,0.0,0.0
5.590772,0.0,0.0
5.59316,0.0,0.0
5.595536,0.0,0.0
5.597931999999999,0.0,0.0
5.600319999999999,0.0,0.0
5.6027,0.0,0.0
5.605104,0.0,0.0
5.607487999999999,0.0,0.0
5.609872,0.013446282087084297,0.0
5.612267999999999,0.06422604679031074,0.009529928024379155
5.614655999999999,0.14567946970650159,0.018557197663774082
5.617036,0.26791149822422744,0.026509900284507337
5.619431999999999,0.4189114237228565,0.03413527714799294
5.621819999999999,0.5825226706041937,0.04214474086237074
5.624216,0.7633066230106442,0.05049171013947182
5.626611999999999,0.9802586791901119,0.05861002583049769
5.628999999999999,1.2367786361576163,0.066403737852986
5.631384,1.5273739442109733,0.07395862355300332
5.633788,1.8391480551401462,0.08152376598165124
5.636171999999999,2.167210927862898,0.08926846560320682
5.638556,2.5272053854403556,0.09698176370967634
5.640959999999999,2.916804461902008,0.10464790547280378
5.643344,3.333309104225008,0.1122387263935951
5.645727999999999,3.7672678871847105,0.11987973188516357
5.648124,4.221938942311406,0.12757409169930467
5.650507999999999,4.70407274594902,0.1352635158748643
5.652891999999999,5.218559339179791,0.14283869542883332
5.655288,5.761211320771522,0.15023932688825345
5.657676,6.286784905835671,0.15769641865467773
5.660056,6.760266128954085,0.15576210482894137
5.662451999999999,7.197813461582829,0.1543476853490796
5.664839999999999,7.591928461557562,0.154030675619225
5.66722,7.94768436969989,0.15414818925448004
5.669615999999999,8.296882480527001,0.15377866565808357
5.672,8.637522589150354,0.1529262356037399
5.674383999999999,8.934732260977563,0.1523426436969224
5.676775999999999,9.180548418993338,0.15219644160939327
5.679163999999999,9.379904534392422,0.1524301016660467
5.68156,9.55044553098236,0.15277275186435862
5.683955999999999,9.707071953577476,0.1529215067682714
5.686343999999999,9.832325869825324,0.15307848354900372
5.688724,9.934772865361145,0.15319870930124768
5.691128,10.01520244025999,0.15336181804197704
5.693516,10.078130652693888,0.1535040447961996
5.695896,10.125793816692603,0.15353859002558723
5.698292,10.142828648448727,0.15359549936996705
5.700679999999999,10.123833250200823,0.15377747257021118
5.70306,10.069874765419792,0.15421690334276206
5.705467999999999,10.020851647691373,0.1546020844404396
5.707855999999999,9.989380905971885,0.15481788125623192
5.710235999999999,9.961587604663265,0.15502556343886298
5.712632,9.92806754036911,0.15530452161718616
5.71502,9.909026816150837,0.15544194544509188
5.717399999999999,9.882814410850184,0.15572852025290296
5.7198,9.844215418160822,0.15623331712803923
5.722184,9.813949693681222,0.15668130914703776
5.724567999999999,9.79564935185188,0.1570106798133938
5.726964,9.790385327859436,0.15719994813976496
5.729347999999999,9.801138109838327,0.15717513243790515
5.731732,9.819527207750546,0.1570351993066518
5.734127999999999,9.835914204916348,0.15692162825454384
5.736515999999999,9.834329517192645,0.15701404865406568
5.7389,9.824132022005458,0.15718084723499098
5.741295999999999,9.819708511632044,0.15724997075293892
5.74368,9.810908712713458,0.15735744469940863
5.746059999999999,9.810489403832879,0.15737423514250637
5.748456,9.817611967229142,0.15733488956043473
5.750839999999999,9.836839682902523,0.15716509443565085
5.753236,9.859512521561298,0.1569681775302474
5.755631999999999,9.884280008765105,0.1567723089995081
5.758019999999999,9.915053798208163,0.15650352560143152
5.7604,9.956489717689363,0.1561064983730008
5.762804,9.993968657505974,0.15573473091672166
5.765187999999999,10.036662503628916,0.1552926534204121
5.767568,10.089925931991385,0.15470563329000842
5.769972,10.146541935540627,0.15407529018547125
5.77236,10.203437478343591,0.15343560654669486
5.774739999999999,10.262474891519833,0.15276961355531385
5.777136,10.313783440964126,0.15220008493613071
5.779523999999999,10.353870781862836,0.1517784939709967
5.781904,10.39889348981416,0.15130350597600484
5.784299999999999,10.457651363736682,0.15066505271817654
5.786687999999999,10.517992029525038,0.15001108922472614
5.789067999999999,10.575771516059534,0.14941234619285057
5.791467999999999,10.633411232967175,0.14882137684156427
5.793852,10.682949999090528,0.14830681125732492
5.796243999999999,10.724667353683323,0.14785404868677002
5.79864,10.760285858238245,0.1474521522305324
5.801028,10.79529995831535,0.1470271207455808
5.803408,10.831199897981863,0.14655205059848186
5.805803999999999,10.862583779476344,0.1461194058607333
5.808188,10.887729041306098,0.14573628773889358
5.810584,10.917018274255545,0.14530783593067154
5.812988,10.951010556832127,0.14481946353283354
5.815376,10.97862445011712,0.1443889149319615
5.817756,10.995995522244552,0.1440478044483787
5.820159999999999,11.008990305826813,0.1437363752241577
5.822548,11.016770183102741,0.14348546412771995
5.824927999999999,11.028554261871504,0.14319389127124885
5.827331999999999,11.047323030267538,0.14280722783250901
5.829719999999999,11.058782243812209,0.1424799068194692
5.8321,11.066237255864042,0.14219476326751726
5.834504,11.076765303848932,0.1418755794882672
5.836887999999999,11.08319660254237,0.14157715786151687
5.839268,11.089814892690914,0.14124849019043234
5.841672,11.09857505321273,0.1408933574062072
5.84406,11.107707300786888,0.14054716295293554
5.84644,11.118142800973159,0.1402045338012878
5.848852,11.127227826719071,0.13988723386941954
5.85124,11.126721657613484,0.13965870757176604
5.85362,11.122490826268779,0.1394605949338569
5.856015999999999,11.124638384215665,0.13921240175936728
5.858403999999999,11.119708704736661,0.13903868977443765
5.860784,11.10546736965987,0.13894204292336587
5.863179999999999,11.089271155664914,0.1388387209106561
5.865564,11.076939373535922,0.13869948000022922
5.867947999999999,11.070426902191084,0.13853051287136128
5.870344,11.073692617152847,0.13824517112183884
5.872728,11.073420661330607,0.13796064440321174
5.875108,11.059413539537164,0.13780458393521502
5.877512,11.0456387351692,0.13766455983331333
5.8799,11.031025313040075,0.13755364032793493
5.882279999999999,11.018693530911088,0.13741288831834364
5.884676,11.009342236916538,0.13721814396437715
5.887064,10.996358828481492,0.13707447541129708
5.889444,10.983979824524262,0.1369589984380103
5.891847999999999,10.97797920985862,0.13679574793409385
5.894236,10.972305356274942,0.13659657533368344
5.896615999999999,10.960951961533974,0.1364205395895066
5.899028,10.951832984964902,0.1362406648863084
5.901412,10.95039565029953,0.1360174329605478
5.903795999999999,10.946397136380304,0.13583371032795385
5.906192,10.941886765781879,0.1356422715412321
5.908575999999999,10.935653833690756,0.1354605062067183
5.910956,10.932818802756787,0.13528494417990855
5.913367999999999,10.937385874472797,0.13507689546663704
5.915755999999999,10.942232485442531,0.1348601207439558
5.91814,10.940281398240096,0.1347054996075191
5.920543999999999,10.938283089209415,0.13457724305825305
5.922932,10.948250162828996,0.13435957749099953
5.925311999999999,10.967017035367162,0.13406357885959005
5.927723999999999,10.990906266413042,0.13369171799621415
5.930112,11.012141770406448,0.13333884745511268
5.932491999999999,11.030536555892274,0.1330344201324167
5.934907999999999,11.057591370669826,0.1326594570969857
5.937292,11.089069695820793,0.13223568785176054
5.939676,11.119524307613364,0.1318009327642628
5.942087999999999,11.149419840898494,0.13138624203954363
5.944475999999999,11.18634538978127,0.13093275109349395
5.946872,11.228857932022718,0.13044074024512686
5.949264,11.267925351278771,0.12996984562533137
5.951652,11.305689517922708,0.12949308442668284
5.954031999999999,11.3470385771789,0.12899349261563714
5.956428,11.390761824233845,0.12848679790655382
5.958816,11.434252753863314,0.1279669306028485
5.961196,11.4691308760293,0.1274924802408092
5.963599999999999,11.500563875209895,0.12703643553388694
5.965984,11.53050663032327,0.12660551894928956
5.968364,11.558587054317087,0.12618810183945584
5.970764,11.584293290512148,0.12578012930696356
5.973147999999999,11.605203929281458,0.12541212308327304
5.975544,11.623553388796912,0.12508128704250818
5.977939999999999,11.643625409805063,0.12474388885279736
5.980327999999999,11.667981171559765,0.1243651028274401
5.982708,11.679952241783631,0.1240765385243959
5.985112,11.686056779395106,0.12383497394009825
5.9875,11.688529202566087,0.12363866331936255
5.98988,11.691141395363926,0.12343807172115567
5.992276,11.688026825176237,0.12327894994787515
5.994663999999999,11.680675736070233,0.12313710642145471
5.997044,11.673324646964232,0.12299519813161619
5.999439999999999,11.669558450470484,0.12283371824228272
6.001827999999999,11.666351332484176,0.12265494379099584
6.004207999999999,11.665425854498006,0.12245155805536068
6.006607999999999,11.665012233191035,0.12225600567992491
6.008992,11.669114670056091,0.12203531007463088
6.011375999999999,11.678664330652959,0.12178487682498021
6.01378,11.687841904197493,0.12152236680469959
6.016168,11.69836995218238,0.12124108347422995
6.018548,11.70633682091341,0.12099343544571563
6.020943999999999,11.713232754457803,0.12075595159724478
6.023331999999999,11.72199101912175,0.12050767217450233
6.025716,11.730889053412563,0.12025646511792702
6.028111999999999,11.736434512516599,0.12004033971820811
6.030499999999999,11.752502332031916,0.11975354482365191
6.03288,11.768570151547232,0.11946590883360542
6.035279999999999,11.786919611062686,0.11915371283552115
6.037664,11.806200236137919,0.1188368626276904
6.040048,11.824409926026512,0.11852858810456139
6.042452,11.84406263815408,0.11822275191139003
6.04484,11.859711148788817,0.11794719003020772
6.047223999999999,11.875778968304132,0.11766051628613046
6.04962,11.894500514871924,0.1173639780096807
6.052003999999999,11.909078090320023,0.11710263163304646
6.054384,11.91792890278259,0.11687808690947206
6.056779999999999,11.926779715245155,0.1166543251860092
6.059167999999999,11.929903764722193,0.11646787088780229
6.061547999999999,11.936612706811484,0.11626443727724445
6.063944,11.945044210393469,0.11605530039778165
6.066332,11.955897123602451,0.11581889240940699
6.068715999999999,11.968612367930994,0.11557216920570629
6.07112,11.979605050766839,0.11533261328145665
6.073503999999999,11.983520496176792,0.11514628818611475
6.075883999999999,11.989857351213745,0.11493327148567359
6.07828,11.991119069571226,0.11475949021804724
6.080668,11.993172183861626,0.11458436225750089
6.083063999999999,11.994945758898304,0.11441771474514237
6.08546,11.993506528375066,0.1142790718294356
6.087844,11.997002664904441,0.11410619106552601
6.090224,11.997425765500761,0.11395708827992188
6.092619999999999,12.00371539870947,0.11376846197460565
6.095007999999999,12.005721291171623,0.11361740481124276
6.097388,12.00092948546161,0.11351072995645305
6.099783999999999,12.001352586057928,0.11336204136588791
6.102172,12.010715255199692,0.1131515223582521
6.104551999999999,12.019006989154823,0.11295066010576024
6.106948,12.027019183856225,0.11275746366221154
6.109336,12.033029277811217,0.11257905453829842
6.111731999999999,12.038247975833285,0.1124022512225345
6.114128,12.04025386829544,0.11225271880982465
6.116511999999999,12.042259760757597,0.11210352954895172
6.118896,12.042123782846474,0.11197227154898313
6.121296,12.047994107174603,0.11179862304760631
6.123684,12.050791395569677,0.11164840225327236
6.126064,12.058803590271083,0.11145801787583423
6.12846,12.069237194599488,0.11124185416201741
6.130843999999999,12.079298711875552,0.11101426853876643
6.133228,12.092852573965256,0.11075184610540367
6.135623999999999,12.107756910495315,0.11047441715583416
6.138008,12.126293361465873,0.11015859930541773
6.140403999999999,12.142036315757094,0.10985778441941088
6.1428,12.160992075608231,0.10953086445690453
6.145188,12.182089705832645,0.10918571949773408
6.147571999999999,12.197320803444672,0.10887758764816749
6.149968,12.20282093657833,0.10862860178383633
6.152352,12.207809213032794,0.10837219805765316
6.154732,12.215498438367977,0.10808210463903568
6.157136,12.220533936650682,0.1078013331559835
6.159524,12.221844772694274,0.10753887451302357
6.1619,12.226647953551504,0.10724243864327358
6.164295999999999,12.226283449930643,0.10696066633839868
6.166683999999999,12.229271521496557,0.10664892364116127
6.16908,12.233470297875973,0.10632569496443983
6.171475999999999,12.233804642389412,0.1060233556838981
6.173863999999999,12.226270353544047,0.10576952597097176
6.176244,12.220738165445097,0.10550349157262384
6.178639999999999,12.215997373279068,0.1052369889771506
6.181027999999999,12.2084630844337,0.10498361765923869
6.183412,12.195993428535719,0.10476019820789961
6.185807999999999,12.180450736704689,0.10455745013502096
6.188195999999999,12.165047814500516,0.10435030714540713
6.190575999999999,12.147782561176786,0.10415150374564675
6.19298,12.131308703785974,0.10395210507128635
6.195367999999999,12.116697177514716,0.10374361300226508
6.197748,12.109162888669351,0.103488808013279
6.200143999999999,12.103351161316677,0.10322958984597622
6.202531999999999,12.098191060270064,0.10297443687971115
6.204911999999999,12.099037261462703,0.1026825649485089
6.207308,12.102257650454096,0.10238967015985107
6.209696,12.105198500191767,0.10210561031717617
6.212075999999999,12.115448904780806,0.10179271819020856
6.214476,12.12290581269051,0.10149243090201943
6.21686,12.125287583920738,0.10122437331528926
6.219243999999999,12.135398218882923,0.10091593475817326
6.22164,12.148581889778155,0.10058648066238485
6.224028,12.155759258434134,0.10029372117415931
6.226408,12.161725922276618,0.10001296875817096
6.228808,12.171929105037414,0.0997248120650765
6.231196,12.182644144477406,0.09944411664947302
6.233588,12.197083846156511,0.09914818346210949
6.235995999999999,12.214317044514953,0.09884143272722777
6.23838,12.231550242873396,0.09853482945729965
6.240764,12.247992045298918,0.09822851665907244
6.243159999999999,12.266575718097718,0.09790735288017267
6.245548,12.280735880523103,0.09762176864272179
6.247927999999999,12.291823007015436,0.09735565392444763
6.250324,12.302910133507766,0.09709053847214624
6.252712,12.309573749626683,0.09686073539933565
6.255092,12.317727609812817,0.09661217738345665
6.257488,12.323879369252538,0.09637523921752403
6.259875999999999,12.327097862386061,0.09615400186167274
6.262256,12.332970082572059,0.09592590336232036
6.264651999999999,12.34391743943753,0.09566835994046537
6.267039999999999,12.34913803331747,0.09543657680995368
6.269424,12.359293994250018,0.09518048152386495
6.271828,12.372383221488766,0.09490974004538943
6.274216,12.386683153541014,0.0946280142236072
6.276595999999999,12.396746566674949,0.0943530217460299
6.278992,12.408160454249245,0.0940631773898423
6.281375999999999,12.416641075517344,0.09378819238103461
6.28376,12.423259365665883,0.09352093013643822
6.286155999999999,12.429458346933847,0.09326487679988356
6.288543999999999,12.43924222081406,0.09299989229302467
6.290924,12.445813289134358,0.09275649618416193
6.293319999999999,12.455876702268293,0.09248433396835824
6.295708,12.469013151335284,0.092194792844286
6.298104,12.481078665215636,0.09191306974491628
6.300499999999999,12.495705358349845,0.09160646091064299
6.302884,12.508190181110779,0.09131448365244228
6.305264,12.521606169431488,0.09101944666615414
6.307667999999999,12.53423076181928,0.09072412922924361
6.310056,12.547646750139991,0.09043062063334106
6.312435999999999,12.559852033647203,0.09014902496079528
6.314832,12.576713144953306,0.08985197018727875
6.31722,12.585286314020024,0.08960254253013572
6.3196,12.595442274952577,0.08935509579734172
6.322003999999999,12.605458466258272,0.08911174659132576
6.324391999999999,12.616777910176081,0.0888770306034328
6.326771999999999,12.624884548533974,0.08866224915978291
6.329176,12.634713748384561,0.08844535005756496
6.331563999999999,12.641330142675233,0.08824835298619538
6.333944,12.651159342525823,0.08803161542804498
6.336339999999999,12.657263880137297,0.08782747427382051
6.338724,12.66523074886833,0.08761721538882229
6.341107999999999,12.674640639838339,0.08741321514768736
6.343512,12.684841926741264,0.08721083417770724
6.345895999999999,12.698395788830965,0.08698636279432387
6.348275999999999,12.71059917648031,0.0867763630385606
6.350672,12.724944434502929,0.08655397882779237
6.353063999999999,12.739289692525547,0.0863319843747927
6.355443999999999,12.753215641667587,0.08612078578380032
6.35784,12.763277158943653,0.08592456028623395
6.360228,12.770545179540385,0.08573670993383418
6.362607999999999,12.777021804204198,0.0855487178090351
6.365007999999999,12.788573565547484,0.08533598685347478
6.367396,12.797611369465153,0.08512466436257247
6.369775999999999,12.808791043756099,0.08490157057512832
6.372179999999999,12.816525595061654,0.08468144755041368
6.374567999999999,12.833619023793235,0.08441351464013179
6.376948,12.846056624725925,0.08415837039699182
6.379343999999999,12.865711232711364,0.08386771880817451
6.381731999999999,12.882572344017467,0.08358576177512055
6.384111999999999,12.898502289763794,0.08330613319725211
6.386511999999999,12.915503170696754,0.08302098754540897
6.388899999999999,12.92584612308441,0.08275739455997563
6.391279999999999,12.932464413232951,0.08250426286425669
6.393676,12.93023568263467,0.08230670785706837
6.396064,12.926936016849744,0.08211516086599119
6.398443999999999,12.922285876624459,0.08193696702769243
6.400844,12.91656480121254,0.08176471223849502
6.403228,12.918200502480225,0.08155481130827023
6.405611999999999,12.9257027363603,0.08132385219034324
6.408015999999999,12.935207070986795,0.0810845231825794
6.4104,12.944431866359569,0.08085290187570662
6.412779999999999,12.95286526579942,0.08062066787880036
6.415188,12.964743788224672,0.0803867281985991
6.417576,12.97205903064964,0.08018324100947032
6.419956,12.986683827925981,0.07996496854529221
6.422351999999999,12.991670208522573,0.07979944238043193
6.424739999999999,13.002383352104694,0.07961670936078333
6.427124,13.010535316432957,0.07945692748076821
6.429519999999999,13.019338907067281,0.07930192775209312
6.431907999999999,13.033589721433412,0.07913760238554361
6.434288,13.046909370239765,0.07897592882690319
6.436692,13.062882746098593,0.07881059817512423
6.439075999999999,13.081649618636758,0.07863894360180113
6.44146,13.108052807108251,0.07842405967467828
6.443855999999999,13.134595765206605,0.07820579137860276
6.446239999999999,13.162069888864737,0.07798592953588915
6.448624,13.190614947709507,0.07776074203571168
6.451028,13.21101183394175,0.07757135865533274
6.453411999999999,13.22875499312152,0.0773862852220783
6.455796,13.245007908234072,0.07721701814074569
6.458192,13.259678031480785,0.077045408729269
6.460579999999999,13.274208385100644,0.076877589461084
6.46296,13.279147543868993,0.07673653060512538
6.465364,13.290000457077978,0.07655508324977385
6.467752,13.29689639062237,0.07636749757578983
6.470131999999999,13.3084953737939,0.07614818496349453
6.472528,13.32037389621915,0.07592323432382023
6.474916,13.325362172673612,0.07569994558310382
6.477296,13.330769758008657,0.07546679456218175
6.479696,13.33194082442539,0.07523383808632281
6.482079999999999,13.33418282602876,0.07499600883800463
6.484464,13.340708568378684,0.07473789967030438
6.486859999999999,13.344301044422416,0.07448870372981967
6.489244,13.344820484533091,0.07425210660544145
6.491628,13.34827319094996,0.07400711807279058
6.494023999999999,13.349072170314354,0.07376418326267167
6.496412,13.349871149678748,0.07352141254673084
6.498796,13.349738963483361,0.07327968046162782
6.501191999999999,13.34238977023523,0.07306638720018505
6.503576,13.337741525867813,0.07282957750334697
6.505971999999999,13.333093281500398,0.07259255444945402
6.508368,13.328445037132985,0.07235561087700196
6.510756,13.333807296497652,0.07208407903495068
6.513136,13.333535340675407,0.07184496275245154
6.515531999999999,13.336428968584837,0.07161297585155871
6.517919999999999,13.335830251680632,0.07140260338290166
6.5203,13.331878959589648,0.07121066466870479
