Time,Force,Position
7.818788,0.05232702033431084,0.0
7.821192,0.05331488095396818,0.0
7.82358,0.0548976728198044,0.0
7.825956,0.05616507269318216,0.0
7.82836,0.05695646862610027,0.0
7.830748,0.05836363812633824,0.0
7.833128,0.06070197318635453,0.0
7.835523999999999,0.06490263936592747,0.0
7.837911999999999,0.0691033055455004,0.0
7.840292,0.06943953985909983,0.0
7.842684,0.0683119096125823,0.0
7.845072,0.06704450973920453,0.0
7.847467999999999,0.0628438435596316,0.0
7.849864,0.055430371820143064,0.0
7.852247999999999,0.04522340340131958,0.0
7.854628,0.036087370169134624,0.0
7.857023999999999,0.031095308056643588,0.0
7.859408,0.026103245944152545,0.0
7.861803999999999,0.023113284578078354,0.0
7.8642,0.021194258398642692,0.0
7.866584,0.019275232219207034,0.0
7.868964,0.018287371599549695,0.0
7.871359999999999,0.015017870979755083,0.0
7.873747999999999,0.013750471106377324,0.0
7.876128,0.012483071232999562,0.0
7.878532,0.011075901732761594,0.0
7.880915999999999,0.008737566672745303,0.0
7.8833,0.004536900493172371,0.0
7.885695999999999,0.00033623431359943915,0.0
7.88808,0.0,0.0
7.890476,0.0,0.0
7.89288,0.0,0.0
7.895263999999999,0.0,0.0
7.897644,0.0,0.0
7.900048,0.0,0.0
7.902436,0.0026178743137367107,0.0
7.904816,0.0056078356798109005,0.0
7.907220000000001,0.00845802741902488,0.0
7.909604,0.017034982143768994,0.0
7.911984,0.025751706495373318,0.0
7.914388000000001,0.03339749566033911,0.0
7.916772,0.03904118407888805,0.0
7.919155999999999,0.04575580768407552,0.0
7.921559999999999,0.04846622979642929,0.0
7.923944,0.05010571672214453,0.0
7.926323999999999,0.05388707402113683,0.0
7.92872,0.05752866169326892,0.0
7.931108,0.05930791824584437,0.0
7.933488,0.06509137629125353,0.0
7.935879999999999,0.071805999896441,0.0
7.938267999999999,0.08145388980782363,0.0
7.940647999999999,0.09324365009248334,0.0
7.943052,0.10610434556378158,0.0
7.945435999999999,0.11789410584844127,0.0
7.947815999999999,0.12754199575982392,0.0
7.95022,0.13364084579769153,0.0
7.952603999999999,0.13764504729052524,0.0
7.954984,0.14272018396999744,0.0
7.957380000000001,0.1389955217308842,0.0
7.959768,0.13312898911849386,0.0
7.962147999999999,0.12740222613296373,0.0
7.964551999999999,0.12460872945362877,0.0
7.966939999999999,0.1216754631474336,0.0
7.96932,0.12274639833407214,0.0
7.971716000000001,0.12381733352071067,0.0
7.9741,0.12381733352071067,0.0
7.976483999999999,0.12716990870748648,0.0
7.978887999999999,0.13345575020045744,0.0
7.981272000000001,0.13173318870776102,0.0
7.983651999999999,0.12707736090886942,0.0
7.986056,0.12135059792333927,0.0
7.988443999999999,0.11255079900475376,0.0
7.990824,0.10454239601908633,0.0
7.993219999999999,0.09681353228713935,0.0
7.995607999999999,0.09229747411510797,0.0
7.997987999999999,0.0848481496368814,0.0
8.000384,0.08112348739776813,0.0
8.002772,0.07753859478551506,0.0
8.005148,0.077446046986898,0.0
8.007544,0.08135770068111464,0.0
8.009932,0.08634028956196983,0.0
8.012328,0.09467545362960081,0.0
8.014724,0.10501271844364862,0.0
8.017108,0.11735208400411332,0.0
8.019487999999999,0.12969144956457798,0.0
8.02188,0.1397491751249054,0.0
8.024268,0.14338128956540158,0.0
8.02666,0.1428694328862039,0.0
8.029064,0.14822410881939657,0.0
8.031452,0.1555808854990061,0.0
8.033832,0.15627973363330713,0.0
8.036232,0.15725812102132858,0.0
8.03862,0.15344091098359827,0.0
8.041,0.14938001443088553,0.0
8.043404,0.14424818269153428,0.0
8.045788,0.14494703082583532,0.0
8.048168,0.14350400858685933,0.0
8.050571999999999,0.14085028153438456,0.0
8.052956,0.13684608004155085,0.0
8.055336,0.13083977780230027,0.0
8.057739999999999,0.12393816274200949,0.0
8.060124,0.11275280693516453,0.0
8.062504,0.0986341848221244,0.0
8.0649,0.08251346196266741,0.0
8.067288,0.06746367428984898,0.0
8.069668,0.05362459143052926,0.0
8.072072,0.04299831413112515,0.0
8.07446,0.03544507276477641,0.0
8.07684,0.02602950027887103,0.0
8.07924,0.016613927792965655,0.0
8.081624,0.013540891859910276,0.0
8.084007999999999,0.010700173352332162,0.0
8.086404,0.01093249077780943,0.0
8.088792,0.015272926584242574,0.0
8.091172,0.01560916089784201,0.0
8.093568,0.013642912890163198,0.0
8.095952,0.011816434509344602,0.0
8.098348,0.010129725755386211,0.0
8.100744,0.009374182561206139,0.0
8.103128,0.00861863936702607,0.0
8.105508,0.00861863936702607,0.0
8.107904,0.00861863936702607,0.0
8.110288,0.00861863936702607,0.0
8.112668,0.00861863936702607,0.0
8.115072,0.00861863936702607,0.0
8.11746,0.00861863936702607,0.0
8.11984,0.00861863936702607,0.0
8.122244,0.00861863936702607,0.0
8.124632,0.008618639367026072,0.0
8.127012,0.008618639367026072,0.0
8.129415999999999,0.007071700239927891,0.0
8.131804,0.005944069993410342,0.0
8.134184,0.004676670120032582,0.0
8.13658,0.00033623431359943915,0.0
8.138968,0.0,0.0
8.141348,0.0,0.0
8.143744,0.0,0.0
8.146128,0.0,0.0
8.148524,0.0,0.0
8.15092,0.0,0.0
8.153304,0.0,0.0
8.155688,0.0,0.0
8.15808,0.0,0.0
8.160468,0.0,0.0
8.162848,0.0,0.0
8.165244,0.0,0.0
8.167632,0.0,0.0
8.170028,0.0,0.0
8.172424,0.0,0.0
8.174812,0.0,0.0
8.177192,0.0,0.0
8.179584,0.0,0.0
8.181972,0.005726756927819775,0.0
8.184352,0.030815311582273176,0.0
8.186748,0.0910029306809746,0.010465209976592156
8.189131999999999,0.18387010045479585,0.0191040189472933
8.191528,0.2947977112010042,0.02753746743562925
8.193923999999999,0.42476225444975174,0.03598327064104698
8.196308,0.5779530272911065,0.04440605315432267
8.198688,0.7578623745387045,0.05263845247390495
8.201084,0.9627224087294752,0.06063915802754641
8.203467999999999,1.1857826535194933,0.0685767296083659
8.205864,1.4280668222671542,0.07648812848758921
8.20826,1.6901793194502723,0.08443472040933132
8.210644,1.9798490088007947,0.09224859231102107
8.213028,2.293677989161572,0.09995163930874953
8.215428,2.621051352322705,0.10770366378379102
8.217816,2.9611304805230323,0.11555014794780417
8.220196,3.328067952756464,0.12333760502183037
8.2226,3.7250312486125394,0.1309491093168516
8.224984,4.144153630590322,0.1384215211875163
8.227364,4.576729743427715,0.14581643654084117
8.229768,5.012843533106829,0.15313895933141705
8.232156,5.437883467298696,0.16034356684627696
8.234536,5.824705975142885,0.15706619945787298
8.23694,6.169165189661834,0.15570259940158446
8.239328,6.491419992088703,0.15460517126482362
8.241708,6.790913199773921,0.1535382151422866
8.244104,7.068717643761991,0.152424347419581
8.246492,7.318687252186807,0.15145656030310772
8.248872,7.536024531764744,0.15078480603821603
8.251275999999999,7.730598320743162,0.15025942695554398
8.253664,7.909765395801665,0.1497439037255955
8.256044,8.07096647354427,0.1491711999554714
8.25844,8.19958244426824,0.1487714819207533
8.260824,8.296729569130589,0.14856683117322034
8.263208,8.381076485297257,0.14834369814974216
8.265604,8.459979969447854,0.14797619682470542
8.267992,8.509930461020312,0.1476687381372291
8.270372,8.526829314865315,0.1475496944268428
8.272764,8.518775585909276,0.14760436319502226
8.275152,8.496476730160708,0.14774144031552364
8.277548,8.470268116575793,0.1478601806918333
8.279944,8.433304825154117,0.14808242408254912
8.282332,8.388705217799114,0.1484405930378908
8.284711999999999,8.352438878653873,0.14874401878679747
8.287108,8.327998152532027,0.14891427444721272
8.289492,8.312310003500524,0.14899938947473598
8.291876,8.295224158200421,0.14914778813996496
8.294272,8.274738515885298,0.14939130616858057
8.29666,8.264029164018913,0.14956930786422684
8.29904,8.261840071817392,0.1496400063745096
8.301435999999999,8.255554230324421,0.14974029155874555
8.303824,8.25117794177925,0.14978251254139183
8.30622,8.251225163607492,0.1497477459025491
8.308616,8.25937333622002,0.14962420760284442
8.311,8.270222457713267,0.1494392727733006
8.31338,8.276090886183527,0.14926325238162502
8.31578,8.282238853907506,0.14907344162570685
8.318164,8.288247052004627,0.1488885810756045
8.320548,8.29634989864678,0.14870166573136262
8.32294,8.311575308685196,0.14847473108448284
8.325327999999999,8.322516977977056,0.14832141505811794
8.327708,8.338626331747008,0.14812317714208692
8.330108,8.368423629659915,0.14776826606101545
8.332492,8.399803719438657,0.14740178885542268
8.334892,8.42601612473931,0.14708924375517485
8.337288,8.448598311457337,0.14675681113082753
8.339672,8.465500957018074,0.14645868478389554
8.342052,8.487338969631425,0.1460908932472215
8.344448,8.512948866312135,0.14565127802623634
8.346832,8.541679020754142,0.14514292088992134
8.349228,8.574740137770942,0.14453888873800624
8.351624,8.596999355122746,0.14407261908676536
8.354008,8.619443668071781,0.14366131240598404
8.356387999999999,8.642260068073153,0.14326562754643396
8.358792,8.666147403261164,0.14285908243564455
8.36118,8.689383112143117,0.14245421183556717
8.36356,8.71191997289077,0.1420783314812318
8.365956,8.735992403676015,0.14172464058403036
8.368344,8.76607113670051,0.14129366045733044
8.370724,8.793311047075298,0.14084041780523426
8.37312,8.820737948905188,0.14035142812710805
8.375504,8.842158548495828,0.1399404435682068
8.3779,8.858364241780135,0.13960313352962397
8.380296,8.878062279878078,0.13920806061891
8.382684,8.894082877565152,0.13882015435950315
8.385064,8.908473461558145,0.13847404896724155
8.387459999999999,8.931197313760903,0.1380732624777505
8.389848,8.95680721044161,0.1376731980602695
8.392228,8.975991496002488,0.13736937274760455
8.394632,8.987726457085136,0.13714398185344667
8.39702,8.992104641488178,0.13701922455156562
8.399396,9.004583776675501,0.1368219371826092
8.4018,9.02106711335566,0.13657673957449395
8.404188,9.0398793118642,0.13626548892616405
8.406568,9.051568946976476,0.135984602640563
8.408972,9.059813459103362,0.1357286220148729
8.411356,9.07378473421577,0.13541341162415613
8.413736,9.09124835414182,0.13504164308316582
8.41614,9.102101267350806,0.13470868115972334
8.418528,9.109509057574394,0.13440156809923617
8.420907999999999,9.115519151529382,0.13415301578464206
8.423304,9.123204585148827,0.1339228529606186
8.425688,9.136244694701462,0.13361977042046846
8.428068,9.144396659029729,0.13334168841789648
8.430464,9.151198148917635,0.13308867746721764
8.432852,9.155158920297964,0.1328931363102025
8.435228,9.154324094252539,0.13274767214562008
8.437628,9.147809727049829,0.1326289398335662
8.440012,9.141761890555944,0.13246059995858359
8.442408,9.13357218368878,0.13232106630882876
8.444804,9.126406190180017,0.13219864223148897
8.447192,9.118309031111469,0.1320851182222272
8.449572,9.106115122751472,0.13199236389672267
8.451967999999999,9.089777243271781,0.13195157731137813
8.454356,9.074695394575965,0.13194891748503024
8.456736,9.06072980703716,0.13199049668862659
8.459132,9.046484680244632,0.13204227001880542
8.46152,9.031076070466852,0.1320814221945112
8.463916,9.017250252554907,0.13211468668202567
8.466312,9.002166508001219,0.1322001131813904
8.4687,8.986431137141473,0.13228277484850257
8.47108,8.975306268110245,0.13226359554130984
8.473476,8.958873944974068,0.13228374132302514
8.475864,8.943744874450005,0.13230969095979692
8.478244,8.931129761351558,0.1323218294393525
8.48064,8.924940259372944,0.13224752365926223
8.483028,8.922382871834825,0.13211255186911297
8.485412,8.925412477655376,0.13192653641289745
8.487808,8.929605566461182,0.13175287764492813
8.490196,8.938966339745077,0.1315458942411579
8.492576,8.957965529708721,0.13121373512693688
8.494976,8.982179625978695,0.13082112218745728
8.497364,9.009047449301145,0.13041128125666407
8.499744,9.039500165235847,0.12997651894865664
8.502148,9.073584995611045,0.129484032778496
8.504532,9.109858918187765,0.1289329237179523
8.506912,9.141337243338732,0.128429222252708
8.509307999999999,9.173187655542035,0.12794241859153124
8.511696,9.205969233305119,0.12744944413421752
8.514092,9.238238954389006,0.12694496575255526
8.516484,9.27171938028639,0.1264214433314181
8.518872,9.302870944355394,0.12596619061227596
8.521252,9.338910653648767,0.12549212586684372
8.523648,9.376812694061696,0.12500440174989536
8.526036,9.41885870559432,0.12447279886352203
8.528416,9.459554242686583,0.123971515522679
8.53082,9.500482097204324,0.12349413049325005
8.533208,9.538197146162151,0.12305918361916529
8.535588,9.572187532880863,0.12265363842464098
8.537992,9.601010235121485,0.12227728672024742
8.540376,9.619682664003163,0.12201175229179576
8.542756,9.629415524339395,0.12183560973555088
8.545152,9.634352787249878,0.12170174407153811
8.54754,9.635565387921247,0.12159763064033333
8.54992,9.634915657473059,0.12150839613919195
8.552316,9.633846618144288,0.12143544073015972
8.554704,9.636921549935215,0.1213177093945422
8.5571,9.640136251353,0.12119502113214739
8.559504,9.642419787211006,0.121079717608269
8.561892,9.647496819748348,0.12094304149951805
8.564271999999999,9.654436183405247,0.12079291690101189
8.566668,9.657278797770694,0.12065630384147974
8.569052,9.65616443247155,0.12052861796526931
8.571436,9.652536109746793,0.12041151618258704
8.573832,9.642110088849865,0.120353832583641
8.57622,9.62595730496741,0.12034337321951236
8.5786,9.605288462912922,0.12036262473086894
8.580995999999999,9.581034728246179,0.12040531111819766
8.58338,9.56157659100519,0.12040724314707435
8.585764,9.544911950443536,0.12038800165764471
8.588168,9.529178475441661,0.12036216114566675
8.590552,9.517961058611817,0.12030609722892038
8.592932,9.51354133995414,0.12018918751622418
8.595336,9.511403261296602,0.12004195971519763
8.597724,9.510196348198843,0.11988787967553995
8.600104,9.508337808795023,0.11973032635315745
8.6025,9.501683671965454,0.11961293879767787
8.604887999999999,9.494377908829827,0.11949178418179937
8.607268,9.488143080880837,0.11935838730746046
8.609664,9.483398496999065,0.11919722745905412
8.612052,9.475441107557378,0.11907232096597307
8.614436,9.477214682594058,0.11886453607337179
8.616832,9.483364546175906,0.11863435091605024
8.61922,9.493239071996868,0.11837867516466262
8.621599999999999,9.507909195243585,0.11808473212408294
8.623996,9.530447951849105,0.11772279127772016
8.626384,9.562066046626935,0.11727890635183916
8.628767999999999,9.600621609203788,0.11677432764887374
8.631164,9.635452509541533,0.11629686746677703
8.633548,9.672425280252552,0.11579909352707174
8.635947999999999,9.710888295030793,0.11527306535420237
8.638344,9.750841553876251,0.11472340044141453
8.640732,9.784136884176402,0.11422559216067188
8.643112,9.815150574476412,0.11375703343627533
8.645512,9.844953559962926,0.11330654506890389
8.647896,9.871403970262666,0.11289404884532211
8.65028,9.901579042801519,0.1124560189722464
8.652676,9.93040364090001,0.11204016957541542
8.655068,9.954153102319031,0.11167012573124642
8.657448,9.974829527804994,0.11133096024956345
8.659851999999999,9.998067132544817,0.11095457999422947
8.662236,10.012644707992914,0.11064635548777702
8.664616,10.02270622526898,0.11036439703194038
8.667019999999999,10.027040979559517,0.11012420311010623
8.669408,10.031143416424577,0.1098660507644793
8.671788,10.029938399184685,0.10963417692006787
8.674192,10.01900241746643,0.10947603727249695
8.676575999999999,10.00527293906884,0.10933509362884732
8.678956,9.994756266231164,0.1091617669216717
8.68136,9.983308427833713,0.10899415490167627
8.683748,9.972791754996038,0.10882058869347827
8.686128,9.958550419919248,0.10866902788264449
8.688532,9.947242351148656,0.10849543362020299
8.69092,9.935422425698867,0.10831215539629545
8.693299999999999,9.92309064356988,0.10811936640550328
8.695704,9.917464011814443,0.10785391052924517
8.698091999999999,9.910254588193173,0.10758965296252772
8.700472,9.904535408639118,0.10730009595194455
8.702868,9.904031135391397,0.10696282701775407
8.705256,9.900453826210622,0.10665056295659617
8.707632,9.892732545910153,0.10637469952218995
8.71004,9.887525223035297,0.10609161678596066
8.712424,9.881246964973801,0.105817903984696
8.714803999999999,9.878972908405142,0.10551180875067823
8.717212,9.870924867022708,0.10527247160358225
8.719596,9.86418007825239,0.10504169510097662
8.721976,9.859018081347909,0.10480878473496663
8.724371999999999,9.852645379629928,0.10459125580657525
8.72676,9.845853369031367,0.10438903014586112
8.72914,9.834917387313114,0.10422322277998491
8.731544,9.825564197460695,0.10405658890695597
8.733932,9.816583094660611,0.10390408401138301
8.736312,9.80746222223367,0.10375643834531419
8.738716,9.801646703165261,0.10360220497500074
8.741104,9.796343040776051,0.10345740197179898
8.743484,9.785684702453647,0.10336375215107359
8.745892,9.778471487116635,0.10325892700705695
8.74828,9.772421754764878,0.10316835349439868
8.75066,9.76595271353254,0.10309249339471199
8.753055999999999,9.764279269725956,0.10298586220912392
8.755444,9.769263754464681,0.10283874885444175
8.757824,9.774388008830263,0.10268687871670064
8.760232,9.787241126927793,0.10248557377221419
8.76262,9.79581050427877,0.1023237920187429
8.765004,9.807592687189661,0.10213114240575795
8.7674,9.819654409354275,0.1019290359710871
8.769784,9.83572033301172,0.10169733942156747
8.772164,9.851786256669168,0.10146549174100773
8.77456,9.866921014766834,0.10123940031258005
8.776947999999999,9.886711600663396,0.1009881986246632
8.779328,9.903429150626899,0.1007623315345552
8.781728,9.924570210963818,0.10049351783638102
8.784112,9.945711271300736,0.10022527052128156
8.786491999999999,9.963407208652264,0.09996748203999309
8.788904,9.983384786003924,0.09968672989036245
8.791292,10.006155860034923,0.09939162044576251
8.793671999999999,10.02427110626703,0.09912159084183343
8.796068,10.042945431006581,0.09883420412472195
8.798456,10.060176733507152,0.09854254621493808
8.800839999999999,10.078618740821227,0.09823845582367191
8.803236,10.091333985149767,0.0979682953648933
8.805628,10.102186898358749,0.09770716140435325
8.808008,10.107033509328483,0.09748920668026592
8.810404,10.119888523283882,0.09721681034851551
8.812792,10.136607969105253,0.09692284531892555
8.815172,10.154258580486406,0.09662547254381297
8.81758,10.169767321494282,0.09634747112652178
8.819968,10.187417932875434,0.09605201077727944
8.822352,10.204277148323667,0.09575652062315305
8.824748,10.220764276719562,0.09544850408250649
8.82714,10.240883519555954,0.09510088905256683
8.82952,10.256067395339734,0.09478521066043162
8.831923999999999,10.269388940003957,0.09447774753418181
8.83432,10.288716786907433,0.0941329963484594
8.8367,10.303249036385157,0.0938141476142698
8.839096,10.314848019556683,0.09351230136740117
8.841484,10.328728642728349,0.09318842700745497
8.843868,10.336882502914483,0.09289382765100342
8.846264,10.34862125571287,0.09258870974969607
8.848656,10.3584976773917,0.09229299045509257
8.851036,10.370376199816947,0.09198452347091594
8.853432,10.38719008929481,0.09164802053246114
8.85582,10.403631891720334,0.09129685973859855
8.858204,10.411553434480993,0.09098671642781826
8.860616,10.418683581308732,0.0906779796750143
8.863004,10.419016029964302,0.09040409718904735
8.865384,10.420559183433372,0.09011774299139061
8.867784,10.421822797648721,0.089841190153473
8.870172,10.422015476677434,0.08957239334712563
8.872552,10.42272001238534,0.0893143046961999
8.874952,10.41848918104064,0.08908381626620147
8.87734,10.419565803800884,0.08884068521507621
8.879719999999999,10.423855232121046,0.0885732686271147
8.882116,10.419205091895762,0.0883563955622727
8.884504,10.420002175402288,0.08812247008748685
8.886887999999999,10.42429160372245,0.08785562857478071
8.889284,10.428161723162033,0.08760248453284313
8.891672,10.437339296706563,0.08733674583789286
8.894055999999999,10.443211516892559,0.08707286596987061
8.896452,10.445731161891782,0.08683664192133067
8.89884,10.449042202823925,0.08660181674213818
8.90122,10.447837185584035,0.08638024497975999
8.90362,10.451660083195375,0.08615655815334415
8.906008,10.46228067897888,0.08590085174157354
8.908392,10.469176612523274,0.08565900671763338
8.910788,10.486455136852088,0.08537638545627736
8.913176,10.500428307822371,0.0850941216551421
8.915556,10.509885420620622,0.08482343365862816
8.917968,10.52614023159104,0.0845226589521128
8.920356,10.53722735808337,0.08422818082206693
8.922736,10.551759607561095,0.08392956944205247
8.925148,10.561124172560728,0.08363799910377061
8.927536,10.566484536067529,0.08336773400724597
8.929931999999999,10.579014684798839,0.08308065394291254
