Time,Force,Position
7.017595999999999,0.0837264086829616,0.0
7.01998,0.08814991905637592,0.0
7.022359999999999,0.08670689681739993,0.0
7.024763999999999,0.08791760163089866,0.0
7.027151999999999,0.08712620569798056,0.0
7.029536,0.08496304624717183,0.0
7.031931999999999,0.08172895160972457,0.0
7.034319999999999,0.07635298659900024,0.0
7.036704,0.07190818714805423,0.0
7.0391,0.0696052580703853,0.0
7.041487999999999,0.06730232899271635,0.0
7.043868,0.06299729916863053,0.0
7.046263999999999,0.05762133415790619,0.0
7.048651999999999,0.05131420358740355,0.0
7.051031999999999,0.045007073016900906,0.0
7.053431999999999,0.04256437431237175,0.0
7.055819999999999,0.03905074042120407,0.0
7.058216,0.033674775410479744,0.0
7.06062,0.026017170399618147,0.0
7.063003999999999,0.018499335015616753,0.0
7.065388,0.011772895564533477,0.0
7.067784,0.004255060180532086,0.0
7.070172,0.00167259184914272,0.0
7.072552,0.00030082833125209466,0.0
7.074952,0.0,0.0
7.077335999999999,0.0,0.0
7.07972,0.0013717635178906252,0.0
7.082115999999999,0.001371763517890625,0.0
7.084503999999999,0.001371763517890625,0.0
7.086884,0.0013717635178906252,0.0
7.089288,0.0013717635178906252,0.0
7.091676,0.0013717635178906252,0.0
7.094056,0.005164936662778732,0.0
7.096451999999999,0.012031145740722221,0.0
7.098839999999999,0.02075968593822235,0.0
7.10122,0.025484024642888778,0.0
7.103619999999999,0.030208363347555205,0.0
7.106007999999999,0.034001536492443314,0.0
7.108388,0.03458190407741583,0.0
7.110783999999999,0.03458190407741583,0.0
7.1131720000000005,0.03458190407741583,0.0
7.115556,0.03458190407741583,0.0
7.117951999999999,0.035302041289248555,0.0
7.120339999999999,0.04403058148674869,0.0
7.122719999999999,0.05676332317708252,0.0
7.125119999999999,0.06949606486741636,0.0
7.127507999999999,0.07778400710680416,0.0
7.129887999999999,0.09065651842399822,0.0
7.132284,0.10180646824849583,0.0
7.134672,0.11202525251321513,0.0
7.137055999999999,0.12303543271085254,0.0
7.139455999999999,0.13283490809499118,0.0
7.14184,0.1368391095878249,0.0
7.144219999999999,0.13777027514760323,0.0
7.146616,0.13390584328162972,0.0
7.149004,0.13711864884154534,0.0
7.151396,0.1386088929087645,0.0
7.153791999999999,0.14289263365531862,0.0
7.156179999999999,0.15239128070820518,0.0
7.15856,0.16139936015942571,0.0
7.160964,0.16919673479714756,0.0
7.163352,0.17499200868845252,0.0
7.165732,0.180206914994785,0.0
7.1681360000000005,0.1723382816359778,0.0
7.170524,0.15960553994564397,0.0
7.172903999999999,0.14687279825531013,0.0
7.1753,0.13721309249803162,0.0
7.177688,0.12434058118083757,0.0
7.180068,0.11319063135633997,0.0
7.182464,0.10406407135579089,0.0
7.184851999999999,0.09305389115815348,0.0
7.187232,0.08325441577401482,0.0
7.189627999999999,0.075457041136293,0.0
7.192015999999999,0.06796049482982329,0.0
7.194395999999999,0.06819281225530055,0.0
7.196792,0.0642811585610839,0.0
7.19918,0.06274369266562159,0.0
7.201563999999999,0.05841273009082431,0.0
7.203956,0.052871062702528296,0.0
7.206339999999999,0.049983122366707045,0.0
7.208724,0.04218574772898523,0.0
7.211119999999999,0.036390473837680265,0.0
7.213504,0.0304554303195151,0.0
7.215888,0.048270282861340205,0.0
7.218283999999999,0.10604830817893998,0.010721409434910295
7.220668,0.1923165870815917,0.019546931411215978
7.223048,0.2850992331869532,0.028802321268891547
7.225463999999999,0.38504597694321313,0.03883406353733519
7.227852,0.5076598717846392,0.04863811064969632
7.230243999999999,0.6582743045668927,0.05789762842334119
7.232647999999999,0.8422884252360987,0.0664189763856338
7.235035999999999,1.0454811438925735,0.0747244869038887
7.237416,1.2592377572149656,0.08322569700158856
7.23982,1.4875392817607078,0.09192959102180394
7.242203999999999,1.7323165595551318,0.10059563731617945
7.244584,1.9975756879489401,0.10912105740594102
7.246979999999999,2.277265038732509,0.117551501758581
7.249364,2.5729655079138043,0.12603308556858764
7.251744,2.8920319763145685,0.1344836982254785
7.25414,3.2406577376291534,0.14273138177030087
7.256527999999999,3.6248722790322105,0.15068467709119998
7.258908,4.035065012452577,0.15835590765821372
7.261312,4.455500567030503,0.1658986708658633
7.263695999999999,4.8545150873768215,0.17344100705243207
7.266079999999999,5.2050221383896575,0.17035038826128057
7.268471999999999,5.519449841712352,0.1692598647142593
7.270859999999999,5.828247121563875,0.16776335295687866
7.273251999999999,6.138680102683083,0.16536059482589602
7.275648,6.426680146000473,0.16310788385040004
7.278036,6.675206732186313,0.16143633329120732
7.280415999999999,6.87443255724788,0.1607064136102087
7.282819999999999,7.046424159508272,0.16036805755922798
7.285207999999999,7.2126927904988705,0.15982759958973902
7.287583999999999,7.3739864160400925,0.15892266204884156
7.289984,7.518479423108538,0.1579321526782056
7.292368,7.640768018084899,0.1571199192841083
7.294748,7.742525644775767,0.1565782438628758
7.297151999999999,7.8291088749721975,0.156060896971702
7.299536,7.890930305538429,0.15553552355489111
7.301919999999999,7.9088075467714525,0.1553206985925876
7.304323999999999,7.890558218486092,0.15550835964955673
7.306708,7.847586728967299,0.15601966641710902
7.309087999999999,7.799959411649614,0.1565727528341212
7.311491999999999,7.754521186533449,0.15704694517586845
7.313879999999999,7.710340888059025,0.1574741861795697
7.31626,7.669326173316275,0.1578952405896638
7.318655999999999,7.631756581558915,0.15827447116727458
7.321043999999999,7.591486040920841,0.15870557516971645
7.323423999999999,7.552564078865252,0.15920121398060078
7.325828,7.528399100281389,0.15960535517004534
7.328215999999999,7.524485550729305,0.15981186831663816
7.330596,7.5428274268132816,0.15966656040882443
7.332991999999999,7.567270048792997,0.15935566395259987
7.335379999999999,7.576162395510199,0.1592506079844344
7.337759999999999,7.569317475509787,0.15939129399319374
7.340156,7.558560901815161,0.15963266636643736
7.342544,7.5600039240541355,0.15962804370873965
7.344923999999999,7.570528180323287,0.1593669308273913
7.347327999999999,7.58054057991324,0.15909776722220048
7.349712,7.6024239184969655,0.1587333949512739
7.352095999999999,7.627006310103542,0.158392850411461
7.354492,7.654661737643171,0.157998082318024
7.35688,7.679151581451126,0.1576365754562787
7.359259999999999,7.701964189736761,0.15736387674488392
7.361656,7.731944687389033,0.15709925149939444
7.364044,7.771329388437706,0.1567256045345216
7.366439999999999,7.8154171391135145,0.15626075059628444
7.368831999999999,7.857457463072529,0.1557774303509899
7.371219999999999,7.8941450069562205,0.15528996794663663
7.3736,7.917424145950678,0.15496387376913726
7.376004,7.936746305280543,0.1546668166450571
7.378392,7.942799829348037,0.15453349686370174
7.380772,7.936748201138411,0.15456196753390747
7.383167999999999,7.936423335914316,0.15450986177700257
7.385551999999999,7.9475973226316565,0.15435801017530165
7.387936,7.9784655557312005,0.1539364170874817
7.39034,8.013897068831021,0.15344306359655469
7.392728,8.040900870064592,0.15310484010996675
7.395108,8.067438140589339,0.15282260804817135
7.397511999999999,8.099143095592177,0.15249289256652554
7.399899999999999,8.147983013581232,0.15187844055190822
7.402279999999999,8.197196914480493,0.15119370900429746
7.404676,8.241382900528523,0.15055314547297285
7.407064,8.285568886576552,0.14990836911726696
7.409443999999999,8.328311850385608,0.1492587902375544
7.411847999999999,8.369798783410788,0.14858008862594346
7.414235999999999,8.404442692293427,0.14794572381104978
7.416615999999999,8.428424471137925,0.14745007155028286
7.419012,8.451892497445357,0.1470370601188476
7.421396,8.487930310880857,0.1465165193665381
7.423779999999999,8.533187232115527,0.14586538284121908
7.426176,8.580074167044277,0.14517702963361387
7.428559999999999,8.628311576413385,0.1444603423143796
7.430944,8.673708267274915,0.14380890817649997
7.433339999999999,8.72310915962928,0.1431051633169734
7.435727999999999,8.761290739295928,0.14248761472249316
7.438108,8.788113236648002,0.14195362562010744
7.440503999999999,8.811630380641546,0.14144091610920523
7.442891999999999,8.836450777247205,0.1409311993926091
7.445271999999999,8.861410943479724,0.14042229554701668
7.44768,8.874173409636507,0.14002497038917056
7.450063999999999,8.88255958724812,0.1396667428101901
7.452444,8.890619003777768,0.13935068282279087
7.454848,8.90594075333054,0.1389988911575712
7.457236,8.93406650329473,0.13850081008311446
7.459619999999999,8.960377143967609,0.13799483318348912
7.462016,8.98347497908057,0.13753657458916088
7.464404,9.010901880910462,0.13706990434547833
7.466783999999999,9.048339286472435,0.13648203993696492
7.469187999999999,9.087733466810452,0.13582122481732023
7.471575999999999,9.11306761595318,0.13527389117844915
7.473955999999999,9.125737534311346,0.13486199448384412
7.476352,9.133796950840996,0.13455186982289866
7.47874,9.147955217408512,0.13419571517437556
7.481119999999999,9.159367209124937,0.13383776441541634
7.483516,9.16677499934853,0.13352768935289883
7.485904,9.169013209236162,0.13334284791134218
7.488284,9.173159076213723,0.13319774040861732
7.490679999999999,9.180098439870623,0.1330258316457748
7.493067999999999,9.181218492743373,0.13288832633642494
7.495452,9.17791503524271,0.13281590709428426
7.497847999999999,9.173865507779501,0.13280502382686393
7.500235999999999,9.17740507442138,0.13271667647249222
7.502632,9.175684408786553,0.13263842124614478
7.505027999999999,9.159763942329576,0.13267067815611744
7.507415999999999,9.14156183587246,0.13273628160811912
7.509796,9.124895299452936,0.13282777152417233
7.512195999999999,9.11665647489966,0.13280979878975283
7.514583999999999,9.105391836241573,0.13279610208483508
7.516964,9.086258564224678,0.1328645344757824
7.519363999999999,9.07825205709688,0.1328648803830324
7.521751999999999,9.086866760418228,0.13272216402580073
7.524132,9.10418871485955,0.1324621590973627
7.526536,9.118112768143718,0.13219426098941936
7.528924,9.130965886241249,0.13194138975864408
7.5313,9.14912645844373,0.13165171128818406
7.533707999999999,9.173852411392902,0.1312714560464388
7.536092,9.202257700610817,0.1308031884167985
7.538475999999999,9.22605438385808,0.1303452329291864
7.540872,9.250782232665124,0.1298783961705956
7.54326,9.279746600390474,0.12938564382637413
7.545643999999999,9.312622621810045,0.12882619002809667
7.54804,9.341681433191884,0.12827928763071195
7.550424,9.370041396439422,0.1277599961831189
7.552804,9.40086809528433,0.1272550442581872
7.555208,9.432066881181576,0.1267647648757584
7.557592,9.46145055778751,0.1262588918203819
7.559972,9.481103269915081,0.12585280499800175
7.562367999999999,9.493911062042239,0.12554465199141443
7.564752,9.510024207527927,0.12522077128102976
7.567131999999999,9.52096966853553,0.12493083323470863
7.569535999999999,9.523302322079648,0.1246933534517871
7.571923999999999,9.520047982265096,0.12450307701714979
7.574308,9.51781735580894,0.12433046265495676
7.576708,9.515167420472205,0.1241743516711284
7.579096,9.507721887709717,0.12406198484608201
7.581476,9.501347290133868,0.12393660807114497
7.583871999999999,9.49199220442358,0.12386958853465367
7.586259999999999,9.489527364684077,0.12376472560931832
7.588644,9.487714151250636,0.1236632018567753
7.591044,9.485808390018574,0.12353679492229833
7.593432,9.478827492107039,0.12346310332705455
7.595812,9.469145645314788,0.12343601062283825
7.598208,9.458672402589617,0.12341093317136126
7.600595999999999,9.451459187252608,0.12331719324642094
7.602979999999999,9.445456676729096,0.12320542115605676
7.605383999999999,9.44089718844456,0.12309506010997215
7.607768,9.44420633351883,0.12291070634860195
7.610147999999999,9.455291564153292,0.1226273115021014
7.612551999999999,9.465864938108556,0.1223356903571955
7.614939999999999,9.474948067996602,0.1220725805809538
7.617319999999999,9.49092144385543,0.12177496521169508
7.619719999999999,9.508477611580098,0.12147377349228165
7.622104,9.525521922625567,0.12116450759284601
7.624483999999999,9.542985542551614,0.12083965488935565
7.626887999999999,9.563382428783857,0.12048822466339004
7.629275999999999,9.578424639082908,0.12019884059592183
7.631655999999999,9.5952366327029,0.1198713674997559
7.63406,9.604878841098387,0.11959052138827535
7.636448,9.614521049493872,0.11930986359826205
7.638828,9.626257906434391,0.11903641418511286
7.641223999999999,9.638646389680968,0.11876579317070156
7.643611999999999,9.655178844047239,0.11845202325335584
7.645992,9.675855269533203,0.11809558492225343
7.648387999999999,9.695553307631148,0.11777809883571493
7.650776,9.713528784236393,0.11746967872727464
7.653155999999999,9.73150426084164,0.11716154325863071
7.655552,9.743473435207639,0.11691086344295944
7.65794,9.749948164013581,0.11672562568582966
7.66032,9.755491727259749,0.11654715891541038
7.662723999999999,9.76387600901349,0.11631937531074929
7.665108,9.767092606289143,0.11611665684083908
7.667487999999999,9.772171534684354,0.11590161857804251
7.669884,9.777250463079564,0.11568692487834845
7.672271999999999,9.782469161101638,0.11546749961150292
7.674652,9.788246937631149,0.11522858778208471
7.677047999999999,9.797517058974297,0.11494443804114617
7.679435999999999,9.805296936250226,0.11468787865707224
7.681832,9.816801475765267,0.11440605111626405
7.684236,9.82793392822797,0.11411031355995846
7.68662,9.83310730027967,0.11383795430070029
7.689,9.839770916398585,0.11353889759872263
7.691404,9.843641035838166,0.11325920739134927
7.693792,9.844438119344693,0.11300875543417233
7.696171999999999,9.844071719865964,0.11274537851079273
7.698568,9.842913924454315,0.11248254078443472
7.700956,9.842315207550108,0.11219961552709214
7.703336,9.845069065832677,0.11187822122074251
7.705731999999999,9.850384103369104,0.11151902790154483
7.708119999999999,9.856630306465307,0.11115390266195652
7.7105,9.859523934374735,0.11082729914194281
7.712895999999999,9.863348727843942,0.11049489913100789
7.715284,9.865730499074175,0.1101603338494116
7.717663999999999,9.869183205491044,0.10981564780603019
7.720067999999999,9.872775681534776,0.10946655179428878
7.722455999999999,9.87301558239173,0.109154939647882
7.724836,9.875117814368242,0.10883288057089614
7.727231999999999,9.876847959292414,0.10849661889892001
7.729619999999999,9.875132981231195,0.10817281584948232
7.731999999999999,9.875140564662672,0.10784310204055235
7.734396,9.878872810333263,0.10749010690476037
7.736779999999999,9.882325516750132,0.10714745224343247
7.73916,9.885778223167,0.106804508109243
7.741564,9.890162095143648,0.10645593626224885
7.743952,9.894126658239715,0.1061220619232948
7.746335999999999,9.89953424357476,0.10579171508007944
7.74874,9.907595555962276,0.10545165577147336
7.751128,9.913235458722797,0.10514269361813222
7.753511999999999,9.915243247042822,0.10487898761010243
7.755908,9.917111265735988,0.10462045586175846
7.758296,9.916977183682734,0.10437637447249012
7.760676,9.913630296069567,0.10416301621885785
7.763071999999999,9.905859898082984,0.10399574852071546
7.765459999999999,9.893805759349847,0.10386997103731145
7.767844,9.878119506176214,0.1037902847852331
7.770239999999999,9.8632246489355,0.10370997125442544
7.772627999999999,9.846327690948367,0.1036450206456804
7.775008,9.82994258964043,0.10358915823117697
7.777412,9.81765423762395,0.10352602109791734
7.7798,9.802944475980466,0.10349329696465298
7.78218,9.791819606949238,0.10344378780842392
7.784575999999999,9.781905442731507,0.10337887263786272
7.786963999999999,9.77171173926006,0.10332366658340808
7.789344,9.75965570466905,0.1032787249411683
7.791739999999999,9.751324332317159,0.10321282044612123
7.794127999999999,9.743272499218989,0.10313693108159845
7.796507999999999,9.730285299068203,0.10309628476483783
7.798904,9.71743786854428,0.10305059819135434
7.801292,9.711947214699961,0.10293961142007454
7.803671999999999,9.70566516492273,0.10282864902445464
7.806075999999999,9.706320582944523,0.10266746829322065
7.808463999999999,9.715915569511765,0.1024424485143274
7.810843999999999,9.731377088691396,0.10217725229566188
7.813252,9.75098257899072,0.10187699394838745
7.815636,9.775802975596378,0.10153193686027252
7.818019999999999,9.802765242575312,0.10116777097947756
7.820416,9.827725408807828,0.10081845952204119
7.822804,9.85254580541349,0.10047456754362705
7.825184,9.873921079033753,0.10014138461730622
7.827584,9.897717762281015,0.09977940838577774
7.829972,9.917650013662307,0.09944442648460573
7.832352,9.93558016429718,0.09912495749715956
7.834752,9.956583350865108,0.09878233988521508
7.83714,9.982801443739366,0.0983982980575784
7.83952,10.003432543254958,0.09804336263483214
7.84192,10.024994808330325,0.09768506285891854
7.844303999999999,10.048419404525248,0.09731713435413818
7.846684,10.07398587109345,0.09693127406025352
7.849083999999999,10.097690006542097,0.09655913038818326
7.851467999999999,10.12432740829694,0.09617030144599956
7.853852,10.15203574523842,0.0957772818127805
7.856247999999999,10.169081952141758,0.09544807618315687
7.858635999999999,10.184685136806118,0.09511511594927735
7.861032,10.202569961470617,0.09476231272557835
7.863427999999999,10.220734325388838,0.09440290203918658
7.865815999999999,10.236105192627722,0.09405631123564012
7.868195999999999,10.253478160613023,0.09369667217746035
7.870595999999999,10.268476940799568,0.09333505715601959
7.872983999999999,10.28626921766545,0.09296140765779005
7.875363999999999,10.303130328971555,0.09259328306020854
7.877768,10.318268878784963,0.09222851129166498
7.880155999999999,10.335409529344787,0.09185191812868852
7.882536,10.351898553598552,0.09147240636122111
7.88494,10.365035002665545,0.0911249796601451
7.887328,10.382175653225369,0.09075279174967422
7.889707999999999,10.399316303785193,0.09038215191669925
7.892111999999999,10.415665558412096,0.09001105650849199
7.894499999999999,10.432014813039002,0.08964171368298879
7.896884,10.439284729493602,0.08932778280780922
7.899279999999999,10.443481610015148,0.08903489110652449
7.901667999999999,10.43780775643147,0.08879722776962823
7.904047999999999,10.438140205087041,0.08852288029554048
7.906444,10.43898451042181,0.08825886603398038
7.908832,10.432751578330691,0.08803858771545389
7.911211999999999,10.424376775866294,0.08783487460146999
7.913608,10.419866405267872,0.08761229061998073
7.915996,10.417358135415862,0.08737861002993003
7.918379999999999,10.418434758176106,0.08713503266251163
7.920771999999999,10.422584416869407,0.08687362928990386
7.923164,10.42552337074921,0.08662457567419439
7.925544,10.429253720561931,0.08637604921172722
7.927939999999999,10.430702430374517,0.08614786087350282
7.930327999999999,10.428938334627185,0.0859431371981744
7.932708,10.426382842946936,0.08573729004803841
7.935103999999999,10.422756416080048,0.08553947240907986
7.937491999999999,10.41284414772019,0.08538322159373245
7.939876,10.40265234010661,0.08523552017119226
7.942271999999999,10.388176791746474,0.08511860318144784
7.944659999999999,10.384363373424483,0.08495125691479578
7.947044,10.381620890289128,0.08477603689857217
7.949439999999999,10.38739866681864,0.08456593134143776
7.951827999999999,10.393268991146766,0.08437992873533531
7.954207999999999,10.399279085101758,0.08419013075996973
7.956604,10.410736402788554,0.08398491804179484
7.958995999999999,10.421914181221634,0.08378884070509666
7.961376,10.430810319654576,0.08361318669446509
7.963771999999999,10.434351782154325,0.08347557902198885
7.96616,10.436542770213714,0.083354571534721
7.968544,10.42737278010066,0.08330365387432669
7.970939999999999,10.417783481107026,0.08326590255527701
7.973328,10.412989779539142,0.08320777446332897
7.975707999999999,10.409267013157898,0.0831420223275708
7.978104,10.410991470508467,0.08306192712349673
7.980492,10.417371755657923,0.08296671113180962
7.982875999999999,10.42240156636702,0.08288767841657427
7.985272,10.437721420061923,0.08274750273181768
7.98766,10.453460582637407,0.08259431407276346
7.990055999999999,10.473203946705725,0.08241992276208923
7.992452,10.492155914841126,0.08224641103842957
7.99484,10.509245551856967,0.08207906286565006
7.997223999999999,10.524612627380115,0.08191453290762236
7.99962,10.536814119171588,0.08174468022004015
