Time,Force,Position
9.898832,0.3289461071141261,0.0
9.90122,0.31572279782212637,0.0
9.9036,0.31046066968755076,0.0
9.905995999999998,0.3046866848737775,0.0
9.908383999999998,0.2944891896865899,0.0
9.910764,0.290437766365513,0.0
9.913159999999998,0.27036953707310135,0.0
9.915547999999998,0.2564473796468004,0.0
9.917932,0.24187359591444169,0.0
9.920327999999998,0.2288826040479191,0.0
9.922712,0.2205946618085313,0.0
9.925107999999998,0.21617115143511695,0.0
9.927504,0.20774343956886893,0.0
9.929892,0.20467040363581354,0.0
9.932275999999998,0.20532202994187143,0.0
9.934672,0.2129111240469582,0.0
9.93706,0.2192895133385462,0.0
9.939443999999998,0.2315344352425246,0.0
9.94184,0.23754073748177518,0.0
9.944228,0.2451298315868619,0.0
9.946611999999998,0.25378986087858724,0.0
9.949008,0.26459176054358957,0.0
9.9514,0.26659386129000645,0.0
9.953779999999998,0.26566269573022816,0.0
9.956176,0.26808410535722565,0.0
9.95856,0.2742301772233364,0.0
9.96094,0.28545138576891943,0.0
9.96334,0.2973242206205603,0.0
9.965723999999998,0.30891751621848074,0.0
9.968108,0.317577545510206,0.0
9.970503999999998,0.32488710036157237,0.0
9.972891999999998,0.32740105778718687,0.0
9.975272,0.3304268718919991,0.0
9.977671999999998,0.32637544857092227,0.0
9.980059999999998,0.317807967077814,0.0
9.982456,0.310730729651925,0.0
9.984852,0.3019309307333395,0.0
9.98724,0.29620416774780933,0.0
9.989624,0.29206019662811544,0.0
9.99202,0.28605389438886497,0.0
9.994408,0.2801873617764746,0.0
9.996792,0.2680349876711132,0.0
9.999188,0.26496195173805787,0.0
10.001576,0.2636114772976989,0.0
10.003956,0.2590481972974244,0.0
10.00636,0.2487581543116198,0.0
10.008748,0.23725740651231636,0.0
10.011128,0.22603619796673333,0.0
10.013524,0.21574615498092867,0.0
10.015912,0.2074582127415408,0.0
10.018292,0.2010326016217096,0.0
10.020688,0.19861119199471208,0.0
10.023076,0.19525861680793627,0.0
10.025455999999998,0.1969811783006327,0.0
10.02786,0.2025681716593026,0.0
10.030248,0.20093815796522324,0.0
10.032628,0.1963748779649487,0.0
10.035035999999998,0.18673646128520194,0.0
10.03742,0.17430454792612018,0.0
10.039804,0.1638747353134553,0.0
10.042199999999998,0.15558679307406748,0.0
10.044588,0.1563781890069856,0.0
10.046968,0.15516748419348686,0.0
10.049371999999998,0.1539567793799881,0.0
10.051759999999998,0.1538170097531279,0.0
10.05414,0.15675027605932307,0.0
10.056535999999998,0.16010285124609888,0.0
10.05892,0.1610340168058772,0.0
10.061304,0.159451224940041,0.0
10.0637,0.16001030344748185,0.0
10.066088,0.15563401490231066,0.0
10.068468,0.14390094967752998,0.0
10.070871999999998,0.13631185557244319,0.0
10.073259999999998,0.12779159590757808,0.0
10.07564,0.11806063142921426,0.0
10.078036,0.11405642993638056,0.0
10.080424,0.11484782586929868,0.0
10.082804,0.11549945217535658,0.0
10.085207999999998,0.12201761109380482,0.0
10.087595999999998,0.12974647482575183,0.0
10.089976,0.1333313674380049,0.0
10.092372,0.12797669150481225,0.0
10.094756,0.11880277501706664,0.0
10.09714,0.10976862815618121,0.0
10.099536,0.10073448129529579,0.0
10.10192,0.09156056480755016,0.0
10.1043,0.08317804425272264,0.0
10.106704,0.07507506295161555,0.0
10.109092,0.06869464314320488,0.0
10.111476,0.060172352961517156,0.0
10.113872,0.054817677028324505,0.0
10.11626,0.054026281095406394,0.0
10.11864,0.05137255404293164,0.0
10.121036,0.04713400460779804,0.0
10.123424,0.04303522479952465,0.0
10.125804,0.03721388349855483,0.0
10.128204,0.03246550790104617,0.0
10.130592,0.033863204169648276,0.0
10.132972,0.03232763413205521,0.0
10.135368,0.03037275521388151,0.0
10.137756,0.02962858110920655,0.0
10.14014,0.036613270736478576,0.0
10.142536,0.044483934612108395,0.0
10.144928,0.04928156255468283,0.0
10.147308,0.05300825531061875,0.0
10.149704,0.055664012879916125,0.0
10.152092,0.057248835262574974,0.0
10.154471999999998,0.05776272245859529,0.0
10.156868,0.05841637928147582,0.0
10.159256,0.05972166241041425,0.0
10.161635999999998,0.06372586390324796,0.0
10.164036,0.06931285726191788,0.0
10.16642,0.07569124655350591,0.0
10.168803999999998,0.0805814222946974,0.0
10.171215999999998,0.08426089322239015,0.0
10.173604,0.08700919859030459,0.0
10.175984,0.08668243750834104,0.0
10.17838,0.08067410475226787,0.0
10.180768,0.07466577199619469,0.0
10.183152,0.06786604330720339,0.0
10.185548,0.06288345442634821,0.0
10.187936,0.05724923923943514,0.0
10.190316,0.05561922554535577,0.0
10.192716,0.06320831965044255,0.0
10.195104,0.07494138487522323,0.0
10.197484,0.09081842121969783,0.0
10.19988,0.10762662312395074,0.0
10.202268,0.12145433689376532,0.0
10.204664,0.12573428592458097,0.0
10.207059999999998,0.12749458995617433,0.0
10.209447999999998,0.14526411652762555,0.0
10.211828,0.1933843319458161,0.010719626964472583
10.214223999999998,0.2642680379635285,0.01987638904156006
10.216611999999998,0.34473914711700604,0.029366375220324724
10.218996,0.43149041018984685,0.03974708666169886
10.221391999999998,0.5414679028552948,0.04976378204059359
10.223779999999998,0.6864519121663737,0.05881197424200946
10.226164,0.8535951422581131,0.06753438581290747
10.228559999999998,1.0312569410453958,0.07631952443586569
10.230947999999998,1.2216245048718732,0.08520445560053432
10.233332,1.4314462795646479,0.09404092404430671
10.235727999999998,1.6658919801186316,0.10262523487231295
10.238115999999998,1.9178862649658048,0.11102421287900269
10.2405,2.174020729216933,0.11944449639335294
10.242895999999998,2.432478367722836,0.12810430099535766
10.245283999999998,2.7031280187308657,0.13688590524587657
10.247664,3.00161440116002,0.14546430389950274
10.250068,3.335343409376021,0.15366503173408938
10.252456,3.6974758109520667,0.16158774783484084
10.254839999999998,4.082568173872082,0.16915234008839625
10.257236,4.44890503940115,0.17667944924473972
10.259624,4.7710635023136625,0.17364461618269952
10.262004,5.060587740521427,0.17232357829772732
10.264399999999998,5.3477415826461785,0.17057124652007813
10.266787999999998,5.641885801971808,0.1676916552534339
10.269172,5.914481027227154,0.16510254706428767
10.271567999999998,6.144947172440606,0.16354785733532648
10.273956000000002,6.35614217186817,0.1622918379751055
10.276332,6.553326257786556,0.16104757496731364
10.278728,6.729376866799498,0.15986085171015416
10.281112,6.885599147376984,0.15872431846741944
10.283492,7.010539573547953,0.15790034696737243
10.285888,7.113507905052318,0.15729873252216747
10.288276,7.203441814577654,0.15679133240235404
10.290655999999998,7.2944504510053685,0.1559858267711815
10.293052,7.375408945304233,0.15495956095376326
10.29544,7.428717699637076,0.15409716900653186
10.297820000000002,7.443525696652781,0.15371393640869133
10.300232,7.439710382472919,0.15362567081531792
10.30262,7.408284966723802,0.15399486209610388
10.305,7.3780702557881845,0.154330700885749
10.307408,7.3634530419433215,0.15442005401987377
10.309792000000002,7.356704461457264,0.154380114073571
10.312172,7.35121191175508,0.15438205870955646
10.314576,7.337197206530162,0.15461366796420964
10.316964,7.323227827275619,0.1549129452404459
10.319344,7.313587514738003,0.15520790589505695
10.321748,7.3031085844392285,0.15554674902923799
10.324132,7.305293884925011,0.15568499131965519
10.326516000000002,7.329502293621379,0.15546116939652202
10.328912,7.354037463399711,0.15518640277134949
10.331296000000002,7.3839273091112325,0.15480924099097398
10.333676,7.416378334076615,0.15436933881509068
10.336072,7.4538591697510945,0.15376985101313784
10.33846,7.4895248961342595,0.15317181964331225
10.340856,7.520022938039335,0.15263646534099223
10.343252,7.541581411398966,0.15223424490048204
10.345636,7.567236634050047,0.15178696587880217
10.348020000000002,7.595266044499883,0.1513243984833956
10.350424,7.635493155025455,0.15072222744094171
10.352808,7.676604209282561,0.15015417247968718
10.355188000000002,7.711848730927277,0.1496818882063004
10.357584,7.750678145184248,0.1491673342554681
10.359968,7.782337774216711,0.14874315816162714
10.362348,7.809668336532248,0.1483304954347864
10.364744000000002,7.838256825489523,0.14785759318172137
10.367132000000002,7.866101140342126,0.14734351013673036
10.369528,7.887055209223941,0.14689440282044613
10.371924,7.897998774373672,0.14661373840689437
10.374308,7.8981404398584,0.14650205938023775
10.376688,7.896140234969853,0.14642819362761839
10.379088,7.888133727842055,0.1464469519180305
10.381472,7.876634875900621,0.14653734670461013
10.383856000000002,7.86732322030284,0.14665573038653384
10.386252,7.857359938399,0.1467691784182731
10.388636000000002,7.850050383547633,0.14685359191494285
10.39102,7.856056685786883,0.14676394572036547
10.393424,7.863925319145692,0.14664977944575533
10.395812,7.880501203624467,0.14638750000441894
10.398192000000002,7.894378035080394,0.14609151097451412
10.400588,7.90006136795342,0.1458510812684839
10.402976,7.903742600080027,0.14563762361461546
10.405356,7.902348695527164,0.14550066013005378
10.40776,7.907380402094131,0.1452571152644491
10.410148,7.918837719780931,0.14490964559007904
10.412528000000002,7.92428873522848,0.144647723332433
10.414932,7.933929047766096,0.1443852807377801
10.41732,7.952973563700112,0.14403850938178062
10.4197,7.978443690753959,0.14358709871793168
10.422104,8.00475243556897,0.14310241677651234
10.424492,8.031340719637699,0.14260427763937378
10.426872,8.063376227438237,0.14204269998977825
10.429268,8.099136397477888,0.141434535100788
10.431656,8.135642637480084,0.1407683842348376
10.434036,8.166609105951853,0.1401365732539794
10.436432,8.189195084385618,0.1395998582191942
10.43882,8.202282415766497,0.13921230372855228
10.441199999999998,8.222958841252462,0.13873624917336894
10.443596,8.228596848155114,0.1384396883421359
10.44598,8.232092984684488,0.13817857401562317
10.44836,8.241500979796626,0.13790503132035983
10.450768,8.259382012745387,0.1375678249923075
10.453152,8.287832627933673,0.1370738341733863
10.455532000000002,8.308042522710815,0.1366678060073042
10.457928,8.317450517822953,0.13639908341874132
10.460316,8.32681129110685,0.13616234418259307
10.462712,8.34059557476416,0.1358542811347807
10.465112,8.355125928384012,0.13548273994595478
10.4675,8.360391848234327,0.13517657993655233
10.46988,8.356997738792916,0.1349712424945253
10.472276,8.35434780345618,0.13479715349015536
10.474664,8.35314089035842,0.1346230337468547
10.477044,8.351561890208323,0.1344336927239566
10.47944,8.342393795953138,0.13432799061394154
10.481828,8.335552667668464,0.1342468080664229
10.484212,8.335275024272612,0.13416121277132118
10.486608,8.343657410168486,0.13397495586608782
10.488996,8.346500024533933,0.133813875913599
10.491376,8.353067301138497,0.13361347840124183
10.493772,8.356374550354897,0.13349562567169954
10.49616,8.363406461810412,0.13333997025544117
10.498539999999998,8.36461906248178,0.13322023964871102
10.500944,8.352376036435672,0.1332521724475852
10.503332,8.343066276695756,0.1332494098680612
10.505712,8.341438158859546,0.13319271790017412
10.508112,8.346887278449225,0.1330437965735502
10.510496,8.34861173579979,0.1329337821543037
10.512876,8.347635244269638,0.13288055548805724
10.515284,8.353921085762611,0.13279375674605298
10.517668,8.370682065838619,0.13262730736330794
10.520052,8.389584916287907,0.13243072481619922
10.522448,8.406253348565299,0.1322376229342128
10.524836,8.422270154536633,0.1320422750923346
10.527216,8.439729982746947,0.13184610758573875
10.52962,8.458028428718416,0.1316142423636774
10.532008,8.478423419092792,0.13129198727205887
10.534388,8.493138868309881,0.1309970642318901
10.536792000000002,8.505572677526832,0.13073858712541211
10.539176,8.52056766599764,0.1304335927285582
10.54156,8.536960350737052,0.13006555419139593
10.543956,8.54581116319962,0.12974094082217077
10.546344,8.555453371595105,0.12941255785326006
10.548724,8.573615839655456,0.12899622412640044
10.55112,8.592569703648723,0.1285787830683518
10.553508,8.6075665879774,0.12817590588695874
10.555888,8.621911846000021,0.12777358548921455
10.558288,8.637607578463,0.1273461316949713
10.560676,8.654933324620059,0.12688265816047276
10.563056,8.668302091112526,0.12643419951566034
10.565452,8.670404323089038,0.12605984091680078
10.56784,8.667478640214318,0.1257117392579752
10.57022,8.66548412289938,0.12535508758498184
10.572616,8.662698209651523,0.12500075894969478
10.575004,8.66247347565752,0.12459997723370352
10.577384,8.659035936103606,0.12424208485390213
10.579784,8.653828613228747,0.12392941856968011
10.582172,8.65364920520512,0.12359178991540445
10.584568,8.658265394607248,0.12320848262783712
10.586964000000002,8.65738713844932,0.12290099050588169
10.589352000000002,8.660745401209702,0.12257205388105315
10.591732,8.670062744381095,0.12221020309851666
10.594132000000002,8.681801497179483,0.12180966031316061
10.596516,8.6903746662462,0.12141925095573564
10.5989,8.694292007514024,0.12106711068772542
10.601296,8.702213550274683,0.12067274352734171
10.603684,8.7090641578487,0.12029417000794025
10.60606,8.713493355795721,0.11995476666600406
10.608467999999998,8.712707647436412,0.11967676477406121
10.610852,8.714435896502714,0.11938819773621183
10.613236,8.72570811859228,0.11904468314897534
10.615632000000002,8.742659881839131,0.11868308427161817
10.61802,8.757190235458985,0.11835919086207053
10.6204,8.771021740944539,0.11806391691862218
10.622800000000002,8.786156499042207,0.11777936752509001
10.625184,8.803805214565491,0.1174837930377197
10.627568,8.817729267849662,0.11721789386792428
10.629964,8.8271372629618,0.11698424298812458
10.632352,8.832680826207968,0.11678698666231854
10.634732,8.839295324640766,0.11657528148158632
10.637128,8.842045391207597,0.1163997859511339
10.639516,8.842141730721952,0.11624089007919211
10.6419,8.83753502060917,0.11615143287575849
10.644296,8.837676686093898,0.11605300427100397
10.646684,8.845127906429996,0.11590259401487091
10.649068,8.848807242698737,0.11581409094065918
10.651464,8.851275874153979,0.1157443766912043
10.653852,8.856677771915413,0.11564785495252876
10.656236,8.865804331915962,0.11552266853688326
10.658632,8.872277164864038,0.11541361174685925
10.661012,8.876375810013357,0.11530957957349497
10.663392000000002,8.877448641057864,0.11520558552492084
10.665788,8.88094288172937,0.11506504227992036
10.668171999999998,8.88713807128159,0.11487716295993174
10.670548,8.888677433034925,0.11472407468069445
10.672944,8.889704938109059,0.11456132761165894
10.675328,8.894177566168587,0.11438204876034272
10.677708,8.901303921280586,0.11418775161195675
10.68012,8.909221672325506,0.11399217784970408
10.682508,8.921003855236403,0.11376391358097335
10.684884,8.935299995572908,0.11352695844359455
10.6873,8.955322898894948,0.11324615857395907
10.689684,8.979769312590403,0.11290978684940017
10.692063999999998,8.99583523624785,0.1126345475311241
10.69446,9.01031836803946,0.11236448876624294
10.696844,9.026431513525152,0.11205995241633579
10.699224,9.041613493451063,0.11176190090194492
10.701636,9.05279127188414,0.1115016029472531
10.704024,9.06210671919766,0.11125470797768262
10.706404,9.069792152817099,0.11104122686288248
10.708796,9.07612711199618,0.11085141452010505
10.71118,9.083765323787379,0.1106708030267149
10.71356,9.094848658563969,0.1104764745026534
10.715952,9.1050933755794,0.11031585268878952
10.71834,9.11734019334125,0.11013666947968276
10.720716,9.130098867782294,0.1099680265757128
10.723112,9.146349887036976,0.10975517542332883
10.7255,9.164882546291793,0.1095156556496814
10.727876000000002,9.18355497517347,0.10927119068051096
10.730292,9.199294137748952,0.10905144424164777
10.732679999999998,9.211588177339042,0.10884587663705302
10.73506,9.21922638913024,0.10867266655838143
10.737472,9.230729032787414,0.10847221726804562
10.739856,9.250100309803393,0.1082087854168807
10.742236000000002,9.267329716446095,0.10796899346846128
10.744652,9.284279583835076,0.10774022190621634
10.747036,9.302952012716755,0.10750511298841968
10.749416,9.32469747753149,0.1072418651090207
10.75182,9.349236439025562,0.10696182533078637
10.754204,9.378198910893047,0.1066324200913017
10.756588,9.40623021720075,0.10630835734709183
10.758992,9.436403393881735,0.1059646533366267
10.761375999999998,9.463131447577325,0.10563642265135623
10.763756,9.487625083101019,0.10530449105360998
10.766148,9.512118718624714,0.10497329388054391
10.768532,9.537031663028989,0.10462808514212014
10.770912,9.555518996313433,0.10434911911008163
10.773308,9.56986235847818,0.10410919274989275
10.775692,9.582995015829432,0.10388497690051181
10.778072000000002,9.59799000430024,0.10364990348020076
10.780468,9.619503151689496,0.10337787097658327
10.782852000000002,9.637663723891977,0.10314196502554193
10.785232,9.649817993855207,0.10295586861568738
10.787644,9.658107831952464,0.10279768631458952
10.790032,9.663743942997247,0.10265012997216613
10.792412,9.66979936292261,0.10248764754121487
10.794816,9.675622465422498,0.10230569166322609
10.7972,9.67865207124305,0.10213960824219342
10.79958,9.679027950011124,0.10198455288741115
10.801976,9.676191023219282,0.10186048780067047
10.80436,9.674052944561744,0.10171107505135342
10.80674,9.669400908478588,0.10156757997206675
10.809156000000002,9.66647143388813,0.10141906550439614
10.81154,9.668989183029485,0.1012454328170156
10.81392,9.672438097730613,0.10106709892157092
10.816316,9.672674206871829,0.10091865647926751
10.818704,9.672118920080125,0.10076956070678772
10.821079999999998,9.6724947988482,0.10061528511784518
10.82348,9.676223252803053,0.10042620304193674
10.825864,9.67743774933229,0.10024224702612541
10.828244000000002,9.671342691010159,0.10009373822232503
10.830660000000002,9.669531373434582,0.09990514160255583
10.833044,9.667999595112727,0.09970632417882883
10.835428,9.664885024925038,0.0995072640585658
10.83784,9.666426282536237,0.099283257642383
10.840228,9.668619166453496,0.09906471799025524
10.842604,9.67118413742309,0.09886156808968559
10.845008,9.67654260507202,0.09864377231444724
10.847396,9.685113878280866,0.09839735216432828
10.849776,9.699319366676624,0.09809415025242411
10.852172,9.713385085445523,0.09779617254879364
10.85456,9.726379869027785,0.09750824361010088
10.856940000000002,9.735789759997793,0.09723465720168187
10.859344,9.738821261676215,0.09698938645459286
10.861732,9.740130201861938,0.09674870940959929
10.864112,9.7432089253686,0.09647367921913547
10.866516,9.751921864062178,0.09614172804559686
10.8689,9.760122946076555,0.09579980727025889
10.87128,9.768324028090936,0.09546005262201877
10.873684,9.781320707531066,0.09509424106176169
10.876072,9.796179718090752,0.09471860623155509
10.878452,9.8111784982773,0.0943398804596682
10.880848,9.825106343277207,0.09396973807769869
10.883232,9.84168791532959,0.0935917621028631
10.885616,9.857757630702777,0.09320592021230606
10.888016,9.872104784583264,0.09282450682379084
10.890404,9.884869146597918,0.09244252393949914
10.892784,9.896981882306514,0.09205631710741237
10.895188,9.904159250962497,0.0917010520857569
10.897572,9.901977742192452,0.09141670853453784
10.899956,9.901239255661384,0.09113854335640267
10.902352,9.902363100249874,0.09085240957254384
10.904736,9.904278340771286,0.09056634904010635
10.907115999999998,9.910989178718443,0.09025528415429314
10.90952,9.917560247038741,0.08994871625935025
10.911908,9.924363632784518,0.08966209666692074
10.914288,9.927534904089798,0.08941671969601472
10.916692,9.933639441701274,0.08915553763406403
10.919076,9.933877446700357,0.08892711312845887
10.921456,9.933463825393385,0.08869454975481164
10.923852,9.934121139273051,0.08845351119379265
10.926236,9.930914021286743,0.08823205110368243
10.928632,9.931850874420128,0.08798173221366332
10.931024,9.931856561993738,0.08773559191728403
10.933412,9.927718278447653,0.08751793995028577
10.935792,9.924650930088205,0.08729186895942456
10.938196,9.922654516915395,0.08705744155478544
10.94058,9.920518334115725,0.0868278198679884
10.94296,9.92117564799539,0.08658695199847671
10.945356,9.929981134487583,0.08629393189672824
10.947744,9.939205929860359,0.08598802634114228
10.950120000000002,9.9444265237403,0.08570525044204538
10.952524,9.951928757620376,0.08540202721014216
10.954912,9.955426790007618,0.08512240276019215
10.957292,9.96106669276814,0.084826995078127
