Time,Force,Position
10.424316,0.25988728239082665,0.0
10.426696,0.2522509664574967,0.0
10.429092,0.24540604645708486,0.0
10.43148,0.23721065201631408,0.0
10.433876,0.228084092015765,0.0
10.436272,0.21895753201521592,0.0
10.43866,0.20596654014869334,0.0
10.44104,0.19339485716275143,0.0
10.443436000000002,0.17775013824375407,0.0
10.445824000000002,0.1598180459801886,0.0
10.448204,0.14202572334348326,0.0
10.450604000000002,0.12730643663983335,0.0
10.452992000000002,0.10937434437626783,0.0
10.455372,0.09508009989762947,0.0
10.457768000000002,0.08292772579226815,0.0
10.460156,0.0777128194859357,0.0
10.46254,0.07450001392602011,0.0
10.464936000000002,0.06671819502139906,0.0
10.467324,0.06093847686319487,0.0
10.469704,0.05329642758543403,0.0
10.4721,0.04672531349431173,0.0
10.474488,0.04043373865690984,0.0
10.476884000000002,0.03414216381950796,0.0
10.47928,0.029061293795604813,0.0
10.481668,0.022909488585063136,0.0
10.484048,0.016757683374521465,0.0
10.486444,0.012468209283536435,0.0
10.488832,0.008970131125469512,0.0
10.491212,0.006542988154041122,0.0
10.493608000000002,0.006542988154041122,0.0
10.495996000000002,0.006542988154041123,0.0
10.498376,0.006542988154041123,0.0
10.50078,0.006542988154041123,0.0
10.503168,0.005838406675309164,0.0
10.505548,0.005133825196577203,0.0
10.507944000000002,0.0025669125982886016,0.0
10.510332000000002,0.0,0.0
10.512716,0.0,0.0
10.515112000000002,0.0,0.0
10.517500000000002,0.0,0.0
10.519884,0.0,0.0
10.52228,0.0,0.0
10.524672,0.0,0.0
10.527052,0.0,0.0
10.529452,0.0,0.0
10.53184,0.0,0.0
10.534224000000002,0.0,0.0
10.536616,0.0,0.0
10.539,0.0,0.0
10.541396,0.0,0.0
10.543788,0.0,0.0
10.546176,0.0,0.0
10.548552,0.0,0.0
10.550948000000002,0.0,0.0
10.553332,0.0,0.0
10.555724,0.0,0.0
10.558128,0.0,0.0
10.560512,0.0,0.0
10.562892000000002,0.0,0.0
10.565296,0.0,0.0
10.56768,0.0,0.0
10.570056,0.0,0.0
10.572452000000002,0.0,0.0
10.574836,0.0,0.0
10.577228000000002,0.0,0.0
10.579632,0.0,0.0
10.58202,0.0,0.0
10.5844,0.0,0.0
10.586792,5.295517267406008e-05,0.0
10.589176000000002,5.295517267406007e-05,0.0
10.591572,0.0007575366514060202,0.0
10.593964,0.005326549996111473,0.0
10.596352,0.012689060020151882,0.0
10.598732000000002,0.022053670790609145,0.0
10.601124,0.03248921674770494,0.0
10.603508,0.04199359714502242,0.0
10.605904,0.05056681198256156,0.0
10.6083,0.056718617193103234,0.0
10.610684,0.0620790264707268,0.0
10.613064,0.07037270205454553,0.0
10.615468,0.08080824801164133,0.0
10.617856,0.09110402434187691,0.0
10.620232,0.10139980067211249,0.0
10.622628,0.10862254106929269,0.0
10.625012000000002,0.11491411590669456,0.0
10.627408,0.12120569074409644,0.0
10.629804,0.12656610002172,0.0
10.632188,0.13099534373956526,0.0
10.634568000000002,0.1332297619114594,0.0
10.636972,0.1332297619114594,0.0
10.639356,0.13252518043272746,0.0
10.641736000000002,0.127956167088022,0.0
10.644128000000002,0.12059365706398155,0.0
10.646516000000002,0.1112290462935243,0.0
10.648908,0.10079350033642849,0.0
10.651312,0.09128911993911103,0.0
10.6537,0.08271590510157188,0.0
10.65608,0.0765640998910302,0.0
10.658472,0.07120369061340666,0.0
10.66086,0.06291001502958792,0.0
10.663236,0.052474469072492126,0.0
10.665632,0.042178692742256545,0.0
10.66802,0.03188291641202096,0.0
10.670412,0.024660176014840753,0.0
10.672808,0.01836860117743887,0.0
10.675192,0.012077026340036986,0.0
10.677588,0.006716617062413424,0.0
10.679984,0.002287373344568181,0.0
10.682368,0.0,0.0
10.684748,0.0,0.0
10.687144,0.0,0.0
10.689532,0.0,0.0
10.691912,0.0,0.0
10.694316,0.0,0.0
10.696704,0.0,0.0
10.699084,0.0,0.0
10.70148,0.0,0.0
10.703868,0.0,0.0
10.706248,0.0,0.0
10.708652,0.0,0.0
10.71104,0.0,0.0
10.71342,0.0,0.0
10.71582,0.0,0.0
10.718208,0.0,0.0
10.720588,0.0,0.0
10.722984,0.0,0.0
10.725372,0.0,0.0
10.727752,0.0,0.0
10.730156,0.0,0.0
10.73254,0.0,0.0
10.73492,0.0,0.0
10.737324,0.0,0.0
10.739712,0.0,0.0
10.742092,0.0,0.0
10.744496000000002,0.0,0.0
10.74688,0.0,0.0
10.74926,0.0,0.0
10.751656,0.0,0.0
10.75404,0.0,0.0
10.756436,0.0,0.0
10.758832000000002,0.0,0.0
10.761220000000002,0.0,0.0
10.7636,0.0,0.0
10.766004,0.0,0.0
10.768388000000002,0.0,0.0
10.770768,0.0,0.0
10.773164,0.0,0.0
10.775548,0.0,0.0
10.777932,0.0,0.0
10.780328,0.0,0.0
10.782716,0.0,0.0
10.785096,0.0,0.0
10.787492,0.0,0.0
10.78988,0.0,0.0
10.792272,0.0,0.0
10.794668,0.0,0.0
10.797052,0.0,0.0
10.799432,0.0,0.0
10.801824,0.0,0.0
10.804212,0.0,0.0
10.806604,0.0,0.0
10.809008,0.0,0.0
10.811392,0.0,0.0
10.813772,0.0,0.0
10.816176,0.0,0.0
10.818564,0.0,0.0
10.820944,0.0,0.0
10.823336,0.0,0.0
10.825724,0.0,0.0
10.828104,0.0,0.0
10.8305,0.0,0.0
10.832884,0.0,0.0
10.83528,0.0,0.0
10.837684,0.0,0.0
10.840068,0.0,0.0
10.842448,0.0,0.0
10.844844000000002,0.0,0.0
10.847232000000002,0.0,0.0
10.849612,0.0,0.0
10.852004,0.0,0.0
10.854392,0.01176895767663157,0.0
10.856788000000002,0.04639205789353276,0.0
10.859192,0.08887999975350266,0.014999999999999996
10.861576,0.1352285817637076,0.029999999999999992
10.863956000000002,0.18953265735772912,0.044999999999999984
10.866352,0.27171879034324925,0.05842324393444846
10.86874,0.3913328496013979,0.06928518029495709
10.87112,0.5367834353921238,0.0791354904004555
10.873516,0.6922407331991954,0.08896626570340702
10.8759,0.854537263433071,0.09912609138100456
10.87828,1.0388965402742982,0.10904440199664563
10.880676,1.2596128082015157,0.11821474591222657
10.883064,1.4976453429964447,0.1272015385504444
10.885456,1.749968330554274,0.13606628189849748
10.887852,2.0183024365098303,0.14494124667161
10.89024,2.3115853335506906,0.1537391276218054
10.89262,2.6348468323859535,0.16227228099348193
10.895024,2.9753792721185537,0.17063232377313245
10.897412,3.325408463046172,0.17890067990137712
10.899788,3.684190231064133,0.18704861522910218
10.902188,4.035254464726541,0.1950816488919886
10.904572000000002,4.372870655102945,0.20289542162529664
10.906952,4.717288335367259,0.19547748879792345
10.909348,5.06264097290709,0.18799087010012402
10.911736,5.405300244997679,0.18037980614335597
10.914132,5.718402120032318,0.17432528613105677
10.916528,5.978665563158676,0.1710175781214589
10.918916,6.204432450460729,0.16885279518412138
10.921296000000002,6.422287274291472,0.16670525404224876
10.9237,6.645919874651727,0.16407176435017187
10.926088,6.854706735457381,0.16155965557495408
10.928468,7.024530099952811,0.1597870706575852
10.930872,7.180342550939061,0.15817164550342266
10.93326,7.314041241773979,0.15686377701449086
10.93564,7.426234368651118,0.15565240261954988
10.938036,7.516738731831113,0.15442012910806724
10.94042,7.56441516683491,0.15358750761698806
10.942804,7.589093897955838,0.1530167397229564
10.945204,7.602598642359428,0.1526299989973191
10.947592,7.613729198964264,0.15227465139497123
10.949972,7.61876090553123,0.15199755711983187
10.952364,7.603259747954832,0.15206673239123641
10.954752,7.561591511048153,0.15260361126518857
10.957132,7.522250240111983,0.15314573938281692
10.959524000000002,7.4862596485047215,0.1537056365378746
10.961912000000002,7.45450557581577,0.15421852801833275
10.964303999999998,7.444587619882302,0.15441752660673616
10.9667,7.440908283613562,0.15454275128235961
10.969088,7.441465466263135,0.15462234397318395
10.971464,7.434852863688199,0.15478718159492208
10.973860000000002,7.4182769792094225,0.1550727620492959
10.976248000000002,7.389548720625287,0.15557707634787793
10.97864,7.353650676816644,0.15617291416787574
10.981044,7.335818761553996,0.15642831401046497
10.983432,7.335214357076181,0.15638827324187923
10.985808,7.330186442224952,0.1564352859949468
10.988216,7.341732515994629,0.15629659437206667
10.9906,7.362031166854648,0.1560551386477542
10.99298,7.393318708834772,0.15559988782610779
10.995384,7.422232063016144,0.15517293101872498
10.997768,7.454171231302327,0.15473468062249918
11.000148,7.495654372611771,0.15417871042738387
11.002544,7.551664075825332,0.15337504211729333
11.004932,7.605299591240137,0.1526075057806961
11.007312,7.656887679938153,0.1518341498578631
11.009708,7.702516688225161,0.15112272852361947
11.012092,7.734550300167833,0.15061464092920948
11.014476000000002,7.770308574349617,0.15005363679607273
11.016876,7.798385206627695,0.14957211347366692
11.019264,7.821573693681407,0.1491351489724794
11.021644000000002,7.846344972600953,0.14868619061635974
11.02404,7.886014900476954,0.1480201637768568
11.026428,7.934297635816436,0.14726264214545715
11.028808,7.980158961528922,0.14658890470798047
11.031212,8.014566761270345,0.14609082812959234
11.033596,8.043806876533681,0.14563696304352505
11.035976000000002,8.06708791138601,0.14523994516328348
11.038372,8.089949637357758,0.14486656320533195
11.040756000000002,8.107596457023172,0.14458701639185698
11.043152,8.122497001837495,0.14430930313221282
11.045548,8.133812654039563,0.14406949366734315
11.047936,8.143638062174414,0.14386565747007837
11.050316,8.15094951288365,0.1436826095654891
11.05272,8.154583523182017,0.14350949969380475
11.055104,8.146112381203265,0.14347814375955315
11.057484,8.133077959224236,0.14353197614549076
11.05988,8.128796114335554,0.1435019352798754
11.062268,8.130380802059259,0.1433920801584401
11.064648000000002,8.139462036089435,0.1431598741875204
11.067052,8.1443067512013,0.1429616284641864
11.06944,8.150362171126664,0.14273910953196267
11.07182,8.157069217358085,0.1425194136468122
11.074224,8.159539744671195,0.1423352993609075
11.076608,8.155958643774682,0.14217250327173614
11.078988,8.15405477840049,0.1419316720222744
11.081392,8.156247662317748,0.14166206732215822
11.08378,8.1599761162726,0.14141901612759278
11.08616,8.164962496869196,0.1411191138241117
11.088564000000002,8.166178889256301,0.14079882903669638
11.090952,8.161668518657876,0.14054584854714564
11.093332,8.15776255253727,0.1403297397008218
11.095728,8.160886602014306,0.14005026569784484
11.098112,8.173509298544229,0.1396317777662386
11.100496,8.187529691342755,0.1391524396698788
11.102892,8.202993106380257,0.1386657342452175
11.105276,8.229071429627657,0.1380771929527419
11.10766,8.256220688061696,0.13747592284449606
11.110064,8.275967843845752,0.13692809841573617
11.112448,8.284960321793047,0.13648302421667546
11.114828,8.297258153098879,0.136015331615359
11.117224,8.31123132406916,0.13557101832050583
11.119608,8.326554969479801,0.13509987787789662
11.122004,8.338480713733295,0.13461881873463583
11.1244,8.343748529441477,0.13421175953036238
11.126788,8.341984433694146,0.13396227317536363
11.129164,8.34683104466388,0.1336734500529188
11.13156,8.357731179701105,0.13327417140590683
11.133948,8.364953874327462,0.13288141800340925
11.136332,8.367193980072964,0.13258237947375873
11.138728,8.371481512535258,0.13231888946870488
11.141112,8.379633476863525,0.1320098541347972
11.143508,8.382944517795664,0.1316932641680651
11.145904000000002,8.371217140144491,0.13153733568182438
11.148292,8.351294368052548,0.13152369166222458
11.150672,8.342126273797364,0.13141465063686933
11.153076,8.329792595810504,0.13131776351763993
11.155463999999998,8.31271054222614,0.1312387409195768
11.157844,8.293207079014776,0.13120353085053155
11.160248,8.277892912893481,0.13117582532516922
11.162632,8.26467339531722,0.13115119253567575
11.165012,8.248148524382426,0.1311450275984323
11.167412,8.228969926395155,0.1311597605985954
11.169796000000002,8.214819243259116,0.13114320631044135
11.172176,8.207419036467003,0.13108364477153542
11.174576000000002,8.208446541541138,0.1309042730846091
11.17696,8.201652635084706,0.13078395918518146
11.17934,8.188992196015887,0.13073156605184424
11.181744000000002,8.175213599932185,0.130729204835273
11.184132000000002,8.171957364259763,0.13061320387350947
11.186512,8.177827688587893,0.1303500921331323
11.188908,8.183325925863683,0.13007242065346694
11.191292,8.192641373177205,0.12978874977059338
11.193672,8.209778232021291,0.1294491620916823
11.196076,8.239858860903658,0.12895839524806388
11.198464,8.263561100494433,0.1285293137192728
11.20084,8.284981700085075,0.1281341115923298
11.203244000000002,8.308496948220746,0.12774270173500332
11.205632,8.336016397849255,0.12730337620020804
11.208012,8.366656105239061,0.12679334558541916
11.210404,8.39613232964361,0.12627253472644046
11.212792,8.424397849234662,0.1257690433269981
11.215184,8.452244059945134,0.125283339186726
11.217588,8.481161205842243,0.12478841222414047
11.219976,8.507424624686877,0.12431423708928765
11.222356,8.529264533158099,0.12390709725524116
11.224752,8.558693535734406,0.1234271537413139
11.22714,8.586772063870354,0.12297251652908855
11.22952,8.615781757566081,0.12250855843861937
11.231924,8.639344227529996,0.1220949941085979
11.234312,8.65713271268014,0.1217769200182143
11.236692,8.673570723389924,0.12148629550776129
11.239088,8.689077568539929,0.1212063308194282
11.241476,8.70328116107782,0.12092094598116775
11.243856,8.70575168839093,0.12075457758919247
11.24626,8.709153381263818,0.12058081594358092
11.248648,8.719492541935736,0.12033578066685241
11.251028000000002,8.731042407421151,0.12007194506886933
11.253432,8.744314834399264,0.11980081289898328
11.25582,8.755957247683297,0.11956809161740337
11.2582,8.766900812833029,0.11936447901309259
11.260596,8.78371091059515,0.11910476892090023
11.262984,8.803594044290328,0.1188119629454761
11.265364000000002,8.820264372425592,0.11856036696672609
11.26776,8.841870067613465,0.11826268110968308
11.270148,8.867479964294173,0.11792551219704642
11.272528,8.889085659482047,0.11763145878231625
11.274924,8.914975095416475,0.11728695690562643
11.277312000000002,8.938071034671568,0.1169623781308901
11.279692,8.96060789541922,0.11666079074262421
11.282088000000002,8.983284525793731,0.11635474489529946
11.284472,9.004750451354747,0.11606664730936708
11.286856,9.02170031874373,0.11580876118748394
11.28926,9.037811568371552,0.11558570578316849
11.291648,9.064165639156933,0.1152853326699357
11.294028,9.087306904382398,0.11502280770744402
11.296424000000002,9.109237464794367,0.11478225871344537
11.298812000000002,9.132099190766112,0.11453674019070986
11.301196,9.150956715245027,0.11433086484209495
11.303596,9.16967447009708,0.11413134069924398
11.305984,9.190813634576129,0.11389728894157272
11.308364,9.210230237562483,0.11367353380702172
11.310760000000002,9.22778450942928,0.11346437072499424
11.313148000000002,9.247760190923074,0.11322160528095214
11.315528,9.263871440550897,0.11301249997312232
11.317932,9.275746171260407,0.11282048256242767
11.32032,9.285618801223501,0.1126463143218468
11.3227,9.292930251932736,0.1125124939559428
11.325095999999998,9.307318940067862,0.11231306543932783
11.327484000000002,9.324408577083705,0.11207005336778546
11.329868,9.340567048539768,0.11183397655334815
11.332264,9.358075994436192,0.11157540053924027
11.334652000000002,9.378238667385089,0.11130242845324781
11.337032,9.394304591042538,0.11103868764160695
11.339428000000002,9.4010588591022,0.1108392839634667
11.341816,9.41158501122922,0.11058369810475481
11.344212,9.417734874811071,0.11034955998515966
11.346608,9.419089140967168,0.11015200656592447
11.348996,9.421002485630707,0.10993287424511972
11.351376000000002,9.419470707308854,0.10972779301585875
11.353776,9.41714753305408,0.1095243344185987
11.35616,9.414684589172445,0.1093266237459292
11.35854,9.412081875663953,0.10913424281489381
11.360944,9.403984716595406,0.10900402617619374
11.363328,9.392954291220667,0.10889721060422958
11.365708,9.389512959951013,0.10873659163405597
11.368112,9.388493038308356,0.108542581923025
11.3705,9.385238698493804,0.10834510110253408
11.37288,9.375978056440001,0.10819982039584264
11.375276,9.361502508079868,0.10810519168355931
11.37766,9.341579735987924,0.10804124491976008
11.38004,9.323007438336338,0.10795470908353827
11.382436000000002,9.303783514378694,0.10786324991585235
11.38482,9.285630525607687,0.1077602115003195
11.387216,9.270410803142878,0.10763347347285125
11.389612,9.253421297357129,0.1075442836184217
11.392,9.238294122690936,0.1074426407220595
11.394380000000002,9.228102315077354,0.10730015931047063
11.396784,9.21749119858319,0.10717331725729673
11.399168,9.21274661470142,0.10699997586550179
11.401548000000002,9.203858059699956,0.10686601789880626
11.403944,9.189102972086099,0.10677815613853767
11.406332,9.175558589285744,0.10667340902946758
11.408712,9.16671725611252,0.10650733993618436
11.411116,9.160809189245493,0.10631766059174036
11.413504,9.141817582713328,0.10624253364441551
11.415884000000002,9.12254643692744,0.10617750273549822
11.418284,9.106580644500083,0.10610469984651735
11.420672,9.095689988752202,0.10598611541960544
11.423052000000002,9.087592829683654,0.1058496226735943
11.425448,9.087876160653112,0.10565966425136022
11.42784,9.088531578674909,0.10548599506676486
11.430219999999998,9.089838623002764,0.10531712604106393
11.432624,9.098734761435702,0.10509754640253252
11.435008,9.108422295801562,0.1048775144757542
11.437388,9.117178664607643,0.10466295410229949
11.439792,9.12765759490642,0.1044432515685167
11.44218,9.134272093339224,0.10425198814104134
11.44456,9.142748922891585,0.1040495462127333
11.446956,9.149083882070666,0.1038702563881265
11.44934,9.1602144386755,0.10365784323954053
11.451724,9.182146894945339,0.10336418092682757
11.45412,9.201146084908979,0.10309275135208514
11.456508,9.218934570059123,0.1028388050417349
11.458888000000002,9.237793990395904,0.10257527536629259
11.461284,9.26708322334535,0.1022144967311099
11.463672,9.293439189988602,0.10187442078020406
11.466068,9.322496105512572,0.10149546051687655
11.468464,9.348619754730345,0.10114079463677363
11.470852,9.374091777642061,0.10078134884203814
11.473232,9.395699368687806,0.100449682565942
11.475628,9.409857635255323,0.10015877466480413
11.478016,9.427508246636476,0.09982843350276147
11.480396,9.441294426151655,0.09952716850458201
11.4828,9.456570849734053,0.0992015551005517
11.485184,9.47454822219717,0.09883615725633701
11.487564,9.489732097980953,0.09848679270461479
11.489964,9.50584713932451,0.09813168900404455
11.492348,9.519727762496178,0.09777157386425125
11.494732,9.533096528988645,0.09740250494081208
11.497128,9.542089006935942,0.09704810857534846
11.499516,9.545774030778286,0.09671569786347034
11.501896,9.555605126486743,0.09633627595958745
11.504292,9.564644826262285,0.09595688549269482
11.50668,9.57075125973163,0.09559657644699249
11.509064,9.573365348387338,0.09527656732162496
11.51146,9.581194343349377,0.09491391288160897
11.513848,9.584879367191725,0.09458569097087731
11.516244,9.585770894354738,0.09427035947399182
11.51864,9.58680219114461,0.09394982434011491
11.521024,9.590394667188342,0.093596138489512
11.523404,9.60199554621774,0.09318609062460638
11.5258,9.608241749313944,0.0928239663470198
11.528188,9.610623520544175,0.09248398229681919
11.530572,9.61207412621463,0.09214927882824495
11.532964,9.610032387071445,0.09185202968964236
11.535352,9.6102722879284,0.0915318226331201
11.537748,9.61279382878549,0.0911888632252974
11.540144000000002,9.62062282374753,0.09083183967060277
11.542532,9.625099243522795,0.09050617101038258
11.544912,9.632089620723674,0.0901772324769425
11.547312000000002,9.635447883484058,0.08988946774759154
11.5497,9.631449369564834,0.08966023298155354
11.55208,9.629033647511443,0.08943267656940986
11.554476,9.631413522883808,0.0891804416999014
11.556864,9.632210606390332,0.08892623245771317
11.559244,9.630726049896722,0.08869524903736532
11.561644,9.629893119709168,0.08846986250432354
11.564032,9.634507413253425,0.08822585134612752
11.566412,9.641775433850155,0.08797564267481135
11.568816000000002,9.648344606312586,0.08775043746271956
11.571204000000002,9.654494469894432,0.08754093299052122
11.573584,9.664788304595977,0.0873024638697356
11.575988,9.681879837469689,0.08702926846369806
11.578372000000002,9.699343457395738,0.08677237058216768
11.580756,9.719740343627981,0.08649977140049767
11.583152000000002,9.737715820233229,0.08625418158420381
11.585540000000002,9.754201052771256,0.0860320670946122
11.58792,9.765890687883532,0.08583378909419864
11.590316,9.783307085981338,0.0856098212985979
11.592704,9.800723484079144,0.08538631169475133
11.595084,9.820141982923367,0.08515002446127078
11.59748,9.840771186581089,0.08489949736328498
11.599868,9.857396188745977,0.08467237079407422
