Time,Force,Position
12.672508,0.02283751167159565,0.0
12.674896,0.032224065701229446,0.0
12.67728,0.0409313168211979,0.0
12.679676,0.048707402381388036,0.0
12.682068,0.057954186784161615,0.0
12.684448,0.06412793525387982,0.0
12.686844,0.06829958297718118,0.0
12.689232,0.07032936032720546,0.0
12.691612,0.07315053361014787,0.0
12.694024,0.07289053958106316,0.0
12.696412,0.07466032290200275,0.0
12.698792,0.0748277691324704,0.0
12.701187999999998,0.07592638092271636,0.0
12.703575999999998,0.07166218540079795,0.0
12.705956,0.07112265211799282,0.0
12.708351999999998,0.07140219137171325,0.0
12.71074,0.07140219137171325,0.0
12.71312,0.06830147883505042,0.0
12.715516,0.06319866555197076,0.0
12.717904,0.06102911857508625,0.0
12.720284,0.05564676603828616,0.0
12.72268,0.046260212008652365,0.0
12.725072,0.03687365797901857,0.0
12.727452,0.0285580391360233,0.0
12.729848,0.019311254733249714,0.0
12.732236,0.013137506263531508,0.0
12.73462,0.008965858540230156,0.0
12.737032,0.006936081190205865,0.0
12.73942,0.004114907907263463,0.0
12.7418,0.004114907907263463,0.0
12.744196,0.002085130557239172,0.0
12.746584,0.0019176843267715215,0.0
12.748967999999998,0.0008190725365255506,0.0
12.751364,0.0008190725365255506,0.0
12.753752,0.0008190725365255506,0.0
12.756132,0.0,0.0
12.758527999999998,0.0,0.0
12.760915999999998,0.0,0.0
12.7633,0.0,0.0
12.765695999999998,0.0,0.0
12.768083999999998,0.0,0.0
12.770464,0.0,0.0
12.772859999999998,0.0,0.0
12.775248,0.0,0.0
12.777628,0.0,0.0
12.780027999999998,0.0,0.0
12.782416,0.0,0.0
12.784796,0.0,0.0
12.787195999999998,0.0,0.0
12.789583999999998,0.0,0.0
12.79196,0.0,0.0
12.794376,0.0,0.0
12.796764,0.0,0.0
12.799143999999998,0.0,0.0
12.801548,0.0,0.0
12.803932,0.0,0.0
12.806311999999998,0.0,0.0
12.808728,0.0,0.0
12.811115999999998,0.0,0.0
12.813492,0.0,0.0
12.815888,0.0,0.0
12.818276,0.0,0.0
12.820656,0.0,0.0
12.823052,0.0,0.0
12.82544,0.0,0.0
12.82782,0.0,0.0
12.830216,0.0,0.0
12.8326,0.0,0.0
12.834979999999998,0.0,0.0
12.837376,0.0,0.0
12.839764,0.0,0.0
12.842144,0.0,0.0
12.84454,0.0,0.0
12.846924,0.0,0.0
12.849304,0.0,0.0
12.851703999999998,0.0,0.0
12.854095999999998,0.0,0.0
12.856476,0.0,0.0
12.858871999999998,0.0,0.0
12.861263999999998,0.0,0.0
12.863644,0.0,0.0
12.866039999999998,0.0,0.0
12.868432,0.0,0.0
12.870812,0.0,0.0
12.873207999999998,0.0026341818278390406,0.0
12.875595999999998,0.006339298842316612,0.0
12.877976,0.008833711043295441,0.0
12.880375999999998,0.015192555110247766,0.0
12.882768,0.020620233617421765,0.0
12.885148,0.02525651619167766,0.0
12.887543999999998,0.02803046764637691,0.0
12.889931999999998,0.02894208798151952,0.0
12.892312,0.02894208798151952,0.0
12.894728,0.02894208798151952,0.0
12.897116,0.02894208798151952,0.0
12.899496,0.02894208798151952,0.0
12.901892,0.02894208798151952,0.0
12.90428,0.02894208798151952,0.0
12.906664,0.02894208798151952,0.0
12.90906,0.02894208798151952,0.0
12.911448,0.02894208798151952,0.0
12.913828,0.02894208798151952,0.0
12.916244,0.028942087981519524,0.0
12.918632,0.028942087981519524,0.0
12.921012,0.02630790615368048,0.0
12.923407999999998,0.022602789139202915,0.0
12.925795999999998,0.020108376938224082,0.0
12.928176,0.013749532871271758,0.0
12.930571999999998,0.014348249775478772,0.0
12.93296,0.022996903919988623,0.0
12.935344,0.052357830231491084,0.0
12.937739999999998,0.11700291658447562,0.010583430746914469
12.940127999999998,0.20471491767857142,0.020683852406214877
12.942508,0.3106724553422884,0.030538169490509394
12.944904,0.4333852855084075,0.040373750573455915
12.947292,0.5801157412000518,0.04993912183836432
12.949676,0.7551003413355324,0.05917651530301492
12.952072,0.9631819051688439,0.06794487598582981
12.954456,1.2008227619159766,0.07639389557864584
12.95684,1.465928263031897,0.08460152547000838
12.959236,1.7462062647843832,0.09291761615324405
12.961624,2.0482674738905002,0.10123997841339699
12.964004,2.38249448113467,0.10937744895835516
12.9664,2.750704291666076,0.1172627599830576
12.968788,3.1345531335428714,0.12518009086055373
12.971168,3.5359958856832314,0.13313046200805348
12.973564,3.9632732684982983,0.14100821340483033
12.975952,4.41606041676398,0.14877585746706964
12.978336,4.881674902381455,0.15643719205016812
12.980732,5.353811338633119,0.1639827929316164
12.98312,5.811661113837621,0.17145542623215548
12.985499999999998,6.230177201537432,0.16836015855957795
12.9879,6.631101274831549,0.1656752674125224
12.990288,7.020018431220773,0.16318148834780594
12.992667999999998,7.39688334473473,0.1606310896735595
12.995064,7.746100414140535,0.15832897721088932
12.997452,8.060499854213681,0.15636579976523474
12.999831999999998,8.332118587938876,0.1549530476246874
13.002232,8.565517999458525,0.15395945895656904
13.004624,8.76772810437027,0.1532475690134336
13.007003999999998,8.959980614951785,0.15235365796059103
13.009415999999998,9.131660622993168,0.1514320068641527
13.0118,9.26838133621716,0.1507249215141048
13.014184,9.367766670967143,0.15032356082837695
13.01658,9.457611824409604,0.14983764319985687
13.018964,9.527069570909164,0.1493485444404985
13.021344,9.566875476696287,0.14894718929665
13.02376,9.574793227741207,0.1487218140005256
13.026144,9.561855145276535,0.14862965694466954
13.028527999999998,9.535416110124011,0.14864117802256627
13.030924,9.504181477545737,0.14870600268943313
13.033312,9.477834990191832,0.14874000023532305
13.035692,9.444271495785177,0.14887201994416724
13.038092,9.40540054727357,0.14904851679947148
13.04048,9.365271672120224,0.14927073228918158
13.04286,9.331426742601977,0.14948995281738842
13.045255999999998,9.302515284278474,0.14973840763899843
13.047643999999998,9.289945497150406,0.14982805422936066
13.050024,9.292274358978785,0.14975999584241512
13.052423999999998,9.304286963457287,0.14960665662658498
13.054811999999998,9.314529784614848,0.1495000615483019
13.057192,9.326634936891965,0.149375417259513
13.059587999999998,9.336505670997191,0.1492551049850945
13.061975999999998,9.34535269174402,0.1491177664610976
13.06436,9.345819222452844,0.1490697088618027
13.066755999999998,9.356575796147471,0.14888449642221194
13.069147999999998,9.37385052876055,0.1486316400124191
13.071528,9.40006482991907,0.14826654129446615
13.073923999999998,9.430795189249626,0.1478583380497378
13.076311999999998,9.466693233058267,0.14741389418807474
13.078696,9.500541954292249,0.14702339926883354
13.081091999999998,9.534063914444266,0.1466737385300594
13.083479999999998,9.572521241648898,0.146264191364615
13.08586,9.611397877734111,0.14583983458741467
13.088256,9.64682939083393,0.14544511478668642
13.090644,9.68333183912039,0.14504009450136268
13.093028,9.72681897703412,0.14452488481392728
13.095424,9.75941166748423,0.14411389811121247
13.097812,9.78860645677719,0.1437061196643214
13.100192,9.810259373793306,0.14334962837268345
13.102591999999998,9.82860693745089,0.14301459502698
13.10498,9.843509378123082,0.1427061578502753
13.10736,9.864650438459998,0.14234454939364216
13.109759999999998,9.890167787342088,0.1419464020425231
13.112148,9.921039812157371,0.14147572831806027
13.114528,9.948139952905297,0.14107929822465815
13.116924,9.973470310332283,0.1407272006989728
13.119312,9.996658797385994,0.14040577555233885
13.121692,10.01416774328242,0.1401122549783386
13.124088,10.025717608767835,0.13985944031332734
13.12648,10.04490379018658,0.1395056897230022
13.12886,10.07042303492654,0.1390484287331425
13.131256,10.092636926307964,0.13861045601999156
13.133644,10.112057321010056,0.13819795645414745
13.136028,10.129894923846313,0.13779076509773053
13.138424,10.143635777391118,0.1374059640041682
13.140812,10.149927306457695,0.13708876256301478
13.143196,10.159152101830468,0.13673968125279934
13.145592,10.159949185336997,0.13649285883125087
13.14798,10.161537664776441,0.13624248008318451
13.150364,10.161403582723185,0.13600300376637858
13.15276,10.157916925483157,0.13580897968771
13.155152,10.153918411563927,0.13560745761501178
13.157532,10.149408040965508,0.1353980842275848
13.159928,10.139310677008414,0.13523828393768822
13.162316,10.12483702450615,0.13510900673074752
13.1647,10.108128953831992,0.13498283903023423
13.167112,10.087696220918719,0.13488919107645506
13.1695,10.070056984684783,0.1347704444210376
13.171879999999998,10.04827377733115,0.13470108322102609
13.174276,10.022346598857826,0.13467901399051202
13.176664,9.985989607771833,0.13478024901002625
13.179044,9.948793998924682,0.1349138874370173
13.181439999999998,9.911039311570091,0.13507030186962798
13.183827999999998,9.874587876827615,0.13523260790809039
13.186208,9.83650642839106,0.13543092127132103
13.188603999999998,9.802661498872816,0.1356028527884728
13.190991999999998,9.771190757153324,0.13576556368154427
13.193372,9.744375843232726,0.13588938497668032
13.195771999999998,9.718631864498766,0.13599926056495162
13.198156,9.699685583936974,0.13603851845464096
13.200536,9.687025144868153,0.13600099647091235
13.202939999999998,9.669941195425917,0.13602373821704142
13.205327999999998,9.651367001916464,0.13607687647838418
13.207704,9.63716909695218,0.13609920154241573
13.21012,9.622971191987897,0.13612148211705366
13.212504,9.611427014076089,0.13612383345514617
13.214883999999998,9.604119355082593,0.13610096600734822
13.217299999999998,9.59969774056705,0.13607741123263645
13.219687999999998,9.601514745716234,0.13600638533435253
13.222068,9.600118945305502,0.1359767961521951
13.22448,9.606963865305913,0.13587697443168473
13.226868,9.618744152358936,0.13572455509700773
13.229247999999998,9.634528640904794,0.13552764216446148
13.231652,9.65194314314473,0.13529545139744512
13.23404,9.675363947623918,0.13499777469012086
13.23642,9.69585148579691,0.13473144646345156
13.238824,9.717409959156539,0.13445320304729064
13.241212,9.742041468449225,0.13414028028600178
13.243592,9.772259971100581,0.13378251718017822
13.245988,9.793399135579634,0.133525297675525
13.248376,9.813048055991462,0.1332995131406446
13.250752,9.843498876068296,0.13296722207956327
13.25316,9.88116670319788,0.13255577808646823
13.255544,9.918182904021405,0.13214414839470515
13.257924,9.95491956559121,0.1317422369215652
13.260331999999998,9.992307853467072,0.13134606305865895
13.262716,10.03211755096993,0.13091724669803437
13.2651,10.071834700674172,0.13046886477071695
13.267496,10.114252799259134,0.1299792845415449
13.26988,10.158161141911313,0.12945973387276352
13.27226,10.198764131204959,0.12895717702280712
13.274663999999998,10.235782227886355,0.12848209954139192
13.277052,10.27335940307519,0.12799090059714255
13.279432,10.312007513450665,0.12749127106918837
13.281835999999998,10.347070731213886,0.12701949750472108
13.284223999999998,10.384275819350384,0.12652426036844588
13.286604,10.420829281180822,0.12602966491416887
13.288999999999998,10.454589246331926,0.1255578913838536
13.291388,10.482901987751221,0.12512781403732295
13.293768,10.515498469917071,0.12464795817825712
13.296164,10.550516361709919,0.12413835936387611
13.298552,10.57687422421104,0.12370466923146889
13.300932,10.596294618913129,0.12333536176611987
13.303328,10.616134322495801,0.12295329697543321
13.305716,10.639466370892107,0.12252817680422581
13.308096,10.659213526676163,0.12212516208114259
13.310496,10.677238120967523,0.12173355555925831
13.31288,10.693540153766186,0.12135214966811457
13.315264,10.70532612839282,0.12100021934218062
13.31766,10.719905599698784,0.12063026488214947
13.320048,10.734345301377893,0.12026483094287115
13.322444,10.751718269363195,0.11987697291544568
13.324839999999998,10.763876331042164,0.11953977939444431
13.327227999999998,10.772961356788079,0.1192316764430943
13.329608,10.782325921787711,0.11891475244020824
13.332012,10.791830256414205,0.1185943453474228
13.3344,10.801194821413837,0.11827987180452108
13.33678,10.81190986085383,0.11794552537732643
13.339175999999998,10.817689533241213,0.11764960259996096
13.34156,10.824679910442091,0.11733905848395575
13.34394,10.826595150963499,0.11707327096858426
13.346348,10.830512492231323,0.1167905761193827
13.348731999999998,10.834709372752867,0.11649763199954764
13.351112,10.835693447714497,0.11623682198696915
13.353507999999998,10.828389580436742,0.11605146826683635
13.355896,10.823879209838317,0.11584800262546606
13.358276,10.812803458493205,0.11571311130152487
13.360672,10.797304196774677,0.1156256651355402
13.36306,10.782316791735346,0.11554602827110541
13.36544,10.765606825203317,0.11547316007471863
13.367836,10.749967793857927,0.11538934492622559
13.370224,10.72524942434023,0.11538291516381442
13.37262,10.700670824449395,0.11537219694947698
13.375011999999998,10.676231994185418,0.11535642479780633
13.377399999999998,10.650442689481082,0.11536031678984363
13.37978,10.620369644030196,0.11540713912098344
13.382176,10.587363332273112,0.1154762113393099
13.384564,10.554589337941504,0.11556208859695083
13.386944,10.529404437714984,0.11559554855790163
13.389347999999998,10.503380919727306,0.11565669096948639
13.391735999999998,10.478148797672542,0.11571688121049055
13.394116,10.4537080715507,0.11577511923507669
13.396515999999998,10.43192107248133,0.11582004877203005
13.3989,10.414929670837713,0.11583032420978229
13.401284,10.408879938485958,0.11575254148887043
13.403688,10.400176479081729,0.11568738497992316
13.406071999999998,10.39668792598383,0.1155737628602485
13.408456,10.399205675125183,0.11541038052679291
13.410851999999998,10.399441784266399,0.1152728328633459
13.413239999999998,10.398467188594116,0.11515069875156027
13.41562,10.398423758481611,0.11502289812394764
13.418024,10.410113393593885,0.11480561013078674
13.420412,10.427529791691692,0.11454897437652059
13.422792,10.447599916841973,0.11428057269448667
13.425188,10.466599106805615,0.1140220833856727
13.427575999999998,10.489462728635234,0.11373493858209942
13.429956,10.51619078233082,0.11342048650175522
13.432351999999998,10.54440908009363,0.11308320629931441
13.434739999999998,10.570113420430824,0.1127559695972251
13.437124,10.595585443342541,0.11241173690453277
13.439519999999998,10.624270271814174,0.1120376788990894
13.441907999999998,10.65123253879311,0.11167105269598923
13.444288,10.675541078719572,0.11131692645510365
13.446684,10.697056121966696,0.11098167090537317
13.449072,10.715777668534486,0.11066663550462194
13.451456,10.738363646968251,0.11032620771958003
13.45386,10.764162430961932,0.10995814161801093
13.456243999999998,10.786096783089638,0.10961675833714696
13.458624,10.813944889657979,0.10920908182514714
13.46102,10.844866032159377,0.10877801096161704
13.463404,10.873924843541216,0.1083585114214118
13.465804,10.89953853193766,0.10795487763475399
13.4682,10.92342965884141,0.10755982740027203
13.470584,10.943875662759766,0.10717682763257247
13.472967999999998,10.967534472238041,0.10676553289727142
13.475364,10.993102834664109,0.10632070959754161
13.477752,11.01508630447793,0.10589226411297355
13.480132,11.033624651306354,0.10547588240609715
13.482528,11.052302767761642,0.10505621148310132
13.484915999999998,11.071120653843789,0.10463326738254906
13.487296,11.087145043246599,0.10422606387109615
13.489704,11.10330920227627,0.1038144309770709
13.492088,11.125200124291474,0.10337185004133984
13.494468,11.147230815933534,0.10292587629985335
13.496868,11.165536845336485,0.10249959298446445
13.499251999999998,11.182120313246738,0.10208010120257018
13.501636,11.196841450037436,0.10167245871677975
13.50404,11.214635622761186,0.10124293401558361
13.506428,11.226935349924885,0.1008631579338293
13.508807999999998,11.236441580409249,0.1004976867432696
13.511204,11.24701874608025,0.10012377599051732
13.513592,11.254802415071918,0.09976339964419094
13.515975999999998,11.261794688130667,0.0994040354288613
13.518372,11.272651393055389,0.09902401082960346
13.52076,11.281505997233696,0.09865732665573325
13.523139999999998,11.287659652531282,0.09832591107331545
13.525544,11.293673538202013,0.09799801179410075
13.527932,11.300059510925074,0.09768260311462224
13.530312,11.3070971099542,0.09737234899831526
13.532716,11.312784234542962,0.09707908879233407
13.535104,11.319262755064646,0.09678612785614182
13.537484,11.326532671519244,0.09649350176659091
13.539884,11.328215594615173,0.09622598595966732
13.542272,11.326825481778048,0.09597848876076569
13.544652,11.327157930433618,0.09572701230616139
13.547048,11.328142005395247,0.09548047144900242
13.549436,11.325913274796964,0.09525837909088136
13.55182,11.323684544198677,0.09503678948439696
13.554216,11.322386979160168,0.09481086188620166
13.556604,11.323603371547275,0.09458204938250105
13.558984,11.325471390240438,0.09435815080104312
13.56138,11.331436158225053,0.094132310472125
13.563768,11.338704178821786,0.09391626079091248
13.566147999999998,11.343690559418379,0.0937208587123435
13.568552,11.35053927113453,0.09351829775700192
13.57094,11.35845891803732,0.09330836492962612
13.57332,11.369823687925502,0.09309222622294021
13.57572,11.38090891855996,0.092884052020044
13.578104,11.389060882888227,0.09269109852713506
13.580488,11.395210746470074,0.09250904514378026
13.582884,11.400941301171343,0.09233952991324364
13.585272,11.406671855872611,0.0921702638128756
13.587656,11.414636828745776,0.0920066463774932
13.590052,11.429259730164247,0.09181410074002863
13.59244,11.442671926769219,0.09163349095947224
13.594824,11.453662713747196,0.09147666316725038
13.59722,11.467446997404506,0.09130918251286735
13.599608,11.479089410688537,0.09115745117341993
13.601988,11.493385551025046,0.09099955899898232
13.604388,11.506750525801777,0.09084596760286434
13.606776,11.51932410464559,0.09069227036526796
13.609156,11.529243956436924,0.09054553308150849
13.611552,11.536649850802647,0.09040132513534921
13.61394,11.540051543675535,0.09027856447969904
13.616319999999998,11.546898359533815,0.09015107403159447
13.618716,11.549740973899262,0.09004515794583384
13.621104,11.548719156398732,0.08995685982498416
13.6235,11.553843410764316,0.08983264107253837
13.625896,11.560690226622594,0.08970562192508374
13.628284,11.573124035839545,0.08955861034902435
13.630664,11.586908319496853,0.08939652839414763
13.63306,11.598271193527168,0.08925703166717223
13.635448,11.608051275691642,0.08911624063478828
13.637832,11.610893890057087,0.08901096424055122
13.640228,11.614667669982314,0.08890233502622466
13.642616,11.619652154721036,0.08878224276925324
13.645,11.62435710020604,0.088670470936447
13.647396,11.631715772743519,0.08855307125965516
13.64978,11.639493754161577,0.08842434846203859
13.65216,11.641405202967245,0.08832273020335983
13.654556,11.64396827807897,0.08822603616746888
13.656944,11.645600187630917,0.0881325617044126
13.659323999999998,11.644950457182727,0.08805730855076364
13.661732,11.653240295279984,0.08793722005893254
13.66412,11.655431283339372,0.08782800604196042
13.6665,11.660835076958678,0.08769710925768391
13.668896,11.670522611324538,0.08753774273981504
13.671284,11.673272677891369,0.08741292849897982
13.673664,11.676302283711921,0.08728027503310537
13.676064,11.678028636920354,0.08713858740709254
13.678452,11.677101263076311,0.0870021610596259
13.680832,11.681528565165463,0.08683098541604907
13.683232,11.68795796800103,0.08665000442851638
13.68562,11.696669010836738,0.08645060763641432
13.688,11.706870297739663,0.08623295415669206
13.690404,11.717630663150029,0.08599993563282622
13.692792,11.729229646321556,0.08574420779961683
13.695172,11.741247938373663,0.08547804327435847
13.697568,11.750472733746435,0.08522135709571917
13.699956,11.768125240985457,0.08491439496432097
13.702336,11.785545430798999,0.08459182039564926
13.704736,11.803384929493127,0.08425767551642398
13.707124,11.822714672254472,0.08390396149661587
13.709504,11.836457421657146,0.08356918995079145
13.711908,11.84912923587318,0.08324020959207361
13.714292,11.858728014156162,0.08292698697049915
13.716676,11.867814935759943,0.08260645849668281
13.719072,11.879602806244446,0.0822572789538408
13.72146,11.890599280796028,0.08190719275448265
13.72384,11.90173552497447,0.08155470611880655
13.726236,11.913802934712692,0.0811992936410376
13.728624,11.925498257398576,0.08083366053266884
13.73102,11.9377526585919,0.080454219068777
13.733415999999998,11.954430570158639,0.08004737832099909
