Time,Force,Position
11.108568,0.0925039420261956,0.0
11.11096,0.09348719362605572,0.0
11.113348,0.09348719362605573,0.0
11.115744,0.09348719362605573,0.0
11.11814,0.09447044522591588,0.0
11.120528,0.09447044522591587,0.0
11.122904,0.09362696325291596,0.0
11.125312,0.087848114227304,0.0
11.127696,0.07885645964177647,0.0
11.13008,0.07093574024288747,0.0
11.132476,0.061012920097581615,0.0
11.134864,0.050950330325415544,0.0
11.137244,0.04102751018010969,0.0
11.13964,0.03217562522144236,0.0
11.142024,0.023183970635914826,0.0
11.144404,0.015263251237025818,0.0
11.146804,0.010275798144331981,0.0
11.149188,0.005288345051638147,0.0
11.151572,0.004077640238139406,0.0
11.153968,0.004217409864999617,0.0
11.156352,0.005148575424777937,0.0
11.158748,0.007010906544334577,0.0
11.161144,0.014000460383445264,0.0
11.163532,0.017916978289500566,0.0
11.165916,0.018568604595558466,0.0
11.168312,0.019272316941698182,0.0
11.1707,0.01927231694169818,0.0
11.173084,0.019272316941698182,0.0
11.175488,0.019272316941698182,0.0
11.177872,0.019272316941698182,0.0
11.180256,0.019272316941698182,0.0
11.182652,0.019272316941698182,0.0
11.18504,0.019272316941698182,0.0
11.18742,0.019272316941698182,0.0
11.18982,0.022117899661114958,0.0
11.192204,0.025894647940310055,0.0
11.194588,0.02939185696578473,0.0
11.196984,0.03088696524484255,0.0
11.199372,0.03181813080462087,0.0
11.201756,0.03219021785695835,0.0
11.204152,0.03056020416287898,0.0
11.20654,0.03079252158835625,0.0
11.208924,0.027020637520999816,0.0
11.21132,0.030186221252672254,0.0
11.213708,0.04084835129081441,0.0
11.216088,0.05351258207537342,0.0
11.218484,0.06674075557921193,0.0
11.220872,0.0781065979634938,0.0
11.223252,0.0913347714673323,0.0
11.225652,0.10563388015780935,0.0
11.22804,0.1200727584751466,0.0
11.23042,0.13758467272553923,0.0
11.232816,0.15309448622951502,0.0
11.235204,0.17153756603968598,0.0
11.237588,0.18205992645096794,0.0
11.239984,0.1896490205560547,0.0
11.242372,0.19565532279530526,0.0
11.244756,0.20380349540783288,0.0
11.247152,0.21088073283372194,0.0
11.24954,0.2162354087669146,0.0
11.251936,0.22037937988660855,0.0
11.25434,0.22051914951346877,0.0
11.256724,0.21930844469997002,0.0
11.259104,0.21237097690094114,0.0
11.261504,0.20007396895688093,0.0
11.263888,0.1867060258261822,0.0
11.266268,0.1734778523223437,0.0
11.268664,0.16211200993806182,0.0
11.271052,0.1488838364342233,0.0
11.273436,0.13458472774374625,0.0
11.275832,0.120145849426409,0.0
11.278216,0.10263393517601636,0.0
11.2806,0.08712412167204057,0.0
11.282996,0.06868104186186964,0.0
11.285384,0.05531309873117093,0.0
11.287764,0.04394725634688906,0.0
11.29016,0.03537977485378081,0.0
11.292548,0.027603689293590673,0.0
11.294928,0.02089853892003907,0.0
11.297328,0.016195489292904316,0.0
11.299716,0.013262222986709144,0.0
11.302112,0.01004455321495489,0.0
11.304504,0.008037588256699375,0.0
11.306892,0.008317127510419797,0.0
11.309276,0.0088810702296993,0.0
11.311672,0.013309444814952293,0.0
11.31406,0.01680665384042697,0.0
11.31644,0.01830176211948479,0.0
11.318844,0.021379662264378835,0.0
11.321232,0.02338662722263435,0.0
11.323616,0.029397793673723565,0.0
11.326012,0.03340685937839593,0.0
11.328396,0.03713638582934787,0.0
11.33078,0.040865912280299815,0.0
11.333176,0.04287287723855533,0.0
11.33556,0.0468819429432277,0.0
11.337944,0.045945913171610724,0.0
11.34034,0.04407871784021541,0.0
11.342728,0.04286801302671667,0.0
11.345112,0.04473034414627331,0.0
11.347508,0.04882709343772408,0.0
11.349896,0.05721244768756763,0.0
11.35228,0.06452686675077264,0.0
11.354684,0.06848384641536319,0.0
11.357072,0.07244082607995374,0.0
11.359452,0.07081081238587437,0.0
11.361852,0.07104312981135164,0.0
11.36424,0.0746280224236047,0.0
11.36662,0.07583872723710343,0.0
11.369024,0.07905153279701903,0.0
11.371412,0.07718920167746238,0.0
11.373792,0.07826013686410091,0.0
11.376196,0.08082131611795859,0.0
11.378584,0.08152016425225965,0.0
11.380968,0.08580390499881377,0.0
11.383364,0.08515227869275588,0.0
11.385752,0.08958065327800888,0.0
11.388132,0.0942885671169823,0.0
11.390528,0.0963378896916423,0.0
11.392916,0.09260836324069036,0.0
11.3953,0.08893092282982022,0.0
11.397696,0.08059765462005848,0.0
11.400084,0.07547719197021235,0.0
11.402468,0.07515232674611802,0.0
11.404864,0.07254582152188642,0.0
11.407252,0.07138233853663083,0.0
11.409636,0.06928768999159692,0.0
11.412032,0.06463186219270531,0.0
11.41442,0.06034325723431254,0.0
11.4168,0.05512348671614144,0.0
11.419196,0.05097465138460886,0.0
11.421584,0.045894650493297974,0.0
11.423964,0.03960394478848834,0.0
11.426364,0.03517557020323534,0.0
11.428748,0.0288848644984257,0.0
11.431128,0.02665044632653158,0.0
11.433524,0.023345092967998925,0.0
11.435912,0.018637179129025506,0.0
11.438292,0.015931366036468945,0.0
11.440688,0.015931366036468945,0.0
11.443076,0.014156718503690704,0.0
11.44546,0.014104632463608891,0.0
11.447864,0.011910676050250018,0.0
11.450252,0.007854388517334502,0.0
11.452632,0.005939971357696048,0.0
11.455028,0.004305093451778014,0.0
11.457416,0.00267021554585998,0.0
11.459796,0.0022460424534406875,0.0
11.462192,0.0022460424534406875,0.0
11.464576,0.004020689986218931,0.0
11.466972,0.004864171959218854,0.0
11.469368,0.005288345051638147,0.0
11.471756,0.00571251814405744,0.0
11.47414,0.012142993475727287,0.0
11.476536,0.01778207287447902,0.0
11.47892,0.017222994367038176,0.0
11.481304,0.018666016606014187,0.0
11.4837,0.02309439119126718,0.0
11.486088,0.03059580170957556,0.0
11.488468,0.039168147414522465,0.0
11.490864,0.04666955793283084,0.0
11.493252,0.05431073807799943,0.0
11.495632,0.06660774602205961,0.0
11.498028,0.08183802027231497,0.0
11.500416,0.09599735933593181,0.0
11.502796,0.10615249690671494,0.0
11.505192,0.11323459854444268,0.0
11.50758,0.11766297312969566,0.0
11.509956,0.12022901659539202,0.0
11.512372,0.1199494773416716,0.0
11.51476,0.1235343699539247,0.0
11.51714,0.1275385714467584,0.0
11.519536,0.1271143983543391,0.0
11.521924,0.12068392302266925,0.0
11.524308,0.11504484362391754,0.0
11.526704,0.11615541720732225,0.0
11.529092,0.13108801698693384,0.0
11.531472,0.16961893341149004,0.012006917188279235
11.533872,0.2351932894663837,0.022039585530868898
11.53626,0.3272539025020433,0.031118973983997794
11.538656,0.44133193617468036,0.03988781184394439
11.541052,0.571745953469139,0.04881424622653342
11.54344,0.7192401284900939,0.05776079809970549
11.545824,0.8956400742609429,0.06638726137762015
11.54822,1.1046251270504255,0.07469282652468534
11.550604,1.345730652007587,0.08276032995330862
11.552988,1.6145803605872562,0.09069128539697369
11.555384,1.9108002698792266,0.09859566665260568
11.557776,2.237044106935973,0.10643248639658144
11.560156,2.587492560973348,0.11426606101632558
11.562552,2.9519500326620327,0.12213810701785359
11.56494,3.333629327561943,0.1300306700912084
11.56732,3.7368643766018472,0.13801425128575165
11.569716,4.166678230421135,0.1459520165639375
11.572104,4.625214655250952,0.15372552925623104
11.574484,5.097392625757251,0.16139862047892456
11.57688,5.553094843014867,0.16907033722402212
11.579268,5.96899684205897,0.16488212367658234
11.581664,6.34961468106159,0.16271638665095728
11.58406,6.699182983083171,0.1615690528737826
11.586448,7.028456425960469,0.16073333801295395
11.588828,7.340649711111273,0.15970660176319348
11.591224,7.627616561780921,0.1586341078010456
11.593612,7.87375948087866,0.15795207320947738
11.595992,8.080938903666176,0.157686949967428
11.598392,8.257999955032435,0.15769103446424287
11.60078,8.408387757962823,0.1578631055050353
11.60316,8.526889302008875,0.15814958494980086
11.605556,8.614575522357239,0.15853562778723404
11.607944,8.680803400576059,0.15894068081134674
11.610324,8.735349227114085,0.15927814824801956
11.61272,8.775559274918834,0.15958452231504922
11.615108,8.806138489475313,0.15966665586010242
11.617492,8.810046351453794,0.1597675401585302
11.619888,8.779365109809351,0.16011957214763847
11.622276,8.734671058797861,0.16057368267923883
11.624656,8.695843540398762,0.1609415644560547
11.627056,8.681972396516443,0.16095437092674075
11.629444,8.668800100768424,0.16093695158730076
11.63184,8.659771776140103,0.16085562257070102
11.634236,8.656422992669064,0.1607326205434117
11.636624,8.662570960393044,0.16055103045790373
11.639008,8.675794269685042,0.1603580617949624
11.641404,8.700656200545337,0.1600688361557916
11.643792,8.73599326998867,0.15967138289683422
11.646176,8.777801276522206,0.15922770749334472
11.648572,8.82771023384003,0.1586984923923768
11.65096,8.892797379368025,0.15797896204892153
11.653344,8.961237100082798,0.15719904493120085
11.65574,9.030050803707779,0.15634855685621152
11.658128,9.09975034692216,0.1554484109135214
11.660508,9.170568047151423,0.15451106019407992
11.662904,9.23444827958166,0.15368504170387565
11.665292,9.296326411265479,0.15288593129075714
11.667672,9.367563420375326,0.15194557199010714
11.670068,9.439079968738891,0.15099658646602973
11.672456,9.507755798594877,0.1501248326774304
11.67484,9.566978307368352,0.14947042891524026
11.677236,9.634254545097868,0.14876830962642146
11.679624,9.699668451707826,0.14808439644884985
11.682008,9.758890960481303,0.14743573910226046
11.684404,9.81308555440355,0.14683903959609818
11.686788,9.8650457301539,0.14625492169481213
11.689184,9.912537069560463,0.14568536318852046
11.691588,9.955187485570903,0.14511661138452098
11.693972,9.990203481505878,0.1445760553680551
11.696352,10.017258296283432,0.14410695262542642
11.698743999999998,10.036444477702176,0.143734964196075
11.701131999999998,10.056142515800119,0.14337198099254914
11.703512,10.070857965017208,0.14309525107596052
11.705915999999998,10.076074767181408,0.14294540702260278
11.708303999999998,10.077659454905113,0.14285618458609212
11.710684,10.08119902154699,0.14277306196872908
11.713079999999998,10.090557898973016,0.14265499675007703
11.715464,10.095353496398767,0.1426053804378298
11.717844,10.102989812332098,0.1425014010496723
11.720247999999998,10.111045437146007,0.14238223497055094
11.722635999999998,10.118356887855244,0.14223800804089184
11.725016,10.12185112852675,0.14210561330458527
11.72742,10.123530259906941,0.14196117803607694
11.729807999999998,10.122555664234657,0.14183699537512068
11.732188,10.115062909643925,0.14177327608251145
11.734583999999998,10.109152946919028,0.14170294484824494
11.736971999999998,10.105989259045224,0.14163543884074126
11.739352,10.106642781209153,0.14155715085998505
11.741756,10.115257484530504,0.1414188467426169
11.744144,10.126525914904331,0.1412601630688613
11.746524,10.140448072330633,0.14108228852050098
11.748928,10.155301395316712,0.14089727453816003
11.751312,10.175509394235984,0.14064428502012016
11.753692,10.199629046849472,0.14032276089597534
11.756087999999998,10.22207335979851,0.13998381198783194
11.758475999999998,10.241491858642732,0.13965323703110263
11.760856,10.25881570894192,0.1393243755893537
11.763251999999998,10.278188881815769,0.13894585982024782
11.765636,10.29076435651745,0.13863677295663784
11.768031999999998,10.300965643420373,0.13833796956328806
11.770423999999998,10.313541118122055,0.1380317697945538
11.772811999999998,10.327140306182129,0.13774081898432886
11.775192,10.349631840959407,0.1373869713511991
11.777596,10.378781304281995,0.13697367272920782
11.779984,10.40858239391064,0.13655967802849817
11.782364,10.436381382792868,0.13616932674673035
11.78476,10.465391076488595,0.13576291324675982
11.787143999999998,10.492026582385565,0.13536635248599957
11.789524,10.51284277749839,0.1350017935833898
11.791923999999998,10.534777129626098,0.13459869272784214
11.794308,10.55447706358191,0.13420061138713008
11.796688,10.571802809738967,0.13381179730631307
11.799088,10.588337159963107,0.1334280955380216
11.801472,10.603148948694551,0.13305462200435192
11.803867999999998,10.61954352929183,0.13267601378066526
11.806272,10.637520901754947,0.13229296148928993
11.80866,10.651726390150706,0.13196706365910976
11.811039999999998,10.664022325598667,0.13168379916504977
11.81344,10.676830117725824,0.1314066603125003
11.815824,10.689637909852982,0.13113010530958305
11.818203999999998,10.698860809367886,0.13087896084758607
11.8206,10.707571852203593,0.13062065212337992
11.822988,10.71125498018807,0.13038853213870263
11.825368,10.70869948850782,0.1301976524167042
11.827763999999998,10.710847046454704,0.12994377129699689
11.830147999999998,10.707547380669778,0.1297274226158786
11.832528,10.703875627832515,0.12949922757090582
11.834924,10.702485514995391,0.12924234133343362
11.837312,10.697323518090911,0.1290399403877501
11.839692,10.688110097865353,0.12890304531253982
11.842088,10.675264563199299,0.12881698253438764
11.844476,10.663722281145361,0.12873604512598527
11.846856,10.648036027971727,0.12869807063371566
11.849252,10.632442322596711,0.12868249733548184
11.85164,10.61964211390103,0.12864513072217545
11.854019999999998,10.608052610018849,0.12859058991514993
11.856436,10.600514529457744,0.12847082708138377
11.858819999999998,10.59460646259072,0.12831948504515897
11.8612,10.59111980535069,0.1281343631432789
11.863596,10.586422443297163,0.12796590861378776
11.865984,10.583075555683994,0.12777569158151658
11.868364,10.581358681764906,0.1275544164417034
11.870776,10.576289232659041,0.12737301463407347
11.873164,10.572243496911572,0.12720660715475032
11.875543999999998,10.567219373776082,0.12707477207423104
11.877935999999998,10.571926215118953,0.12685992781863104
11.880323999999998,10.57300094202133,0.1266947863886257
11.88272,10.572026346349048,0.12657550743301307
11.885116,10.578920384035573,0.1263870976221769
11.887504,10.589306766535731,0.12615381324500782
11.889884,10.606398299409443,0.1258412504909851
11.89228,10.621907040417318,0.12553300307937806
11.894668,10.637276011798335,0.12522774991504473
11.897047999999998,10.655345932060069,0.12488008010292088
11.899444,10.668108398216852,0.12456410681155879
11.901832,10.676215036574744,0.12428214058752152
11.904215999999998,10.679618625305501,0.12406108767451951
11.906612,10.679529869222623,0.12388420470827838
11.909,10.68088413537872,0.12370891943140921
11.911379999999998,10.684240502281234,0.12351550977767144
11.913784,10.684384063623831,0.1233563811500518
11.916168,10.680895510525934,0.1232463929763197
11.918547999999998,10.679129518920735,0.12312759096545
11.920944,10.67978493694253,0.1229759657598961
11.923331999999998,10.676203836046017,0.12284304263216442
11.925715999999998,10.66410247548464,0.122774829523976
11.928112,10.651349488617202,0.12270352597630108
11.9305,10.633149278017953,0.1226680568051646
11.932896,10.607499742940478,0.12268660025789863
11.935292,10.579056711183668,0.12272484910464689
11.93768,10.545259003493667,0.12281999679875433
11.94006,10.511461295803667,0.12291471983001462
11.942464,10.483669890352916,0.12295382849717085
11.944852,10.455598945648445,0.1230012051841558
11.947232,10.43004195836959,0.12303836525223631
11.949635999999998,10.407138698143205,0.12306053152004438
11.952023999999998,10.389590113850016,0.12302482751311751
11.954404,10.378327371049796,0.12292486329636382
11.956799999999998,10.360826008584851,0.12286099156317255
11.959188,10.341741854254069,0.12280000759767482
11.961572,10.328803771789396,0.12267986682648101
11.963967999999998,10.316005458951588,0.12255458818530032
11.966356,10.304557620554135,0.12240782824042312
11.968736,10.293249551783541,0.12225607134811449
11.971132,10.287156389319282,0.12205225569574957
11.97352,10.285579285027055,0.1218205964598875
11.9759,10.287866612600798,0.12155795132074732
11.978296,10.298162343160211,0.12122300503229963
11.980684,10.318328807824846,0.12080472467532223
11.983068,10.341288769168818,0.12036753758776789
11.985464,10.365459435326287,0.1199131528783888
11.987852,10.38627752629698,0.1194955323018679
11.990232,10.405093516521259,0.11909872991799793
11.992628,10.420976240439341,0.11872624704685342
11.995016,10.435927798797646,0.11836021628369729
11.9974,10.451298666036529,0.11798036812792852
11.999796,10.465598598088778,0.11761404167589164
12.002184,10.476685724581108,0.1172828326504228
12.004568,10.496293110738302,0.11689155133793344
12.006964,10.516552123201555,0.11650416014353981
12.009352,10.532667164545115,0.11615751670726869
12.011732,10.55278640738151,0.11577772356694241
12.014128,10.571555175777542,0.11541864081659933
12.016516,10.5881820738003,0.11508198208872625
12.018912,10.6022477925692,0.11478272791054463
12.021307999999998,10.617803755405319,0.1144604460535124
12.023692,10.631217847868161,0.11415983657401453
12.026076,10.644771709957862,0.11385675436853697
12.028472,10.651248334621675,0.11361421009854114
12.03086,10.659727060031905,0.11335712993394279
12.03324,10.670207886188551,0.11308468015477556
12.035636,10.688976654584586,0.11273995588640642
12.038024,10.705883091861065,0.11240711768746124
12.040408,10.725862565070596,0.11204868701108872
12.042804,10.749846239772964,0.1116606194850726
12.045188,10.771128965594615,0.111311007524344
12.047572,10.791061216975903,0.11098179790372185
12.049968,10.808199971677858,0.11066837074791742
12.052356,10.817190553767285,0.11042203429375054
12.054752,10.826320905483573,0.11017143933735407
12.057147999999998,10.83638242275964,0.10991544600057772
12.059535999999998,10.843231134475788,0.10969007127188976
12.061916,10.851290551005437,0.10945012302792702
12.064315999999998,10.859489737161947,0.10920540391800714
12.066703999999998,10.86717706663926,0.1089523206527757
12.069088,10.867228080183239,0.10877318648970179
12.07148,10.86848979854072,0.1085794132944071
12.073864,10.8685408120847,0.10840087052462268
12.076244,10.869522991188461,0.10821665654997226
12.07864,10.863567702493192,0.10808320197517762
12.081024,10.853468442678231,0.10798444802131404
12.0834,10.840296146930212,0.10791035866966148
12.085795999999998,10.827635707861392,0.10784463808768854
12.088179999999998,10.810551758419157,0.10782244625940217
12.090556,10.788252902670589,0.10784403212711978
12.092952,10.769446391735658,0.10782712178501513
12.095336,10.750919420054448,0.10780078143169834
12.097715999999998,10.738258980985623,0.10773416979955945
12.100108,10.731884383409778,0.10761390449697322
12.102496,10.724438850647289,0.10750317353112308
12.104876,10.719135188258079,0.10737325435819557
12.107271999999998,10.715833626615282,0.10722868266278261
12.109656,10.715325561651824,0.10706947510233786
12.112036,10.716400288554201,0.10690940484624593
12.114439999999998,10.715984771389358,0.1067720760220734
12.116827999999998,10.722786261277264,0.1065766846836914
12.119208,10.73051891672495,0.10637683968813574
12.1216,10.737180636986,0.106186946581838
12.123984,10.745425149112883,0.1059963063376943
12.126364,10.756463157919102,0.10578986603541195
12.12878,10.772436533777933,0.10554961965690152
12.131163999999998,10.78347454258415,0.10534284805588119
12.133544,10.795071629897807,0.10511823330147725
12.135936,10.809881522771384,0.10486439491812193
12.138324,10.828975156391511,0.10457293875486375
12.1407,10.849791351504336,0.10427838910166562
12.143096,10.869396841803663,0.10399791006090932
12.14548,10.88285626023688,0.10376512625015173
12.147859999999998,10.896967304976151,0.10353832349233841
12.150256,10.912800911208121,0.10330670218543138
12.152639999999998,10.924350776693537,0.10311239740762913
12.15502,10.934969476619175,0.10292333169036832
12.157415999999998,10.941863514305698,0.10275384426089573
12.1598,10.946383364193471,0.10258511613285046
12.16218,10.955978350760711,0.10238008357098576
12.164583999999998,10.963711006208396,0.10218509631045228
12.166968,10.974516697589138,0.10196913372177988
12.169348,10.986253554529657,0.10174916317751594
12.171751999999998,10.999760194791117,0.1014996751649529
12.174139999999998,11.019412906918685,0.1012078765189445
12.176516,11.038925849419392,0.1009222472851705
12.178912,11.066447194905768,0.10058525129777517
12.181296,11.095691101884844,0.10024575176997705
12.183675999999998,11.127216648864053,0.09988672778335016
12.18608,11.15580892953707,0.0995462390876487
12.188468,11.182678648717388,0.09921244469215046
12.190848,11.211969777524706,0.09885423110131668
12.193244,11.248617683011632,0.09844306967731528
12.195628,11.282891400699805,0.09803421085114311
