Time,Force,Position
11.56928,0.16304667927231167,0.0
11.571668,0.15208372090291744,0.0
11.574048,0.13632516510777135,0.0
11.576444,0.12042683968576506,0.0
11.578832,0.10131570870384321,0.0
11.581216,0.08234434734878156,0.0
11.583612,0.06444392118035844,0.0
11.586,0.04854559575835216,0.0
11.588384,0.03665147182917959,0.0
11.59078,0.02661967901956365,0.0
11.593168,0.018869526210084992,0.0
11.595548,0.011910769333524442,0.0
11.597944,0.005231551710684314,0.0
11.600332,0.0028573639119299837,0.0
11.602716,0.0034164424193708245,0.0
11.605112,0.002904585740173134,0.0
11.6075,0.0029045857401731345,0.0
11.609896,0.002904585740173135,0.0
11.612291999999998,0.00362472295200586,0.0
11.614679999999998,0.00362472295200586,0.0
11.61706,0.00362472295200586,0.0
11.619459999999998,0.00362472295200586,0.0
11.621847999999998,0.00362472295200586,0.0
11.624228,0.00362472295200586,0.0
11.626623999999998,0.004344860163838585,0.0
11.629011999999998,0.008277802935586902,0.0
11.631396,0.011139810520696687,0.0
11.633791999999998,0.014793214038724585,0.0
11.636179999999998,0.01658428643719584,0.0
11.638564,0.018095819581946677,0.0
11.640959999999998,0.018095819581946677,0.0
11.643347999999998,0.01825687828633856,0.0
11.645728,0.0204200377371473,0.0
11.648132,0.020559807364007508,0.0
11.650519999999998,0.01825687828633856,0.0
11.6529,0.017956049955086466,0.0
11.655295999999998,0.0194675830998373,0.0
11.657683999999998,0.0194675830998373,0.0
11.660064,0.01918804384611688,0.0
11.66246,0.01962864180422919,0.0
11.664844,0.022071340508758343,0.0
11.667228,0.024374269586427293,0.0
11.669624,0.02437426958642729,0.0
11.672008,0.02437426958642729,0.0
11.674388,0.02488612626562498,0.0
11.676788,0.020953183493876662,0.0
11.679172,0.019183400172937078,0.0
11.681556,0.01552999665490918,0.0
11.683956,0.014831148520608132,0.0
11.68634,0.014551609266887713,0.0
11.688724,0.014712667971279595,0.0
11.69112,0.015783603157918127,0.0
11.693508,0.013620443707109391,0.0
11.695887999999998,0.013340904453388973,0.0
11.698288,0.014572898344419383,0.0
11.700672,0.02181119447470035,0.0
11.703055999999998,0.027677727087090695,0.0
11.705452,0.0359869584040102,0.0
11.70784,0.04185349101640054,0.0
11.710219999999998,0.04986189400206794,0.0
11.712616,0.05372632586804143,0.0
11.715004,0.05665959217423659,0.0
11.717384,0.06482905386429588,0.0
11.719784,0.07299851555435517,0.0
11.722172,0.07607155148741056,0.0
11.724552,0.08438078280433006,0.0
11.726952,0.09080639392416123,0.0
11.72934,0.09832422930816262,0.0
11.73172,0.10395844449507571,0.0
11.734115999999998,0.10931312042826836,0.0
11.736503999999998,0.1177408322945164,0.0
11.738888,0.12402667378748738,0.0
11.741283999999998,0.1324756747312671,0.0
11.743671999999998,0.13955291215715618,0.0
11.746056,0.1444882792097682,0.0
11.748468,0.14020453846321407,0.0
11.750856,0.1356412584629395,0.0
11.753236,0.1318693743955831,0.0
11.755632,0.13023936070150371,0.0
11.75802,0.12446537588773042,0.0
11.760404,0.12283536219365106,0.0
11.7628,0.12213651405935001,0.0
11.765188,0.11943556517863209,0.0
11.767568,0.11380134999171902,0.0
11.769964,0.11403366741719628,0.0
11.772352,0.10718874741678446,0.0
11.774731999999998,0.10071591446871014,0.0
11.777132,0.09319807908470874,0.0
11.77952,0.0872371028158321,0.0
11.781899999999998,0.08155566580067587,0.0
11.784296,0.07308073210618471,0.0
11.786684,0.06660789915811037,0.0
11.789063999999998,0.06027483583689626,0.0
11.79146,0.05743411732931814,0.0
11.793848,0.05859760031457374,0.0
11.796231999999998,0.06525552885988219,0.0
11.798628,0.0732639318455496,0.0
11.801016,0.07568534147254707,0.0
11.803396,0.07689604628604581,0.0
11.805792,0.08304211815215658,0.0
11.808184,0.08546352777915406,0.0
11.810564,0.0852312103536768,0.0
11.81296,0.08099469143536582,0.0
11.815347999999998,0.0826247051294452,0.0
11.817728,0.07931935177091255,0.0
11.820123999999998,0.0801579695320738,0.0
11.822511999999998,0.08369753617395298,0.0
11.824892,0.08921327081153752,0.0
11.827291999999998,0.09503447745355395,0.0
11.829679999999998,0.10164708002848849,0.0
11.83206,0.1078403737228424,0.0
11.834455999999998,0.11110040111100114,0.0
11.836844,0.10928529181968766,0.0
11.839228,0.1048877141969848,0.0
11.841623999999998,0.09755687026808678,0.0
11.844012,0.08794438633905148,0.0
11.846392,0.07712119759651744,0.0
11.848788,0.07016244071995688,0.0
11.85118,0.06427461903003485,0.0
11.85356,0.05545353103391766,0.0
11.855972,0.0483550045304969,0.0
11.85836,0.04404997470641111,0.0
11.860739999999998,0.04281798081538069,0.0
11.86314,0.038652720618155105,0.0
11.865528,0.037420726727124695,0.0
11.867907999999998,0.03511779764945575,0.0
11.870304,0.03053322857164954,0.0
11.872692,0.025017493934065,0.0
11.875075999999998,0.018430824109841933,0.0
11.877472,0.010912988725840542,0.0
11.87986,0.004605858155337893,0.0
11.882243999999998,0.00030082833125209466,0.0
11.88464,0.0,0.0
11.887028,0.0,0.0
11.889407999999998,0.0,0.0
11.891804,0.0,0.0
11.894192,0.0,0.0
11.896572,0.0,0.0
11.898972,0.0,0.0
11.90136,0.001092224264170205,0.0
11.90374,0.0032553837149789404,0.0
11.90614,0.0032553837149789404,0.0
11.908528,0.0032553837149789404,0.0
11.910908,0.0032553837149789404,0.0
11.913303999999998,0.0032553837149789404,0.0
11.915696,0.0032553837149789404,0.0
11.918076,0.0032553837149789404,0.0
11.920476,0.0032553837149789404,0.0
11.922864,0.0032553837149789404,0.0
11.925247999999998,0.004207838352288934,0.0
11.927644,0.004368897056680819,0.0
11.930032,0.0045299557610727036,0.0
11.932412,0.006693115211881439,0.0
11.934812,0.010066979476188915,0.0
11.9372,0.012649447807578281,0.0
11.939583999999998,0.014160980952329115,0.0
11.94198,0.014160980952329115,0.0
11.944368,0.014160980952329117,0.0
11.946747999999998,0.014160980952329117,0.0
11.949148,0.013068756688158913,0.0
11.951536,0.010905597237350175,0.0
11.953919999999998,0.010905597237350175,0.0
11.956316,0.010905597237350175,0.0
11.958704,0.010905597237350175,0.0
11.961087999999998,0.010905597237350177,0.0
11.963484,0.010905597237350177,0.0
11.965872,0.010905597237350177,0.0
11.968255999999998,0.010905597237350177,0.0
11.970652,0.010905597237350177,0.0
11.973044,0.009953142600040182,0.0
11.975424,0.009792083895648299,0.0
11.977824,0.009631025191256415,0.0
11.980212,0.007467865740447678,0.0
11.982592,0.004094001476140202,0.0
11.984992,0.0015115331447508357,0.0
11.98738,0.0,0.0
11.989764,0.0,0.0
11.99216,0.0,0.0
11.994548,0.0,0.0
11.996932,0.0,0.0
11.999332,0.0,0.0
12.00172,0.0,0.0
12.004096,0.0,0.0
12.006512,0.0,0.0
12.008895999999998,0.0,0.0
12.01128,0.03524306042781672,0.0
12.013675999999998,0.11876127276363813,0.00984474888421754
12.016059999999998,0.22434412756468036,0.01894632979084162
12.018444,0.3373252932999675,0.028459196458830827
12.020856,0.463801724149498,0.0383441106993927
12.023244,0.6148529631741253,0.04814758006658929
12.02564,0.8122698011589576,0.05691581414207435
12.028035999999998,1.0507466798569145,0.06498149983033595
12.030419999999998,1.3067721428480608,0.07298602007636416
12.0328,1.5773184801697149,0.08111268730635833
12.035199999999998,1.8747684874948463,0.08922969334291676
12.037584,2.208341272622621,0.09714404270442833
12.039964,2.5730108165596794,0.10483460502159045
12.042364,2.9489903251252,0.11257797124106425
12.044748,3.3357660457821154,0.12046805841114418
12.047132,3.7502368323754265,0.12836101346423404
12.049528,4.207395777518072,0.13601359104847688
12.051916,4.700821061805962,0.1433918054636055
12.0543,5.213288966169999,0.15057299872399385
12.056703999999998,5.730042507138457,0.15761959797850586
12.059088,6.203826019805022,0.1646644868199237
12.061468,6.6074982638080995,0.16208548610122653
12.063868,6.985054442024881,0.16032854581446038
12.066252,7.366805604905337,0.15803201012695978
12.068632,7.74502668043326,0.1551953957950635
12.071032,8.096393203643819,0.1523921695628903
12.073416,8.389895275952739,0.15068617920742672
12.075812,8.630371924898276,0.14979499235311347
12.078207999999998,8.850599040669904,0.14901780891835104
12.080595999999998,9.051369915058414,0.14817772111145527
12.082976,9.213411506420048,0.14746421088505682
12.085371999999998,9.335233570687588,0.14698043391873414
12.08776,9.416879537973537,0.14684571719542464
12.09014,9.494198334400432,0.1466238328302349
12.092536,9.566260690266356,0.14622455115164626
12.094924,9.610954741277848,0.1457787156827546
12.097308,9.603835969597327,0.1456392962888428
12.099704,9.55365316059939,0.14586190928206821
12.102092,9.48745354563012,0.1462691669328031
12.104487999999998,9.419901560362623,0.14677257547252662
12.106884,9.352442122893741,0.14731122421316892
12.109272,9.304072527329252,0.14762886235046344
12.111651999999998,9.260266211765034,0.1478755234247684
12.114048,9.20267750840138,0.14831858028518755
12.116435999999998,9.139080606940603,0.1489056383074537
12.118819999999998,9.080556946301426,0.14950779388569926
12.121216,9.028317231297354,0.15012845351768772
12.123603999999998,8.986133345995741,0.15069272012770266
12.125984,8.956194382598106,0.15111284021927432
12.128384,8.94436687371684,0.15131874028852968
12.130772,8.952932459352077,0.15127953991366172
12.133152,8.960846418681257,0.15123769227520414
12.135556,8.979422508048579,0.15106237288212326
12.137944,8.988594394019502,0.15096518250353916
12.140323999999998,8.989572781407524,0.15092323131674393
12.14272,8.989200694355187,0.1509095065449628
12.145108,8.995439314019913,0.15084852747831512
12.147488,9.009918654095788,0.15069734144850305
12.149883999999998,9.021185188611744,0.15059633372235973
12.152271999999998,9.03775917723265,0.1504481132924358
12.154656,9.065272939287548,0.15024417611132396
12.157051999999998,9.098978099178932,0.15001272126931445
12.159439999999998,9.136547690936291,0.14973646328191614
12.16182,9.183615929746535,0.14932211434633058
12.164224,9.223933692212855,0.1489599206444086
12.166612,9.261225640574363,0.14861180193640114
12.168992,9.30536250893628,0.1481456174524124
12.171392,9.351688469499718,0.14761232099823918
12.173775999999998,9.38632858666662,0.14720024163343787
12.176159999999998,9.407792616369765,0.1469431396791202
12.178564,9.420037538273743,0.1468122737793041
12.180948,9.435168504655673,0.14667580031629776
12.183331999999998,9.45230157178402,0.14651566415487735
12.185728,9.482098869696925,0.14621142221727645
12.188112,9.526003420633366,0.1457671342720196
12.190495999999998,9.570140288995283,0.14534149055592704
12.1929,9.618513676275514,0.1448853780178763
12.195288,9.667026833182605,0.14442550191467016
12.197672,9.720662348597411,0.1438754939736563
12.200068,9.769549488414707,0.1433604824635087
12.202456,9.815178496701712,0.14283944955255867
12.204835999999998,9.854336567898514,0.142352490505746
12.207232,9.889537659430726,0.14188678826883952
12.20962,9.919431296857987,0.1414697803946692
12.211999999999998,9.953980762084138,0.14100865765054127
12.214396,9.987179752869931,0.14057205434499312
12.216784,10.017305707722668,0.14017349172446203
12.219167999999998,10.046872584067968,0.1397965627200494
12.221564,10.080024353025518,0.13938921621316516
12.223952,10.117040553849042,0.13894487288767796
12.226332,10.157921186538541,0.1384636323728401
12.228727999999998,10.203225329601453,0.13792276555996724
12.231115999999998,10.244013414492336,0.1374214423475783
12.2335,10.274558678225656,0.13702045963644158
12.235896,10.292347163375798,0.13673008168324935
12.238288,10.310834496660242,0.13641376593601828
12.240667999999998,10.320429483227482,0.136161045323292
12.243064,10.32900075643633,0.13589402626921843
12.245451999999998,10.333847367406065,0.13566126867311987
12.247835999999998,10.334410237629244,0.1354818185649036
12.250232,10.335205425277898,0.1353203104405611
12.25262,10.342239232591282,0.1351139496721149
12.255003999999998,10.349645126957004,0.13492066376003542
12.2574,10.356911251695864,0.13473347875883485
12.259788,10.366459016434863,0.13451715873720133
12.262171999999998,10.379219586733779,0.13426283737526837
12.264568,10.392771552965613,0.13400542762838988
12.266951999999998,10.405951432145105,0.13373501884068886
12.269352,10.418387137219925,0.13344018902293414
12.271748,10.42393259632396,0.13318673564639052
12.274132,10.424450140576766,0.132959105698184
12.276516,10.417750677776823,0.13280943824678682
12.278912,10.413332854977018,0.13262941352590224
12.2813,10.40840317549801,0.13244164179579637
12.28368,10.402262791205509,0.1322709786383565
12.286084,10.395563328405567,0.13212037490726736
12.288472,10.396313190083848,0.13190767441652892
12.290852,10.395712577321772,0.13171795918116147
12.293259999999998,10.394972194932834,0.13153375193165068
12.295647999999998,10.393300646984121,0.13135674412252304
12.298028,10.389254911236653,0.13118694526600927
12.300423999999998,10.379622182130511,0.13106280683587498
12.302811999999998,10.369757135598894,0.13092064522755686
12.305192,10.353933008656272,0.13081087464154711
12.307591999999998,10.330007930929362,0.13075845951253112
12.309979999999998,10.30328935652312,0.13072762679145974
12.31236,10.274568681370459,0.13071733854583892
12.314756,10.248641502897135,0.13068369783832637
12.317144,10.221224080356592,0.13067743494157777
12.319528,10.197903407107498,0.13065386615303945
12.321924,10.174395742403302,0.13066396265049976
12.324312,10.156754610311497,0.13061868751982467
12.326692,10.139765104525749,0.13057556636320053
12.329088,10.124358390605837,0.13052739074986627
12.331476,10.111884942992118,0.13045138623155753
12.333856,10.102484531311456,0.13034239601395683
12.336256,10.096157155563848,0.1302009333854353
12.338644,10.091831880562657,0.13003959126027348
12.341024,10.086854979255412,0.12987552885537904
12.34342,10.0841597179483,0.12968128344317928
12.345808,10.082208630745868,0.12951256778901094
12.348188,10.084354292834883,0.12932729273853552
12.350588,10.081936674923623,0.12920184756071137
12.352976,10.087480238169787,0.12902504986634175
12.355356,10.0988431122001,0.12882165778171173
12.357752,10.112952261081505,0.1286248681905752
12.360144,10.13157746813494,0.12839594216583855
12.362524,10.1492715096286,0.1281759093677193
12.36492,10.172832083734646,0.12790376742846116
12.367308,10.19238845634786,0.12767025010556293
12.369692,10.21501786489413,0.1274041816869273
12.372088,10.235645172693982,0.12715828691540335
12.374476,10.254689688627998,0.12691801173334147
12.376855999999998,10.274013743815734,0.12666880322439897
12.379256,10.295060360496167,0.1264117105831655
12.381644,10.312614632362964,0.12620201466608388
12.38404,10.327747494602763,0.1260281791878688
12.386435999999998,10.341809421655924,0.1258669184164007
12.388823999999998,10.354520874268726,0.12572772604510124
12.391204,10.368023722814447,0.1255873394861928
12.3936,10.38809195210686,0.12537164623784652
12.395988,10.407788094346932,0.1251442254098078
12.398372,10.436703344386173,0.12482608549372129
12.400768,10.464966968119356,0.12450887336748818
12.403156,10.494069209613702,0.12416526864062431
12.405536,10.521216572189871,0.1238132240171018
12.407932,10.549202552527202,0.12343506327140119
12.410324,10.572392935438783,0.12309369918816518
12.412704,10.589996324991693,0.12279402502277359
12.415103999999998,10.613885556037573,0.12243167793270313
12.417492,10.63912526152381,0.12205065740921803
12.419872,10.666506837383327,0.12164786708034199
12.422271999999998,10.693888413242844,0.12124612984217137
12.42466,10.722852780968196,0.12084401118026847
12.42704,10.747021551267798,0.12047827121192446
12.429439999999998,10.771749400074839,0.1200928382084323
12.431827999999998,10.795034226642905,0.11970621274766878
12.434208,10.819809297278189,0.11929569129857107
12.436604,10.848868108660028,0.11884291489063813
12.438992,10.877135524108953,0.11839346859677491
12.441376,10.900095485452923,0.1179752229562123
12.443775999999998,10.921332885304198,0.11756548693772248
12.446163999999998,10.93805422698344,0.11718454584379331
12.448548,10.948257409744233,0.11684548643322634
12.450943999999998,10.953897312504756,0.11655840397631193
12.453331999999998,10.961259776757974,0.11626463041639695
12.455716,10.966340601011051,0.11599750239694542
12.458111999999998,10.980360993809578,0.11566059446366278
12.460499999999998,10.993170681794604,0.11533801626873595
12.462884,11.003606181980876,0.11502087951802384
12.465288,11.009525623995117,0.11472796427877789
12.467676,11.016516001195995,0.11442615084871187
12.470055999999998,11.023506378396878,0.11412473999410172
12.47246,11.024677444813609,0.11383972113547973
12.474844,11.030132251976898,0.11351407379502441
12.477227999999998,11.035447289513325,0.11319268716162445
12.479624,11.041833262236391,0.11286137095002352
12.482008,11.046868760519098,0.11254992351060787
12.484388,11.050321466935966,0.11224202286545924
12.486792,11.05056136779292,0.11196330540445991
12.48918,11.051964751635126,0.11169659770605748
12.491559999999998,11.054671388089455,0.11143731972256139
12.493964,11.054816845289922,0.11121100245393
12.496352,11.057895568796587,0.1109633167189603
12.498732,11.063255932303386,0.11069100916458136
12.501128,11.067545360623546,0.11042909113969922
12.503516,11.07011222745101,0.11017318781312356
12.505895999999998,11.063739525733032,0.10998337062717799
12.508292,11.063512895881162,0.10974440131834368
12.510675999999998,11.060585317148576,0.10954261896777091
12.513059999999998,11.06175448770744,0.10933263851223901
12.515456,11.058919456773468,0.10915252539042042
12.517843999999998,11.053151159533304,0.10899209304164068
12.520224,11.049477510838171,0.1088379787383212
12.522628,11.04417384844896,0.10871159710859093
12.525016,11.040080890873249,0.10857098333027101
12.527395999999998,11.036919098857316,0.10842537272612826
12.5298,11.032826141281603,0.10828477342434384
12.532188,11.02323873814584,0.1081962199354995
12.534567999999998,11.018586702062686,0.10807313744774252
12.536964,11.010210003740418,0.10797026435848649
12.539352,10.998527952059622,0.10787416241892489
12.541731999999998,10.987265209259402,0.1077643357369045
12.544136,10.978097115004216,0.10766163324596752
12.546524,10.96972041668195,0.10755827057177252
12.548904,10.959760926493846,0.10745582543022839
12.5513,10.952175624104498,0.1073515244796117
12.553688,10.951388019887318,0.1072028809318019
12.556067999999998,10.94380271749797,0.10709836806421343
12.558464,10.940081846974595,0.10696942274874924
12.560852,10.934498645331665,0.10685056922360746
12.563232,10.928775674061873,0.10673586197193652
12.565627999999998,10.924635494657917,0.10661982924040558
12.568015999999998,10.923568351187015,0.10647999677326278
12.570392,10.92813542290303,0.10628518967591272
12.572796,10.932422955365322,0.10609952413488154
12.575183999999998,10.937362114133673,0.10591864733245192
12.577564,10.943232438461802,0.10573295213753246
12.579959999999998,10.953386503536485,0.10550965097838935
12.582347999999998,10.960467532678113,0.10531012891599235
12.584744,10.970761367379655,0.10508255065632903
12.58714,10.98491963394717,0.10483136964572269
12.589528,11.00894863461991,0.10451800895837775
12.591912,11.031814152307396,0.10419321026608734
12.594308,11.05030338144971,0.10388270961126976
12.596696,11.07237750320428,0.10355877816968835
12.599075999999998,11.095802099399206,0.10321886078940147
12.601476,11.1147106374221,0.10289875798981406
12.60386,11.138275003243885,0.10255623280176228
12.606243999999998,11.160116807572974,0.10221983801539415
12.60864,11.181586524849727,0.10187098521513004
12.611028,11.208271148432813,0.1014836122473948
12.613407999999998,11.238448116829534,0.10106248947906314
12.615804,11.264760653360282,0.10066422552601834
12.618192,11.279851981345447,0.10034510246924337
12.620575999999998,11.298156114890526,0.10000173916052821
12.62298,11.311944190263576,0.09967594085452486
12.625368,11.326011804890344,0.09934214112038167
12.627752,11.339008484330474,0.09901723354348944
12.630148,11.354706112651321,0.09865893684789669
12.632536,11.371614445785669,0.09828931981446318
12.634916,11.388802318173736,0.09791305560985682
12.637316,11.392255024590602,0.09761696312097924
12.639704,11.395987270261195,0.09731295167565229
12.642084,11.40730861003687,0.09697304510025515
12.64448,11.41690738831985,0.09663813574924614
12.646868,11.422781504363718,0.096319628666075
