Time,Force,Position
12.620276,0.1611718905748682,0.0
12.622675999999998,0.16508354426908478,0.0
12.625064000000002,0.16927473721702185,0.0
12.627444,0.17719059240407223,0.0
12.629848,0.1836162035239034,0.0
12.632236,0.18985482318863123,0.0
12.634616,0.20400740218254015,0.0
12.637016,0.22039250349047396,0.0
12.639404,0.23621473457522843,0.0
12.641784,0.2597601418183222,0.0
12.64418,0.29903523234755325,0.012405343629573778
12.646567999999998,0.3630721225069846,0.022987683396161245
12.648948,0.456621083751994,0.03253735653202472
12.651352,0.5710693086190994,0.041921324780076444
12.65374,0.7021330563617466,0.05139136949951495
12.65612,0.8554918681372226,0.06064844153705823
12.65852,1.0340317884234795,0.06967874286147822
12.660904,1.242316097220792,0.07837587779789948
12.663288,1.4801596989319257,0.08681989907860463
12.665684,1.7322446357198464,0.09526868758098782
12.668072,1.9989429946368928,0.10378331417889748
12.670456,2.28537523833291,0.11236654889244192
12.672852,2.601179783487645,0.120780954438123
12.67524,2.9396533755854155,0.12908878735327944
12.67762,3.292834833468797,0.1374503394619729
12.680015999999998,3.6617950923244296,0.14584793757637937
12.682404000000002,4.042437402860861,0.15425076575822275
12.684784,4.4453332431754875,0.1624981718960453
12.687188,4.877703412036794,0.17043344067212257
12.689576,5.32288326888313,0.1781432461846446
12.691956,5.758666505764542,0.17333672396382485
12.694352,6.160004200365632,0.1703941026956987
12.696744,6.531922371679762,0.16852394921724287
12.699124,6.889040129409663,0.16678535177221052
12.70152,7.232662622025321,0.1648938421026224
12.703907999999998,7.548078192025386,0.1632121357619719
12.706288,7.828908450118269,0.16180266735929813
12.70868,8.071334290408373,0.16081096537227313
12.711068,8.283921298530935,0.16010614164922693
12.71346,8.47877462676307,0.15939787560751364
12.715856,8.65636080581361,0.1586116033549013
12.718240000000002,8.816215200831593,0.15771703695442113
12.72062,8.943204949577224,0.1570479268580379
12.723016,9.052785883656524,0.15645366838829783
12.7254,9.157762003480915,0.15571424256639907
12.72778,9.250359119348074,0.15488060740546145
12.730176,9.322336510846858,0.1540488254370833
12.732564,9.370386928760864,0.15335501992524322
12.734944,9.389386118724504,0.15297916355350816
12.73734,9.392787811597392,0.1528086414771638
12.739724,9.393488555589563,0.1526946514901801
12.742104,9.398565588126907,0.15254067549513256
12.7445,9.405831712865767,0.1523238775172531
12.746887999999998,9.411515045738792,0.15211755243751332
12.749268,9.41817487014197,0.1519580185677262
12.75168,9.432469114620607,0.15176901748224708
12.754068,9.45402569212237,0.15153454917191453
12.756448,9.48689602596833,0.15117221205384482
12.75886,9.524282417986324,0.1507647823044276
12.761247999999998,9.563531141123871,0.1503393180740063
12.763628,9.611300123926288,0.14982847813438183
12.766024000000002,9.658557250049503,0.1493164108259847
12.768412,9.707212072441324,0.14874194502654278
12.770792,9.745438978078345,0.14822726347828122
12.773208,9.775192845878749,0.14778435690738584
12.775592,9.802292986626675,0.14736929868695073
12.777976,9.831255458494159,0.14693445215471196
12.780372,9.860217930361642,0.14650096783466504
12.782756,9.886247135922929,0.1460987436764216
12.785139999999998,9.913067737417135,0.14569565992147032
12.78754,9.935697145963406,0.14537732794320288
12.789928,9.9638663260401,0.14503371193003714
12.792307999999998,9.99454946354241,0.14467647107635045
12.794712,10.02057677324583,0.14436551001516698
12.7971,10.045999678471436,0.14402753651777295
12.79948,10.067837691084787,0.1437221995890285
12.801876,10.091165947765356,0.14338727703016332
12.804264,10.110397455154477,0.1430777744496204
12.806644,10.128093392506003,0.14274810621947087
12.80904,10.146627947618692,0.14238940562796845
12.811428,10.151846645640761,0.14216448711479154
12.813808000000002,10.156646034782248,0.1419564348695277
12.816204,10.162608906908996,0.1417572253038125
12.818592,10.174810398700469,0.1415081708029814
12.820972,10.182448610491665,0.14132466367508495
12.823372,10.191110535641258,0.14115691989974996
12.825755999999998,10.20521968452266,0.14094519092937197
12.82814,10.217047193403928,0.14076586309029143
12.830544,10.234229378218387,0.1405176706128395
12.832932,10.246104108927899,0.14030969659431886
12.835312000000002,10.262961428518265,0.14002131794642295
12.837716,10.277212242884396,0.1397265367582848
12.840104,10.286155603145579,0.1394718085198395
12.842484,10.297008516354563,0.13917160777782864
12.844888,10.300923961764518,0.13894534981306553
12.847272,10.30726081680147,0.1386824096723872
12.849652,10.313178362957842,0.13843597470315258
12.852056,10.319747535420271,0.13819200055478867
12.854444,10.323475989375124,0.13800049806981998
12.856824,10.32371209851634,0.13785988963847057
12.85922,10.334982424748034,0.13762797785829414
12.861608,10.34476250691251,0.13742518912206078
12.863988,10.35868656019668,0.13717595958820372
12.866384,10.36916549049546,0.13694871848875012
12.868768,10.387700045608147,0.1366101603486036
12.871152,10.40521088736244,0.13625879882593098
12.873548,10.41727450538492,0.1359516852091885
12.875936,10.432039072288122,0.13559851573857673
12.878316000000002,10.441356415459513,0.1352867697057088
12.880712,10.451884463444399,0.13495565690079012
12.8831,10.458268540309593,0.1346720799877202
12.885496,10.462091437920932,0.13442916616290818
12.887888,10.470430393704302,0.1341529793083665
12.890276,10.481003767659566,0.1338750142353321
12.89266,10.495022264600223,0.13357512718890124
12.895056,10.508621452660302,0.13329238777836871
12.89744,10.526644151093791,0.13295745812725918
12.899820000000002,10.539451943220946,0.13267851335463732
12.902216,10.555752080161742,0.1323517457952359
12.904604,10.570888734117279,0.13201446309437587
12.906987999999998,10.576341645422698,0.13174121884583329
12.909384,10.578908512250162,0.1314669993808326
12.911772,10.575748616092097,0.13124300824869278
12.914168,10.571378015120533,0.13103579443590116
12.916564,10.558439932655862,0.13092878864622895
12.918948,10.543359979817913,0.13084645833455838
12.921332,10.526650013285884,0.13079671669562884
12.923728,10.509380968246415,0.13076649452145114
12.926112,10.495137737311758,0.1307317495348113
12.928496,10.48620196048205,0.13066211525725527
12.9309,10.47870920589132,0.13059268953396327
12.933288,10.473218552047008,0.13050327491865724
12.935668,10.466005336709994,0.13042355606925685
12.938064,10.454136293574091,0.13038050001015156
12.940448,10.44296609857249,0.13031224276324244
12.942832,10.42741961502572,0.13027046100904643
12.945228,10.400931462187085,0.13033371156776896
12.947616,10.380077524535363,0.13032555049608383
12.95,10.357221486137222,0.13033633075855433
12.952396,10.337810570724479,0.13032735965351053
12.95478,10.319842677550707,0.13031915123301763
12.957164,10.309835965534361,0.13025982590464888
12.95956,10.304485081316908,0.13016401427654997
12.961944,10.302998628965426,0.13003399554225592
12.964324,10.310591514786251,0.12981393352238227
12.96674,10.320326270980352,0.12956984523662393
12.969124,10.331691040868535,0.12929281037434165
12.971504,10.3422644148238,0.12901810488397275
12.9739,10.354607572100003,0.12870684254989576
12.976284,10.363505606390811,0.12841589762819758
12.978668,10.370448761763448,0.12811636578457164
12.981064,10.378602621949582,0.12780060052746436
12.983452,10.382332971762304,0.12753698938775
12.985836,10.38978798381414,0.12724471699376483
12.988232,10.396823686985394,0.12696776836650112
12.99062,10.40837544832868,0.12666061604824636
12.993004,10.426585138217273,0.12629726968828967
12.9954,10.444607836650764,0.1259678218306565
12.997784,10.462211226203674,0.12565293998463944
13.00018,10.479954385383444,0.12533531715397384
13.002580000000002,10.501841515682907,0.12497552366329864
13.004964,10.516419091131002,0.12466784826349951
13.007348,10.528063400272904,0.12438666493463492
13.009744,10.540918414228305,0.12409037191277779
13.012132,10.54618433407862,0.1238543285033028
13.014512,10.549308383555655,0.12364181435205274
13.016908,10.553223828965612,0.12342758489539789
13.019296,10.557930670308485,0.12321158044162521
13.02168,10.564360073144055,0.1229885906074208
13.024076,10.571720641539404,0.12275964926447881
13.026464,10.584528433666563,0.12249774801016317
13.028844,10.59719645616686,0.12224189844351514
13.031244,10.616150320160129,0.1219231491948522
13.033628,10.636454658593754,0.12158575837991979
13.036012,10.659180406654379,0.12121832453556403
13.038408,10.67939219728939,0.12086154743577625
13.040796,10.69988352717812,0.12049696841686874
13.043192,10.720561848521953,0.12010177381635691
13.045592,10.742870183559866,0.11967703763522444
13.04798,10.761314086731806,0.11928239196454271
13.050364000000002,10.776684953970694,0.11891671383085407
13.05276,10.795780483448691,0.11852651131167191
13.055148,10.81394484736691,0.11814162318423235
13.057528,10.829315714605796,0.11777639423934241
13.059928,10.846269373710516,0.11740727042202054
13.062316,10.865225133561655,0.11702192225643454
13.064696,10.886043224532347,0.11662621634434842
13.067092,10.907932250689681,0.11622101008966478
13.06948,10.923814974607764,0.11586629843926077
13.071864,10.937835367406288,0.11552411880497054
13.07426,10.944266666099729,0.11523441513362347
13.076648,10.94790446811383,0.1149624097705803
13.079028,10.9475380686351,0.11472333792537764
13.081432,10.943027698036676,0.11452158279668247
13.08382,10.9354442915052,0.11434653094470457
13.086204,10.926510410533359,0.11419075380170939
13.0886,10.9172969903078,0.11404427327039922
13.090988,10.907804030828522,0.1139067989112266
13.093372,10.897891762468662,0.1137829551482131
13.095768,10.89026113410894,0.1136337970047518
13.098156,10.886634707242052,0.11345329770876164
13.100536000000002,10.882077114815385,0.11327851388308731
13.102932,10.877519522388718,0.11310323876445445
13.10532,10.872542621081472,0.11294148475735528
13.107704000000002,10.865563619027807,0.11279504340173642
13.1101,10.856722285854586,0.11265964395639497
13.112488,10.84494768637517,0.11254536270563324
13.114868,10.831170986149335,0.11244648184866239
13.117272,10.822329652976116,0.11231080403938322
13.11966,10.813208780549173,0.1121840726169498
13.122039999999998,10.806182556667267,0.1120634446037948
13.124436,10.802741225397613,0.11192531259956866
13.126824,10.801022455620656,0.11178056655071106
13.129204,10.798744607336255,0.11165385588633672
13.131608,10.796047450171276,0.11154086217998915
13.133996,10.800147991178466,0.11138033708761812
13.136375999999998,10.80131526587946,0.11124089860136299
13.138772,10.801783692446154,0.11112457707004327
13.14116,10.805185385319042,0.11098773768268848
13.143540000000002,10.80788823005763,0.11087397754467912
13.145936,10.805376168489882,0.11080567361192946
13.148324,10.805657603601473,0.11072149697467283
13.150704,10.81245719763151,0.11060056610602714
13.153108,10.820979353154245,0.11047364279880804
13.155496,10.837649681289507,0.11028269783497144
13.157876000000002,10.854692096477107,0.11010454075635052
13.160272,10.872525907597625,0.10992570987501721
13.16266,10.891011345024202,0.10975064320080596
13.165044000000002,10.9073549120775,0.1095958864932234
13.16744,10.924629644690576,0.10943588719407783
13.169823999999998,10.94446555655751,0.10924300037510772
13.172208,10.958295166185193,0.1090945675717086
13.174612,10.974266646186152,0.10892744666288064
13.177,10.991868139881193,0.10873195326126506
13.179384,11.010680338389735,0.10852215496709036
13.18178,11.019901342046769,0.10837364858807434
13.184168,11.031124446450217,0.10821007827030599
13.186547999999998,11.045839895667308,0.10800931265507227
13.188944,11.055340438578064,0.107852602643732
13.191332,11.062047484809485,0.10771081999209041
13.193715999999998,11.069965235854403,0.10755445355859419
13.196112,11.069734814286797,0.10746191688066213
13.1985,11.063126003427602,0.10740108709460956
13.200880000000002,11.057076271075847,0.10732223035775244
13.20328,11.04488046685798,0.10729155268435599
13.205668,11.032312575587778,0.10724794716282662
13.208048000000002,11.02295748987749,0.10717571867345387
13.210448,11.016163583421058,0.10707127644768683
13.212832,11.010720151404987,0.10694860664415982
13.215216000000002,11.006627193829274,0.10680782932379357
13.21762,11.00453633699998,0.10665341131782047
13.220008,11.009802256850293,0.10643880358770041
13.222388,11.01441655039455,0.10622119167276435
13.224784,11.023826441364559,0.10597659294855746
13.227172,11.033376101961426,0.10572797902257697
13.229556,11.049863230357325,0.10543303063209689
13.231952,11.067561063566721,0.10512564064631019
13.23434,11.079532133790584,0.1048511388023172
13.236720000000002,11.092202052148753,0.10455400044930523
13.239116,11.10901594162661,0.10422482445426028
13.241504,11.126760996664249,0.10389108348493162
13.243884,11.15093166282172,0.1035018591219731
13.24628,11.172960458605912,0.10312884323214483
13.248668,11.193918319203467,0.10276622273873265
13.251052,11.214364323121824,0.10239456109541106
13.253448,11.2368124277866,0.10201013133749912
13.255836,11.255535870212261,0.10164598094030312
13.258232,11.271186276704865,0.1013055021577233
13.260628,11.284834582451055,0.10097912001347491
13.263016,11.295549621891046,0.10067087784560717
13.2654,11.302400229465066,0.10038589261262054
13.267796,11.308179901852446,0.10011143921895901
13.270184,11.31153816461283,0.09986315504543228
13.272568,11.310240599574321,0.09963730841038951
13.274964,11.307080703416256,0.09941978924604294
13.277352,11.302058476138635,0.09921118297413918
13.279732,11.297036248861014,0.09900293758067633
13.282136,11.296949388636005,0.09876534166213824
13.284524,11.298864629157414,0.09851511290491012
13.286908,11.302781970425237,0.09825362293055039
13.289304,11.30804978613342,0.0979760516189512
13.291692,11.311734809975766,0.09769866662917251
13.294072,11.324359402363559,0.09736925779938117
13.296468,11.338194699564852,0.0970285743073963
13.298856,11.356173967885839,0.0966608083763123
13.301236,11.374013466579964,0.09629866584836651
13.303632,11.391852965274088,0.0959366829744211
13.30602,11.410903168781712,0.09556311697692377
13.308404,11.43288663859553,0.0951751980816338
13.3108,11.45622058284971,0.09477109055023568
13.313188,11.479554527103884,0.0943669724450647
13.315568,11.49823264355917,0.09398224929395099
13.317968,11.51653867296212,0.09358431706829992
13.320356,11.538848903857907,0.09316529608324882
13.322731999999998,11.565163336246524,0.09272444833031036
13.325136,11.593340099754696,0.0922784005985533
13.327524,11.618723366583534,0.0918439413214418
13.329904,11.635167064866927,0.09145700163200522
13.3323,11.654124720575933,0.09106948570190755
13.334688,11.668985626993488,0.09068497114331657
13.337072,11.680913267104849,0.09031546298241042
13.339476,11.694283929455185,0.08995199244577734
13.341864,11.697551540274821,0.089622565044884
13.344248,11.695744014414982,0.08932174033165262
13.346644,11.692958101167125,0.08905021162210222
13.349032,11.685144273068037,0.08878191799956002
13.351412,11.672115538662617,0.08854520296668747
13.353808,11.664534027989005,0.08829358348565812
13.356196,11.649782732090888,0.08805936428354633
13.35858,11.634984214364527,0.08784977078021433
13.360976,11.621536171078525,0.08762454623316503
13.363364,11.608088127792524,0.08739829967579711
13.365744,11.60059916491753,0.08716608445083505
13.368144,11.587243669430146,0.08696082357696701
13.370532,11.571234446890285,0.08676079792011947
13.372912,11.552803814723429,0.0865829645697562
13.375308,11.53516457848949,0.08640546433535937
13.377696,11.526464910800994,0.08618356433576195
13.38008,11.517765243112505,0.08596257371993331
13.382476,11.506224856916434,0.08577453025920859
13.384864,11.493194226653147,0.08560482026834368
13.387248,11.481886157882553,0.08543337416524611
13.389644,11.475745773590045,0.08525509276766832
13.392032,11.474912843402493,0.08506653992676662
13.394416,11.473707826162599,0.08486557808075548
13.396812,11.475249083773795,0.08467984258414453
13.3992,11.489314802542696,0.08444386833151027
13.401584,11.492858160900312,0.08424884368817702
13.40398,11.501010125228579,0.08406327079790553
13.406368,11.511723268810702,0.08385241937617445
13.408752,11.522808499445164,0.08365525809816468
13.411148,11.539061414557713,0.08345304199498475
13.413536,11.550146645192175,0.08325723861483844
13.41592,11.559462092505697,0.08308695451255502
13.418316,11.570732418737393,0.08293239881773433
13.420708,11.579908096424056,0.08276634084540643
13.423088,11.587873069297219,0.08261080286824923
13.425484,11.597932690715416,0.08246787341405151
13.427876,11.601474153215161,0.08234448958040945
13.430256,11.611533774633358,0.08220169414445459
13.432656,11.632674834970276,0.08200638502912322
13.435044,11.647577275642469,0.08182256861760158
13.437424,11.66885810560625,0.08162562388457671
13.439824000000002,11.687904517398131,0.08142165953544615
13.442212,11.701224166204488,0.08123720358521258
13.444596,11.721481282809874,0.0810239630231929
13.446996,11.729773016765002,0.08084123548274745
13.449383999999998,11.742441039265298,0.08065258802648781
13.451764,11.75939280251215,0.08043905621471321
13.454164,11.77168873796011,0.08023869800909898
13.456552,11.780911637475013,0.08005362582793615
13.458932,11.787480809937444,0.07987292011962464
13.461328000000002,11.7901855505339,0.0797055052352308
13.463716000000002,11.801038463742882,0.07949870108382232
13.4661,11.81245045545931,0.07927751737247561
13.4685,11.826236634974487,0.07906028373903871
13.470888,11.846960282288695,0.07881535190368338
13.473264,11.863866719565175,0.07856137663991357
13.47566,11.884218279827046,0.07830477847181043
13.478044,11.902055882663301,0.07804885272802786
13.480428,11.906158319528362,0.07784597135537576
13.482824,11.917430541617929,0.07763219106887559
13.485212,11.919391108109707,0.0774424959509387
13.487608000000002,11.922282840161266,0.07725059073521974
13.490004,11.931413191877555,0.07704989881453836
13.492392,11.932302823182697,0.0768665964884315
13.494772,11.94422667157832,0.07666046312442049
13.497168,11.956849368108239,0.07643590631016213
13.499552,11.962814136092858,0.07623097874379395
13.501936,11.97408635818242,0.07602071647578384
13.504332000000002,11.988990694712482,0.07578175386906821
13.50672,12.004034800869404,0.07553943453527476
13.5091,12.027599166691191,0.07527452564934915
13.511504,12.047578639900724,0.07501600392136838
13.513888,12.061272271617284,0.0747883850238269
13.516272,12.077107773707123,0.07455004781872959
13.518676,12.088287447998074,0.07432348805524377
13.521068,12.101049914154855,0.07410125696815927
13.523447999999998,12.111438192512884,0.07387371883362147
13.525852,12.12368880199047,0.07364299296944246
13.52824,12.145018749640364,0.07337630428507556
13.53062,12.162112178371945,0.07310965012655012
13.533024,12.184140974156138,0.07282645319800704
13.535412,12.208171870686748,0.0725372636407066
13.537792,12.23183068016502,0.07223685227690925
13.540196000000002,12.259074382255543,0.07193292716908392
13.542584000000002,12.280079464681343,0.07163664318476962
13.544964,12.299873842293643,0.07134981716298006
13.547368,12.325814291772053,0.07103887542995663
13.549752000000002,12.349240783824847,0.07072744528987418
13.552136,12.374389837370341,0.07041838787054419
13.554532000000002,12.400889365356191,0.0700982762029396
13.556920000000002,12.419799799236953,0.06979556193403268
13.5593,12.43684790199816,0.06949627793514303
13.561696,12.46074092475978,0.06915566175918224
13.564084,12.480909285282282,0.06882221675038783
13.566464,12.498004609871733,0.06850028177913717
13.56886,12.512446207408708,0.06818047041051908
13.571248,12.530612467184797,0.06785467075221033
13.573632,12.544262668788857,0.06753322747228635
13.576028,12.555910769646498,0.06722005089595348
13.578412,12.567419100877277,0.06691048436917524
13.580796,12.57320066912253,0.06661294910856151
13.583192,12.574978035874945,0.06632839472831864
13.58558,12.574893071507805,0.06604695544648168
13.58796,12.574156480834608,0.06576038217002327
13.59036,12.571278019788133,0.06548281818885279
13.592744,12.568679097995378,0.06519808047997433
