Time,Force,Position
13.473916,0.0,0.0
13.476312,0.0,0.0
13.4787,0.0,0.0
13.48108,0.0,0.0
13.483484,0.0,0.0
13.485872,0.0,0.0
13.488256,0.0,0.0
13.490652,0.0,0.0
13.49304,0.0,0.0
13.49542,0.0,0.0
13.49782,0.0,0.0
13.500208,0.0,0.0
13.502588,0.0,0.0
13.504984,0.0,0.0
13.507372,0.0,0.0
13.509752,0.0,0.0
13.512148,0.0,0.0
13.514536,0.0,0.0
13.516915999999998,0.0,0.0
13.519316,0.0,0.0
13.521704,0.0,0.0
13.524083999999998,0.0,0.0
13.52648,0.0005639427192795028,0.0
13.528868,0.005132086931392708,0.0
13.531264,0.010910935957004653,0.0
13.533663999999998,0.015898389049698487,0.0
13.536048,0.019954676582614003,0.0
13.538432,0.022008863369112668,0.0
13.540827999999998,0.023923280528751124,0.0
13.543216,0.025977467315249785,0.0
13.545596,0.027891884474888242,0.0
13.547992,0.02789188447488824,0.0
13.55038,0.02789188447488824,0.0
13.552764,0.02789188447488824,0.0
13.555156,0.02789188447488824,0.0
13.557544,0.02789188447488824,0.0
13.559928,0.02789188447488824,0.0
13.562324,0.02789188447488824,0.0
13.564712,0.02789188447488824,0.0
13.567096,0.02789188447488824,0.0
13.569492,0.02789188447488824,0.0
13.571876,0.027891884474888242,0.0
13.574255999999998,0.027327941755608737,0.0
13.576656,0.02275979754349553,0.0
13.579044,0.016980948517883586,0.0
13.58144,0.011993495425189751,0.0
13.583835999999998,0.007937207892274237,0.0
13.586223999999998,0.005883021105775573,0.0
13.588608,0.0039686039461371185,0.0
13.591003999999998,0.002618129505778167,0.0
13.593391999999998,0.0024783598789179565,0.0
13.595772,0.007186273717891371,0.0
13.598171999999998,0.012825353116643106,0.0
13.600559999999998,0.020326763634951485,0.0
13.602944,0.02582607340684301,0.0
13.605344,0.02597070724554188,0.0
13.607727999999998,0.030259312203934664,0.0
13.610108,0.0325458164159106,0.0
13.612512,0.032545816415910596,0.0
13.6149,0.033761385441248,0.0
13.61728,0.035116724093445614,0.0
13.619675999999998,0.03633229311878302,0.0
13.622059999999998,0.03633229311878302,0.0
13.624444,0.03633229311878302,0.0
13.626848,0.03633229311878302,0.0
13.629231999999998,0.03633229311878302,0.0
13.631612,0.05256732214874134,0.0
13.634007999999998,0.1121893578623355,0.01117265195637687
13.636395999999998,0.18260950152519356,0.02204468785174507
13.638776,0.26033054411184076,0.03299002598361796
13.64118,0.3522929217752755,0.04378198569267832
13.643567999999998,0.4670622201507367,0.05394593360033058
13.645948,0.6099005673728,0.0634052370489373
13.648343999999998,0.7690767940745539,0.07262077973288561
13.650731999999998,0.9479906972710175,0.08154640759171408
13.653112,1.149668091067003,0.09033431786968807
13.655511999999998,1.3674019292310895,0.09911161082149672
13.657896,1.6180004136675294,0.10758722209575435
13.66028,1.9014703044460317,0.115702715600429
13.662675999999998,2.202810676387848,0.12366019859168523
13.665064,2.5240738204216093,0.1315443766545815
13.667444,2.8671201718090016,0.13946955116615023
13.66984,3.251138880322739,0.14704605056556844
13.672228,3.658854140853647,0.15440679782761466
13.674612,4.074111273661399,0.16170694468550495
13.677008,4.495282160909784,0.16889458444300032
13.679396,4.891512663866114,0.17612880361396932
13.681791999999998,5.227083323383596,0.17238623153685306
13.684188,5.562750322415434,0.1688193431596495
13.686576,5.890924566856546,0.16518805544234907
13.688956,6.195453272824467,0.16177708434831867
13.691351999999998,6.467957846139064,0.15899579431260719
13.693739999999998,6.706201972770575,0.15693938364893123
13.69612,6.922800765817445,0.15516105503416297
13.698515999999998,7.116681394235168,0.15378763915442978
13.700903999999998,7.293525295038898,0.15256846656279527
13.703284,7.449796693302498,0.15134338559008184
13.705683999999998,7.572319501562208,0.15042694369409326
13.708071999999998,7.65918227101236,0.14995790602428846
13.710452,7.723559193258842,0.14975677960554246
13.712856,7.762658667480185,0.14972881101231375
13.715239999999998,7.775925406884692,0.1496666343871724
13.71762,7.742917199269741,0.1500546153048028
13.720024,7.67750518851765,0.15085368166408683
13.722411999999998,7.615865061832919,0.15152322445621272
13.724792,7.557530288506717,0.15212990915510383
13.727187999999998,7.5114404370844925,0.15257093712994904
13.729575999999998,7.476245033125891,0.15290392766275282
13.731956,7.425172592822814,0.15348896250153826
13.734348,7.380478541811323,0.15398312092085983
13.736736,7.349425213114542,0.1543432780178399
13.739131999999998,7.323724664493088,0.15471534915459018
13.741528,7.304075744081256,0.15506120461601267
13.743916,7.291689156692549,0.15535073371434813
13.746296,7.290104468968844,0.15547007664308715
13.748691999999998,7.290941190872138,0.1555340759052469
13.751079999999998,7.2860511497899,0.15568367872351585
13.75346,7.278227842401466,0.15588248771112923
13.755855999999998,7.273757110199808,0.15601365953017177
13.758243999999998,7.275200132438783,0.15600931473943092
13.76064,7.282509687290149,0.15590674017514722
13.763032,7.296569718485441,0.15573296185383811
13.76542,7.311560915240511,0.1555384704792342
13.767799999999998,7.340427047593641,0.15509037362834244
13.770204,7.359654763267021,0.15485237915073735
13.772592,7.367893587820297,0.15484823582967094
13.774971999999998,7.372453076104834,0.1549707116652874
13.777368,7.38245978812118,0.15501895324847428
13.779756,7.3970297801377995,0.15496281507337775
13.782135999999998,7.406943944355529,0.1549779711290871
13.784536,7.415554855961143,0.15499150959257646
13.786924,7.42872904756703,0.15490787342090337
13.789307999999998,7.439529051374162,0.154841487336971
13.791712,7.447303241076483,0.15479145989290685
13.794096,7.449118350367798,0.15480396944997712
13.796475999999998,7.45107322928597,0.1548092914046054
13.798884,7.463270929361705,0.15467332084070284
13.801268,7.4830105017142845,0.154463480698715
13.803648,7.504425413731316,0.1542715622094377
13.806055999999998,7.524210312054269,0.15413030478036033
13.80844,7.548651038176115,0.15392749962070593
13.81082,7.574534786536936,0.15372691548163941
13.813223999999998,7.608007629002842,0.15341493236697168
13.815611999999998,7.636964413296718,0.15316319719932522
13.817992,7.6686221464713125,0.1528468245344144
13.820387999999998,7.707264569273178,0.15238815172516054
13.822776,7.7466058402093445,0.15189528745341063
13.825156,7.790091082265205,0.15133587931602346
13.827559999999998,7.833855863574787,0.15076032494727573
13.829947999999998,7.878039953764948,0.1501693577620084
13.832328,7.920082173581831,0.14962552570873217
13.834723999999998,7.957421343771582,0.14918255508084619
13.837111999999998,7.999276572133363,0.14868969065388582
13.839496,8.040200634935367,0.14820893991007003
13.841891999999998,8.082707489603205,0.147718959664515
13.844279999999998,8.126005740203963,0.14723292879598027
13.84666,8.167022350804583,0.14679835988875795
13.849056,8.20580454323331,0.14637279280904403
13.851447999999998,8.245193035997719,0.14588430260594748
13.853828,8.287050160217369,0.14531511874986078
13.856224,8.324298678466372,0.1447745987836585
13.858612,8.353026937050508,0.14434034944614801
13.860996,8.383524978955586,0.14386260796086883
13.8634,8.412579998621686,0.1433865778752271
13.865783999999998,8.439540369742751,0.1429167446704157
13.868164,8.461425604184347,0.14252451745059835
13.870563999999998,8.48303129937222,0.1421465355092048
13.872948,8.499701627507482,0.14183489252903608
13.875332,8.51972453082952,0.14146884125704948
13.877727999999998,8.538304411912582,0.14110695501520973
13.880116,8.556232666689585,0.14074480911071946
13.882496,8.573649064787391,0.14037220248820656
13.884892,8.584826843220469,0.1400581826201268
13.88728,8.600707671280682,0.1396626154410703
13.88966,8.620779692288833,0.13918026283510512
13.89206,8.635032402512838,0.13873726999200495
13.894444,8.648261399378445,0.1382789297049812
13.896824,8.662561331430691,0.1378053032113943
13.899231999999998,8.67858382497563,0.13732126859772645
13.901616,8.69060211702774,0.13688984860881626
13.904,8.704063431318824,0.136460175198923
13.906396,8.72325150859544,0.1359658779548717
13.908784,8.736945140312002,0.13555725503373856
13.911168,8.751849476842064,0.13512719686251135
13.913564,8.760747511132875,0.13477075187890153
13.915952,8.772066955050683,0.13437320815090123
13.918332,8.781524067848935,0.1339936672547241
13.920728,8.794193986207102,0.1335683167487293
13.923116,8.804210177512795,0.13316715881510954
13.9255,8.810641476206232,0.13279606025442484
13.927903999999998,8.814698587100915,0.13243438198471272
13.930288,8.8199664028091,0.13205075354006493
13.932672,8.825885844823341,0.13166723256870402
13.935067999999998,8.822586179038414,0.13140289597095228
13.937452,8.808856700640826,0.13127844096675395
13.939836,8.795080000414993,0.13118739631571966
13.942239999999998,8.777671185748662,0.13116035740714474
13.944624,8.758911896641974,0.13116043436577646
13.947008,8.735217240482676,0.13121831742456216
13.949403999999998,8.710451649136738,0.13129197582826346
13.951788,8.680890460365047,0.1314176495149931
13.954172,8.651748580473937,0.13152244838329874
13.956568,8.619673434276631,0.13166396020623197
13.958956,8.587458518452468,0.13181036655239725
13.961336,8.560458508934635,0.1318863333361181
13.963732,8.529174758670248,0.1320224975599737
13.96612,8.499753339525418,0.13214023513405163
13.9685,8.470052381126864,0.13226799872585024
13.970896,8.441794444967291,0.13239399755843703
13.973284,8.417912797352887,0.13248671334411816
13.97568,8.396917194216437,0.13257944542385255
13.978075999999998,8.379226944438518,0.13265339147947827
13.980463999999998,8.365401126526573,0.13268573228114097
13.982844,8.357441841227017,0.13265255620168487
13.98524,8.355628627793571,0.13254073003669617
13.987628,8.357587298427484,0.1323587096169294
13.990008,8.36476087536773,0.13210699477590576
13.992408,8.371934452307974,0.13185476310563565
13.994796,8.385114331487468,0.13153054824469884
13.997176,8.402298412159798,0.13115874040745917
13.999572,8.424278090257879,0.13073586744512647
14.001964,8.442625653915462,0.13037701908463123
14.004344,8.471635347611189,0.12990271464914602
14.00674,8.501576206866694,0.12942148647649626
14.009128,8.529095656495203,0.1289836171190855
14.011508,8.560060229109101,0.1285225727238373
14.013908,8.593818298402338,0.12803885290118538
14.016296,8.626784971762653,0.12756023129436092
14.018676,8.656306522137577,0.12710543621177484
14.021072,8.68317434546003,0.12667211000543738
14.02346,8.707016354677666,0.1262437561890194
14.025844,8.72848417609655,0.12582615087894805
14.02824,8.749951997515431,0.1254107232712295
14.030628,8.772630523747814,0.12497830730613826
14.033012,8.79330694923378,0.12456952822854978
14.035408,8.815286627331862,0.12417172151690609
14.037796,8.836846996549362,0.12379502028580397
14.04018,8.861620171326775,0.12337836499269852
14.042576,8.881178439797859,0.12302641478204003
14.04496,8.896452967522388,0.12272987316975979
14.047356,8.910004933754221,0.12244490458710397
14.049751999999998,8.924255748120354,0.12212957324475024
14.052139999999998,8.928123971702066,0.12190760918461191
14.054524,8.932131964910639,0.12168070661687164
14.056919999999998,8.939492533305986,0.12140807917226336
14.059304,8.946900323529576,0.12110449846452243
14.061688,8.94657925002122,0.12087317021618166
14.064083999999998,8.94411630613959,0.12066832790529805
14.066472,8.94388778042985,0.12046331109460731
14.068852,8.948315082519004,0.120221076862328
14.071248,8.959120773899743,0.1199333426663449
14.07364,8.970438321959682,0.11965612584739267
14.07602,8.979613999646343,0.11940535451407466
14.078416,8.98422639733273,0.11921845191466234
14.080804,8.990701126138672,0.11901699614957288
14.083199999999998,8.994382358265284,0.11883846486717907
14.0856,8.995409863339415,0.11867656540354339
14.087984,8.995878289906107,0.11853783032497602
14.090364,9.000490687592496,0.11835367495250022
14.092772,9.011528696398715,0.11809402039567855
14.095156,9.02321833151099,0.11783914511402524
14.09754,9.0382133199818,0.11757318334029783
14.099936,9.061449028863752,0.1172491878228822
14.102324,9.083334263305346,0.11694990810244255
14.104703999999998,9.104008792933442,0.11667105852429928
14.1071,9.124775870360153,0.11642048096054744
14.109488,9.15513414263837,0.11609069195127618
14.111871999999998,9.19000847308862,0.11573290731448979
14.114268,9.224510716486531,0.11536125766175888
14.116656,9.251284096152494,0.11505549326596685
14.119035999999998,9.274193043952483,0.11478588023352992
14.121427999999998,9.296170826192693,0.11452370188446669
14.123815999999998,9.32243234917946,0.11421510955124632
14.126192,9.350184116233445,0.11387680491628409
14.128588,9.375794012914152,0.11356297802863585
14.130972,9.40154367922172,0.11324435176839998
14.133368,9.431157777395264,0.11289609318933351
14.135763999999998,9.45825791814319,0.11255773085385638
14.138151999999998,9.482285022958061,0.11225088169671216
14.140532,9.50095745183974,0.11200500676085769
14.142936,9.5188384847885,0.11176100901242483
14.145319999999998,9.53765068329704,0.11151277427973322
14.1477,9.5550198595666,0.1112641752007744
14.150095999999998,9.572808344716744,0.11100031544405109
14.15248,9.588454959493609,0.11075950472123508
14.154875999999998,9.601727386471723,0.11052220367678008
14.157272,9.607690258598472,0.11032955724181291
14.15966,9.609276842180046,0.1101571951684841
14.16204,9.612585987254317,0.10997850152180745
14.164435999999998,9.622180973821557,0.109737845189469
14.166823999999998,9.628702924455743,0.10952539498473911
14.169216,9.633362543970376,0.10932460373408706
14.17162,9.637882393858145,0.10913065092571096
14.174008,9.646266675611887,0.10890888285676789
14.176388,9.658003532552407,0.1086498504466233
14.178791999999998,9.671090863933287,0.10837082156465486
14.181179999999998,9.678171893074914,0.10814184072728045
14.183556,9.685252922216542,0.10791261642671854
14.185952,9.693404886544805,0.10767251841007498
14.18834,9.704909426059848,0.1073956012817514
14.19072,9.713201160014973,0.10715024681511538
14.193116,9.714043569491876,0.10695042712281876
14.195504,9.709671072662443,0.1067995574136821
14.197883999999998,9.705950202139066,0.1066532698235786
14.20028,9.704371201988968,0.10648546301551653
14.202668,9.703304058518068,0.10632711231636763
14.205047999999998,9.708755073965614,0.1061295757716566
14.207448,9.715928650905859,0.10592555889770149
14.209836,9.719237795980131,0.10574930096423063
14.212215999999998,9.721196466614044,0.10559457571361208
14.21462,9.723294906874818,0.10543418101977216
14.217008,9.728606152695505,0.10524190214902647
14.219392,9.7280508659038,0.10509323085135358
14.221795999999998,9.723351607992408,0.104982035101325
14.22418,9.717441645267513,0.10488649614609807
14.22656,9.710972604035176,0.10481094702655944
14.22896,9.708647533922534,0.10469869280322883
14.231344,9.708976190862364,0.10457544041507257
14.233724,9.708094142988697,0.10446745717614607
14.236124,9.70106602324892,0.10441148718753568
14.238508,9.699532349069194,0.10429865139209969
14.240892,9.708800574554473,0.10410763072554378
14.243288,9.722073001532584,0.1038850189475834
14.245676,9.733762636644862,0.10366343235974153
14.248055999999998,9.745731811010858,0.10343300436514707
14.25046,9.759191229444072,0.10317818757834495
14.252848,9.770136690451672,0.10293129141901795
14.255228,9.780570294780073,0.10267490825394719
14.257632,9.794496243922113,0.10237904415072553
14.260016,9.80856196269101,0.10207953995574515
14.262396,9.829844688512654,0.10172269981943671
14.2648,9.848985543961028,0.10138640545961468
14.267188,9.870268269782674,0.10102934725339466
14.269568,9.891178908551984,0.10065698886000009
14.271964,9.913440021761657,0.10026758119325396
14.274352,9.932116242359072,0.09989247109792158
14.276732,9.94893013183693,0.09952797495406807
14.279128,9.963789142396617,0.09915036046116213
14.281516,9.983490972210298,0.09871695052121067
14.283896,10.011620513890227,0.09821302428923602
14.2863,10.039889825197015,0.09770897417442875
14.288688,10.060430272771857,0.09725500792507016
14.291068,10.078736302174805,0.09679642914193358
14.293464,10.095180000458194,0.09634578819324173
14.295852,10.10869043243539,0.09591390316655093
14.298232,10.12154923810653,0.09547869476031448
14.300628,10.131335007844614,0.09506667731091654
14.303016,10.140049842396058,0.09466323804799134
14.305395999999998,10.144341166574089,0.09430081892645134
14.307792,10.147841094819205,0.09393886234348364
14.31018,10.142401454518872,0.0936351174550208
14.312576,10.138172519032038,0.09331756282953828
14.314972,10.13822732429176,0.09296532675584661
14.31736,10.144288431790729,0.09257555216973282
14.31974,10.144483006677309,0.09221959328447714
14.32214,10.147750617496945,0.09184134261906875
14.324528,10.152368702756936,0.09144531924375474
14.326904,10.155356774322852,0.09107614315081083
14.329308,10.154852501075132,0.09074374933792129
14.331696,10.146991451147802,0.09046707618702621
14.33408,10.136708991593473,0.09021695400764501
14.336472,10.128288863158703,0.08995868534434372
14.33886,10.123174088082465,0.08969891477650135
14.34124,10.124065615245476,0.08940295444832991
14.343643999999998,10.12481737278163,0.08911070378920394
14.346032,10.120866080690647,0.0888648495378953
14.348412,10.11663524934594,0.08862743105120086
14.350808,10.11827095061363,0.08835895984456507
14.353196,10.12391085337415,0.08806605897846402
14.355576,10.12540678501498,0.08780107472024411
14.357979999999998,10.131558544454695,0.08751684543417793
14.360367999999998,10.14050380057375,0.08722297461580446
14.362748,10.145816942252306,0.08696891935407497
14.365144,10.143633537624394,0.08677244080724945
14.367532,10.146757587101431,0.08656337830925138
14.369912,10.149462327697885,0.0863681852710056
14.372308,10.151188680906321,0.08620500613356505
14.374696,10.160504128219845,0.08601025595878056
14.377076,10.165535834786809,0.08584692807234257
14.37948,10.174431973219752,0.08566488743659074
14.381868,10.181186241279416,0.08549867418564298
14.384248,10.18780073971222,0.08533726961216857
14.386644,10.191062662958245,0.08520465215611038
14.389032,10.189761306203998,0.08511326954073008
14.391412,10.193255546875506,0.08500056129956464
14.393808,10.201964693853345,0.08485250765736782
14.396196,10.216400603816712,0.08468021293646802
14.398575999999998,10.226552773033527,0.0845404668939911
14.400976,10.23749633818326,0.08440269528273768
14.40336,10.256168767064935,0.08423015977592851
14.40576,10.275912131133254,0.08405111867564301
14.408155999999998,10.290580358522098,0.08390211684616454
14.410543999999998,10.304457189978024,0.08375194355207825
14.412924,10.321407057367008,0.0835829222018031
14.415319999999998,10.338636464009712,0.0834062604363915
14.417707999999998,10.35800774102569,0.08321533750418339
14.420088,10.376867161362474,0.08301419969008837
14.422484,10.385204221287973,0.08285669026928402
14.424872,10.399687353079582,0.08266269899804168
14.427252,10.415381189684693,0.08245804304645969
14.429652,10.433496435916801,0.08222962306416041
14.43204,10.45054074696227,0.08200871163251186
14.43442,10.470286006888458,0.08175581648856733
14.436816,10.494315007561198,0.08147440953308716
14.4392,10.515550511554604,0.08120370275293683
14.441596,10.535854849988231,0.08093698110366765
14.443996,10.55085173431691,0.08068032215688352
14.446383999999998,10.566267927526168,0.0804111835066015
14.448764,10.576376666630477,0.0801506194885121
14.451168,10.581969347562755,0.07990114241094304
14.453556,10.583045970323,0.07966147799630346
14.455935999999998,10.588266564202941,0.07939804829957699
14.458332,10.595489258829298,0.07912511434528466
14.460719999999998,10.60727523345593,0.07881755498399487
14.4631,10.616267711403227,0.07851881068642531
14.4655,10.625539728604242,0.07821335396173797
14.467888,10.639235256178674,0.07787787028210451
14.470268,10.657866150805717,0.0775198179960808
14.472663999999998,10.673843318380285,0.07716639640097946
14.475051999999998,10.684885118902242,0.07683431579122328
14.477436,10.693785049050922,0.07651555059021022
14.479831999999998,10.70538592808032,0.07616726688971481
14.482219999999998,10.715915871923077,0.07582674942092842
14.484604,10.720439513526586,0.07551367405751803
14.486999999999998,10.72575455106301,0.07520295138815616
