Time,Force,Position
14.943884,0.0,0.0
14.946279999999998,0.0,0.0
14.948667999999998,0.0,0.0
14.951052,0.0,0.0
14.953447999999998,0.0,0.0
14.955835999999998,0.0,0.0
14.958216,0.0007083213659369188,0.0
14.960615999999998,0.00434990903806901,0.0
14.963003999999998,0.009062431896839631,0.0
14.965384,0.015777055502027106,0.0
14.967783999999998,0.02449377985363143,0.0
14.970171999999998,0.0352126049516526,0.0
14.972552,0.042998163743478604,0.0
14.974951999999998,0.048921391415747965,0.0
14.977339999999998,0.05004902166226551,0.0
14.97972,0.05004902166226551,0.0
14.982115999999998,0.05004902166226551,0.0
14.984504,0.05004902166226551,0.0
14.986888,0.05004902166226551,0.0
14.989283999999998,0.05004902166226551,0.0
14.991672,0.05004902166226551,0.0
14.994052,0.05004902166226551,0.0
14.996448,0.05004902166226551,0.0
14.998836,0.05004902166226551,0.0
15.00122,0.05004902166226551,0.0
15.003619999999998,0.05004902166226551,0.0
15.006007999999998,0.049340700296328595,0.0
15.008388,0.04569911262419651,0.0
15.010787999999998,0.040986589765425886,0.0
15.013175999999998,0.034271966160238414,0.0
15.01556,0.025555241808634093,0.0
15.017955999999998,0.014836416710612917,0.0
15.020343999999998,0.007050857918786913,0.0
15.022724,0.0011276302465175496,0.0
15.025123999999998,0.0,0.0
15.027511999999998,0.0019171303215664178,0.0
15.029892,0.01076983258429247,0.0
15.032291999999998,0.029304381639269954,0.0
15.034679999999998,0.0618498442034269,0.0
15.03706,0.11105805147136881,0.008610057023328305
15.039456,0.18512250202599723,0.016846296245623234
15.041847999999998,0.2898171806810854,0.024428676465224404
15.044232,0.4193699984807295,0.03167891531618832
15.046627999999998,0.5611167246403702,0.03917502457079656
15.04902,0.712588727704767,0.04711293897440324
15.0514,0.8862632470033756,0.05506051362452187
15.0538,1.0914991599622221,0.06269244555024656
15.056183999999998,1.3270404357974344,0.07002409949199048
15.058564,1.5770572599927808,0.07742162983690701
15.060956,1.842433576279796,0.08491489031976583
15.06334,2.1267070554424907,0.0924864557021872
15.06572,2.4317400286004203,0.1000945596495498
15.068116,2.757347400156352,0.1076621999717955
15.0705,3.098641024885916,0.11523777354903572
15.072879999999998,3.453618802042697,0.12285558337568009
15.075295999999998,3.82338941540994,0.130497177518368
15.077683999999998,4.2016311707559355,0.13815711614232323
15.08006,4.584109445020243,0.1457720384115715
15.082463999999998,4.955834937305662,0.1533954736396801
15.084851999999998,5.305078374103148,0.15245951982862216
15.087232,5.626859062389715,0.1518908181748308
15.089636,5.9054850614181245,0.15216414468856843
15.092024,6.152827310182147,0.15289519675289534
15.094404,6.3961238231987,0.15323568658662154
15.096799999999998,6.6355162659525115,0.15297493718672442
15.099184,6.848516895382045,0.15270886447040175
15.101579999999998,7.021715410740195,0.15286808510030725
15.103976,7.1563206209825925,0.1534814714409094
15.10636,7.280547032156307,0.15399010530011203
15.10874,7.390624656051851,0.1543743598081496
15.111135999999998,7.477289058899684,0.15474151023742982
15.113523999999998,7.541471406259585,0.15509243614983415
15.115904,7.587174003766517,0.15547997742182848
15.118308,7.618214061458214,0.15587724263527653
15.120691999999998,7.6351506578421136,0.156255043501836
15.123072,7.63221170396231,0.1566349422467249
15.125471999999998,7.6104209131772045,0.15703834030806843
15.127855999999998,7.573780591121755,0.1575012325451107
15.130252,7.535185390148132,0.15795772667853689
15.132648,7.508276032571045,0.15826283565093507
15.135036,7.475872229433907,0.1586876645963677
15.137415999999998,7.4582745274546065,0.1588720333780036
15.139808,7.452130351446366,0.15887635525034857
15.142195999999998,7.440444508049827,0.15903015532017079
15.144576,7.4258235024892265,0.15933308633263668
15.146971999999998,7.416974585884529,0.15961911522758848
15.149359999999998,7.417157785623893,0.15978925030309069
15.151756,7.425861245028122,0.1598290609704974
15.154152,7.4337733084994335,0.15987547101629443
15.156536,7.443268163836581,0.15991022219998577
15.158915999999998,7.462261666226617,0.15976613650620525
15.16132,7.484607743803426,0.15955317248145406
15.163708,7.504998942462064,0.15933693044788738
15.166087999999998,7.529022255561196,0.15904029418441917
15.168492,7.559750719033881,0.1586131055609406
15.17088,7.59434361437254,0.15812573949317452
15.17326,7.636293286390806,0.15750704824393846
15.175656,7.678242958409075,0.15688544441964894
15.178044,7.719541004121284,0.15626367114556278
15.180424,7.75655530908694,0.15573301702635486
15.18282,7.806605931889493,0.15501904065776453
15.185208,7.852792122826071,0.15436656868412466
15.187587999999998,7.895161103724918,0.15374404201129208
15.189992,7.933061248279978,0.15313921254661975
15.19238,7.969286053170585,0.15252013603412176
15.19476,8.006768784702935,0.15184522850180968
15.197156,8.043647111757467,0.1511350083310092
15.199544,8.081411278401406,0.15034895231093615
15.201923999999998,8.115358235007614,0.1495863425986371
15.20432,8.148793334934624,0.14882325291154538
15.206708,8.178177011540559,0.14816724853833346
15.209088,8.203556486653657,0.14757209646776856
15.211492,8.225351069154502,0.14701378425527048
15.21388,8.24155865829668,0.1465290034378339
15.216259999999998,8.250269701132389,0.14617604835446268
15.218664,8.265079594005963,0.14576929820116447
15.221052,8.275465976506123,0.14544314401727487
15.223427999999998,8.287482372700362,0.1450731104008837
15.225836,8.300337386655762,0.14466501672404378
15.22822,8.31109775206613,0.1442575768189638
15.2306,8.318692533744825,0.14387166757840283
15.233004,8.329639890610295,0.14342831480970875
15.235392,8.335279793370816,0.1430344320208303
15.237772,8.344132501691252,0.1425887760437453
15.240175999999998,8.354847541131246,0.142125028992816
15.24256,8.363792797250298,0.14171350328245408
15.244944,8.371759665981331,0.14134708504422716
15.247336,8.374883715458367,0.14107275241116723
15.249724,8.376517520868186,0.14083383684602108
15.252104,8.377592247770563,0.1406218845087286
15.2545,8.37987767948644,0.1403877265904584
15.256888,8.382814737508372,0.14015490056811442
15.259268,8.391478558515834,0.13985340711746602
15.261672,8.401492853963658,0.13952216284983268
15.264056,8.417001594971534,0.13910294145725038
15.266436,8.421848205941266,0.13881682335975296
15.268832,8.424413176910864,0.1385691288721702
15.27122,8.424556738253463,0.13836727531727122
15.273599999999998,8.418274688476231,0.1382649613269104
15.276,8.414227056870892,0.1381576409885849
15.278384,8.409201037877532,0.13809524284097013
15.280763999999998,8.400263365189955,0.13811440209791861
15.283168,8.397424542540247,0.13808171861852184
15.285556,8.392164310263542,0.138094967599279
15.28794,8.382899876494001,0.13816110517612015
15.290336,8.369910780485347,0.1382679062986631
15.292724,8.356921684476694,0.13837502572297916
15.295108,8.34979912108043,0.1384085793267866
15.297504,8.346960298430721,0.13837569098821892
15.299888,8.341467748728537,0.13836679490260156
15.302267999999998,8.33183122790666,0.13841763311371807
15.304668,8.326059138950757,0.13842140872402706
15.307056,8.31972797148741,0.13845031356562537
15.309452,8.310556085516488,0.13854436675010123
15.311856,8.294679049172013,0.1387490879692606
15.314239999999998,8.28373737988015,0.13889187303626646
15.316624,8.278522473573817,0.13896777966237236
15.319024,8.277823625439517,0.13899974509384108
15.321412,8.288718072903135,0.13889259552965172
15.323792,8.296958793314282,0.1388091643331203
15.326187999999998,8.301614621113172,0.13875901093614335
15.328575999999998,8.31069395928548,0.1386368594755692
15.330956,8.319773297457786,0.13851585790737797
15.333355999999998,8.332065441190007,0.13834649242399708
15.33574,8.347430620855285,0.1381354750818747
15.33812,8.36931395943901,0.1378564021498829
15.340516,8.39399079470207,0.13754892871961194
15.342904,8.419738565151768,0.1372298061762932
15.345288,8.447208897094164,0.13690291119726491
15.347684,8.477892034596476,0.13653054219615518
15.350072,8.511136351352642,0.13610761049314
15.352452,8.544520437735672,0.1356833392864607
15.354855999999998,8.57902268113358,0.13521526214086488
15.357243999999998,8.620789153412485,0.13462206652621592
15.359628,8.666467279385603,0.13395129948744025
15.362023999999998,8.71484635423944,0.13323417039729474
15.364411999999998,8.758057744615188,0.13255540543031466
15.366792,8.797963781632404,0.13189798585344203
15.369188,8.829117241559278,0.13131157601964152
15.371576,8.864833981486424,0.13065819526997088
15.373956,8.906976332533402,0.1299189464003975
15.376364,8.94446285578149,0.12922434912475567
15.378747999999998,8.977433320857545,0.12856714373442618
15.381128,9.006027497388429,0.12794215636379408
15.383523999999998,9.031967946866839,0.12733933265138986
15.385908,9.0526009422403,0.126778493338934
15.388288,9.071790915374784,0.1262195759327013
15.390691999999998,9.085533664777458,0.1257063985578334
15.39308,9.091035693768987,0.12526241919955458
15.39546,9.091881894961624,0.124859963672153
15.397863999999998,9.091657160967625,0.12447163323098587
15.400251999999998,9.08891846954801,0.12409706392555156
15.402632,9.07775206626215,0.12382751381748408
15.405036,9.061091217416234,0.1236331741159668
15.407419999999998,9.042707807077619,0.12344835024311847
15.4098,9.021111591179094,0.12330340766288213
15.4122,9.004171203079457,0.12311847862265594
15.414583999999998,8.988301750166459,0.12291945150514344
15.416964,8.975737650611993,0.12270587104873107
15.419368,8.959960745497611,0.12253222234706705
15.421751999999998,8.940691495569595,0.12240912915608773
15.424132,8.92621784306733,0.12224207426186451
15.426536,8.915888161684759,0.12202749665673064
15.428924,8.910214308101079,0.12177518043263827
15.431304,8.903609288957622,0.12152972248439003
15.433699999999998,8.896073104254386,0.12129076005795782
15.436087999999998,8.887326214737653,0.12107036691812073
15.438472,8.88188467857945,0.1208366514120616
15.440867999999998,8.881098970220142,0.1205643739620428
15.443255999999998,8.881756284099808,0.12029313603496704
15.445636,8.884787785778228,0.12001687439101826
15.44804,8.887120439322345,0.11976886039729352
15.450428,8.897181956598413,0.11944778034685473
15.452808,8.907243473874477,0.11912631722963858
15.455203999999998,8.915674977456463,0.11884054474395993
15.457591999999998,8.920474366597956,0.11861136814809464
15.459972,8.920058849433113,0.11844329922751023
15.462367999999998,8.917082153014412,0.11831909971039715
15.464755999999998,8.913034521409074,0.11820835158260064
15.46714,8.905913853870679,0.11813167083646656
15.469535999999998,8.898932955959145,0.11804910544226932
15.47192,8.890741353234114,0.11798540350555137
15.4743,8.879988571255224,0.1179650704940095
15.4767,8.866814379649336,0.11798197914628993
15.479084,8.856154145469064,0.11798798307262218
15.481464,8.85187230058038,0.11794800548738146
15.48386,8.84838185162461,0.11790634684140974
15.486248,8.844100006735928,0.11786624237668478
15.488628,8.842471888899718,0.11781012614728596
15.491024,8.842194245503865,0.11772978421190272
15.493412,8.840613349495898,0.1176413499626282
15.495791999999998,8.84010338867457,0.11754005403005996
15.498192,8.838522492666604,0.11745179380032306
15.50058,8.836662057404917,0.11737464296120598
15.502959999999998,8.840016528449562,0.11723985215507077
15.505356,8.845652639494343,0.11707318018829978
15.507744,8.859157383897934,0.11683369279490026
15.510124,8.876014703488297,0.11655033509085518
15.512539999999998,8.894082727892162,0.11624972854843649
15.514924,8.9148044793485,0.11593232601601175
15.517324,8.936457396364618,0.11560910118130036
15.519716,8.957970543753875,0.11529305125695555
15.522104,8.982556727076187,0.11494578474729591
15.524487999999998,9.00742244965222,0.11458774159211013
15.526884,9.031357006668474,0.11423760232388543
15.529267999999998,9.051566901445616,0.11391777446214923
15.531652,9.074989601782672,0.11356341137617594
15.534056,9.098272532492869,0.1132151554046553
15.536444,9.116620096150454,0.11291237284761182
15.538823999999998,9.135619286114096,0.11261497950093699
15.541224,9.157411972757075,0.11230045836305678
15.543612,9.178413263467132,0.11198710379579976
15.545991999999998,9.200904798244409,0.11164797119434001
15.548388,9.22768007376824,0.11126315102159029
15.550771999999998,9.25031137817238,0.11092227360620048
15.553152,9.27908875444263,0.11052526325949819
15.555552,9.300137266980935,0.11019098546605746
15.55794,9.320254613959458,0.10986439559388501
15.56032,9.338090320937845,0.10956657742726686
15.562724,9.360349538289647,0.10922036625314949
15.565108,9.384750626014723,0.10885463437879471
15.567484,9.409431252993521,0.10848023028836948
15.569879999999998,9.434251649599181,0.10810367024256733
15.572264,9.459211815831699,0.1077228752722175
15.574644,9.484591290944799,0.10732748849494893
15.57706,9.50903960049812,0.10693816315113593
15.579444,9.531485809305025,0.10656888443983173
15.581824,9.553420161432733,0.10619025390907838
15.584219999999998,9.578567319120355,0.10577908112455041
15.586604,9.606135886434974,0.1053395387000216
15.588984,9.626347677069983,0.1049699322303901
15.591396,9.649492734011186,0.10457975840181426
15.593784,9.669145446138758,0.1042330844610126
15.596163999999998,9.685864891960131,0.10391028970790002
15.598564,9.705377834460837,0.10357183892644527
15.600952,9.717673769908796,0.10329826517763861
15.603331999999998,9.73304274128981,0.10299786468556864
15.605732,9.75213637490994,0.10267842700117745
15.60812,9.773511648530205,0.10233379539298984
15.610499999999998,9.786598979911084,0.10206202471384865
15.612896,9.795542340172267,0.10182728081369047
15.615284,9.80355453487367,0.10159846256918433
15.617663999999998,9.809564628828658,0.10138574022896271
15.620068,9.819299385022758,0.10115406913662199
15.622452,9.829406228269196,0.10093759025662051
15.624831999999998,9.84109586338147,0.10072104188705162
15.627236,9.850364088866748,0.10053429493253842
15.629624,9.861075336591,0.10035263030073402
15.632003999999998,9.871646814688393,0.10017668546004288
15.634408,9.87979688315879,0.10003119254453922
15.636792,9.894372562749018,0.09982707635570133
15.639172,9.906806371965967,0.09964324136850801
15.641576,9.921242281929333,0.0994449877722474
15.643964,9.936190048571897,0.0992569628870511
15.646344,9.949555023348626,0.09906973979352886
15.64874,9.965853264431551,0.09886322734424394
15.651128,9.985456858873007,0.09865359231422657
15.653508,9.997052050328794,0.09850107329275966
15.655912,10.011580508090779,0.09833140737945976
15.6583,10.032394807345732,0.09810992981956525
15.66068,10.053069336973826,0.09789275044721876
15.663076,10.069320356228511,0.09771717897283246
15.665464,10.085571375483193,0.0975420164898637
15.667844,10.095816092498623,0.09740968556423187
15.670248,10.107271514327554,0.09726390688819336
15.672636,10.120077410596839,0.09710016404567637
15.675016,10.137446586866403,0.09689080809813941
15.677412,10.152673892762689,0.09669991591775481
15.679796,10.167109802726058,0.09650952512001808
15.68218,10.178752216010093,0.09633251253414331
15.684576,10.191186025227044,0.09615738206025426
15.686964,10.20576170481727,0.09596494782705954
15.689343999999998,10.218894362168522,0.09576770080885015
15.69174,10.230444227653937,0.0955699896308818
15.694128,10.240923157952714,0.09538141228125029
15.69652,10.249959066012517,0.09518785468502579
15.698923999999998,10.255969159967506,0.09498933868173952
15.701311999999998,10.27026719616188,0.09472962206787904
15.703688,10.277907303810949,0.09450473498551319
15.706091999999998,10.286478577019796,0.09427742496099056
15.708479999999998,10.298681964669138,0.09401123964587571
15.71086,10.321594704184868,0.09366046796899953
15.713256,10.346789083700731,0.09328997617206283
15.71564,10.371751145791121,0.0928994410232082
15.718024,10.393268084896118,0.09251671463823148
15.72042,10.41120013138886,0.09214624421078878
15.722804,10.422194710082575,0.09181719906301043
15.725184,10.436961172843644,0.09144576080143008
15.72758,10.450516930791215,0.09108727396451112
15.729968,10.465423163179144,0.09071079626651633
15.732364,10.477675668514598,0.09034324954533275
15.734759999999998,10.488205612357357,0.08998022076832303
15.737144,10.498735556200119,0.08961721838623445
15.739524,10.514759945602929,0.08921111462681441
15.741927999999998,10.529992939072821,0.08880359681308311
15.744315999999998,10.546017328475635,0.08839729165236247
15.746696,10.560179386758891,0.08799862936051683
15.7491,10.56568141575042,0.08764169688348653
15.751483999999998,10.572766236607785,0.08728541531705573
15.753868,10.57612639522604,0.08694463449471913
15.756263999999998,10.57348025160504,0.0866381825714007
15.758651999999998,10.565060123170271,0.08638615023496393
15.761032,10.552775562869524,0.08615207897524617
15.763436,10.54207379443462,0.08591918729675056
15.765824,10.533606444171605,0.08569350764005428
15.768204,10.529283065028284,0.08544131300752132
15.770599999999998,10.529755283310715,0.08516754320197067
15.772987999999998,10.531018897526064,0.08489650486089202
15.775364,10.532981359875714,0.08460350422829896
15.77776,10.537597549277839,0.08430583545054739
15.780144,10.53900093312005,0.08403025879729704
15.78254,10.536679654723148,0.08376675849725752
15.784935999999998,10.533939067445662,0.08351600672479048
15.78732,10.525424495354404,0.08331635281316278
15.7897,10.517701319196064,0.08311743141556066
15.792103999999998,10.508767438224226,0.08293012322556767
15.794491999999998,10.505001241730477,0.08273761061255794
15.796872,10.5056113337819,0.08253765523168287
15.799267999999998,10.5083632962066,0.08232302238101223
15.801655999999998,10.508833618631163,0.08212696257220027
15.804036,10.512609294414258,0.08193110171356732
15.806432,10.512008681652183,0.08174139880792056
15.80882,10.507915724076469,0.08158188863429958
15.8112,10.50619695429951,0.08142645452268336
15.8136,10.499450269671323,0.08127143136294755
15.815984,10.487860765789144,0.08116378175333477
15.81838,10.476271261906959,0.0810560504482833
15.820776,10.460677556531945,0.08096880782601043
15.823163999999998,10.445316168582407,0.08090000990377916
15.825544,10.42823221914017,0.08083234530909279
15.827948,10.412358974511434,0.08075272514583114
15.830336,10.401653414360787,0.08066840363380548
15.832715999999998,10.394300429396914,0.08055788202932211
15.835112,10.386435587753846,0.0804368751815112
15.8375,10.381643782043833,0.08029860256467512
15.83988,10.380344321147456,0.08013029357175203
15.84228,10.371595535772853,0.07998444638002601
15.844663999999998,10.367270260771663,0.07980637112707724
15.847048,10.359360093158221,0.07963465536541788
15.849443999999998,10.35852716297067,0.07942692316305373
15.851828,10.357182376103918,0.07920888160418466
15.854208,10.355977358864026,0.07898510343185437
15.856604,10.363060283863524,0.07871340831610155
15.858992,10.369910891437545,0.07842393515392306
15.861387999999998,10.386352693863065,0.07810019468530256
15.863784,10.404144970728948,0.07775998627229358
15.866172,10.421285621288773,0.07741508389379932
15.868552,10.437215567035096,0.07708081971147565
15.870948,10.454495987221781,0.07673196889548112
15.873335999999998,10.471636637781605,0.07638823088792683
15.875716,10.493712655394042,0.07602463032305566
15.87812,10.516347751513917,0.07564633097013806
15.880503999999998,10.538563538753214,0.07528325198842624
15.882884,10.562501887485206,0.07491951163201788
15.885288,10.583367200284144,0.07457262231084068
15.887671999999998,10.600740168269446,0.074255098243935
15.890052,10.617973366627888,0.07393959039821221
15.892456,10.62784978830672,0.07366682686131713
15.894844,10.64410459927714,0.07338289833036678
15.897223999999998,10.652071468008172,0.07314298542839086
15.899628,10.66283183341854,0.07289688958956761
15.902016,10.679179192187576,0.07263726815381212
15.904391999999998,10.69017187502342,0.07241048952598302
15.906796,10.699814083418904,0.07219917449572309
15.909184,10.701168349575005,0.07203091638539469
15.911563999999998,10.706526817223935,0.07184631432691693
15.913968,10.70839294005923,0.0716885567665035
15.916352,10.710119293267663,0.07153442919641426
