Time,Force,Position
14.672724,0.3344140106640097,0.0
14.675112,0.3412532430908138,0.0
14.677496,0.3533527077943242,0.0
14.679892,0.36726728178914814,0.0
14.68228,0.3785734547018712,0.0
14.68466,0.38326702503965976,0.0
14.68706,0.3861435902282656,0.0
14.689448,0.3942803876935777,0.0
14.691828,0.4059548559428998,0.0
14.694223999999998,0.4246121179616247,0.0
14.696612000000002,0.44573611557772086,0.0
14.698996,0.4642517121117163,0.0
14.701396,0.48975010241511446,0.0
14.703784,0.5171561498084432,0.010107688048959293
14.706164,0.5392528472389532,0.021317277424822034
14.708564,0.5642355891474151,0.03210502894264245
14.710952,0.5983902170268001,0.042338340175439186
14.713332,0.6378522990111347,0.05222841981052086
14.715728,0.6824820654735585,0.061717303708119876
14.71812,0.7355848697726043,0.07104528976712293
14.7205,0.7931092885871951,0.08051393572034697
14.722896,0.855240417514565,0.09019091114333185
14.725283999999998,0.9263545450998855,0.09980844494848227
14.727668,1.0101291117540265,0.10930242078182723
14.730064,1.1124306500893781,0.11857096383606539
14.732452,1.2378224401062152,0.1275004877986708
14.734836,1.3779239917665331,0.13633360586602766
14.737232,1.5264494635773607,0.14520540979196664
14.739624,1.6889858488973675,0.15393668250616402
14.742007999999998,1.864462212539915,0.16257886308834493
14.744408,2.0540892593185025,0.17110688268284452
14.746796,2.262290499606544,0.1794906272964228
14.74918,2.4849219622843455,0.1877615340818913
14.75158,2.7193299202994323,0.18588464916023367
14.753964,2.972591611077694,0.18285181334015635
14.756340000000002,3.236838401260323,0.1801994337935463
14.758736,3.51113912528754,0.17805529687925256
14.761119999999998,3.7906056379349775,0.17628083898169788
14.763496,4.073003521030741,0.17493145846064387
14.765892,4.360149779724013,0.1736948531930679
14.768276,4.653861419163977,0.17222657211712533
14.770656,4.951998464835226,0.1704254251198184
14.773068,5.24464485666216,0.16862067782948542
14.775455999999998,5.52402640494246,0.16691933651303198
14.777836,5.783485181130816,0.16548968786527965
14.78024,6.023393272279566,0.16440632147795847
14.782628,6.251060233240074,0.16338742880010226
14.785008,6.469466552146782,0.16226269161429424
14.787412,6.6698124300811035,0.1612769472957249
14.7898,6.852237636669897,0.16038589600866074
14.792179999999998,7.014041223032446,0.1596619939067579
14.794572,7.15494364991503,0.15912301207039267
14.796956000000002,7.278297492504424,0.15867648911226584
14.799336,7.385685542666465,0.1582773224773693
14.80174,7.478178735587792,0.15790614173577888
14.804128,7.555078223134102,0.15759077517764533
14.806508,7.617035631611456,0.15733024605741944
14.808903999999998,7.671220746244358,0.15701880737695154
14.811292000000002,7.716562631846169,0.15667778363476184
14.813688,7.752082901028868,0.15636643631672215
14.816084,7.775080604911737,0.1561532130749911
14.818468,7.786299917599451,0.1560645262848636
14.820848000000002,7.7914203802492965,0.15604599462084184
14.823252,7.797332238832059,0.15602217890958897
14.82564,7.8112525004004905,0.1558686651363077
14.82802,7.826383466782421,0.15568868186174117
14.830424,7.837789770925238,0.15555983710544513
14.832812,7.848357457306894,0.15547529316755862
14.835192,7.860368165927525,0.1553870272043783
14.837584,7.875312140854352,0.1552553106048436
14.839972,7.8941205476471525,0.15506546735437926
14.842352000000002,7.917864321492566,0.15479936881802128
14.844756,7.941328556084258,0.15454863436442992
14.847144,7.9641411643698925,0.15429566211287987
14.849524,7.9873730815361075,0.15402512566904933
14.85192,8.013957573889098,0.15369221591046447
14.854304,8.040309748816611,0.15333738301756888
14.856684,8.064427505572231,0.15299374680703112
14.859088,8.092968772701266,0.15257355407043413
14.861476,8.120206787218184,0.152152270963441
14.863855999999998,8.150005980988958,0.15167617409047604
14.86626,8.179805174759736,0.15120007721751105
14.868648,8.210815073344008,0.15069964709983835
14.871028,8.240242180062447,0.15021180001338588
14.873432,8.261660883795217,0.1498462132705694
14.87582,8.28335912678171,0.14946961933431704
14.8782,8.30640784420856,0.1490609292752781
14.880596,8.325359812343958,0.14868371623031867
14.88298,8.3436601541733,0.1483052980250291
14.885364,8.359027229696444,0.1479690498675445
14.887768,8.374022218167255,0.14761852858088034
14.890152,8.383709752533113,0.14732306038809853
14.892536,8.392885430219772,0.14701959700204645
14.894932,8.405134143839492,0.14667019271763188
14.897316,8.414449591153014,0.1463621833442267
14.899696,8.418969441040783,0.1461170866661375
14.902092,8.424420456488331,0.14586159317269123
14.90448,8.432944507868937,0.1455619198256555
14.906860000000002,8.432668760330953,0.1453802886787223
14.909264,8.432113473539252,0.14521173369690066
14.911652,8.427553985254713,0.14509923871854516
14.914032,8.42248264029098,0.1449779551362164
14.916428,8.417690834580968,0.14484384543164713
14.918816,8.413690424803873,0.14470560173654373
14.921195999999998,8.418257496519885,0.14443223261143812
14.9236,8.421753633049258,0.14417644384731623
14.925984,8.426460474392131,0.14389829554973185
14.928368,8.431167315735005,0.14361901946057537
14.930764,8.436013926704739,0.1433336077399855
14.933148,8.438067040995138,0.14307798675307096
14.935544,8.439188989725759,0.14283287363193953
14.937948,8.443895831068632,0.1425518103958309
14.940336,8.447811276478586,0.14227483452625106
14.942716,8.451447182634821,0.14201233364129703
14.945116,8.453872383977558,0.14177216983121602
14.947504,8.455226650133653,0.14154752416658992
14.949884,8.452716484423776,0.14137100857972992
14.952279999999998,8.443129081288014,0.14129371229754698
14.954668000000002,8.43726634039136,0.14117411793136833
14.957052,8.43061220356179,0.14105847195211002
14.959456,8.424749462665138,0.14093848636752296
14.96184,8.419538348074546,0.14082075468427943
14.96422,8.408320931244702,0.14078637573549016
14.966624,8.3952411832953,0.14077314953092923
14.969012,8.374525119412569,0.14088463245786026
14.971392000000002,8.349665084410143,0.14105964383095515
14.973788,8.321312704594083,0.14129912481217
14.976176,8.29361195108408,0.14154241996996164
14.978556,8.265771427947216,0.14179149056058804
14.98096,8.243517898169022,0.14197714974338574
14.983348,8.224849261003083,0.1421249506932135
14.985728000000002,8.205389227904224,0.14227584542159707
14.988128,8.1875119866712,0.1424180515093209
14.990516,8.165910083199066,0.14260186807996258
14.992895999999998,8.147241446033124,0.1427479473241252
14.995292,8.132577010360018,0.14283933424444667
14.99768,8.124570503232222,0.14285026285114405
15.000063999999998,8.121359593530174,0.142802309095824
15.002456,8.116937979014631,0.1427779795429501
15.004844,8.116380796365059,0.1427051030525207
15.007228,8.121550376701018,0.1425640637688269
15.009632,8.129792992970032,0.14238036710721025
15.012016,8.14669563853077,0.14209145569492873
15.014399999999998,8.16359828409151,0.14180183952746245
15.016796,8.182782569652387,0.1414712664033061
15.01918,8.21011502782579,0.14102649825180671
15.021564,8.241731226745747,0.14051518645543087
15.02396,8.277631166412261,0.13994035790611137
15.026344000000002,8.31581274607891,0.13932994701118537
15.028724,8.35441363462614,0.13870689582470433
15.03112,8.389150091307396,0.13813351075232239
15.033508,8.424817713548432,0.13755269605168252
15.035892,8.461975579856686,0.13694222310362003
15.038288,8.504208582844413,0.13626720635346845
15.040676,8.546860894712719,0.13557795360881048
15.043056,8.592865781767804,0.13484489296478264
15.045452,8.634354610650856,0.13415876454717213
15.04784,8.674912273974128,0.1334839877497498
15.05022,8.71817088617812,0.13275528597634562
15.052616,8.759567167262555,0.13205247979768375
15.055004,8.796587159801815,0.13139105702199444
15.057388,8.828951324542187,0.1307776454339581
15.059784,8.85693920073739,0.13020128280111534
15.062172,8.887348486559585,0.12958514344543537
15.064556,8.916035210889088,0.12898020713262767
15.066952,8.942999373725891,0.12839466686019
15.06934,8.965307708763806,0.127852720934916
15.071736,8.984403238241804,0.12735731387496343
15.074136,8.997492465480551,0.12692989164555704
15.076524,9.006437721599603,0.12655447700502281
15.078904,9.017664617718793,0.12614533817433843
15.0813,9.02730872197215,0.12574198614326298
15.083684000000002,9.031458380665454,0.1254152528203905
15.086064,9.029881276373224,0.1251444123574624
15.088468,9.027373006521218,0.12488227071771693
15.090856,9.01857889517624,0.12469823784408765
15.093236,9.006571978271346,0.12455544949578869
15.095631999999998,8.993773665433537,0.12441478176935782
15.098016,8.979624878155365,0.12429918199545262
15.1004,8.959330019011084,0.12425555014311308
15.102804,8.934611649493386,0.12427408108232314
15.105187999999998,8.909613740721971,0.12430468743688806
15.107568,8.887921185309088,0.12431884856055082
15.109972,8.864598616202127,0.12436932542247817
15.11236,8.845792105267194,0.12438432774101094
15.11474,8.823353479891765,0.1244574358320846
15.117136,8.806873934927346,0.12449733851660451
15.119523999999998,8.790394389962925,0.12453701461118487
15.121904,8.780572773543813,0.12451515747929198
15.124296,8.778340251229789,0.12442429675391972
15.126684,8.776479815968102,0.12434876626944602
15.129068,8.778855899624727,0.12425203349496529
15.131464,8.784165249587543,0.12412595159421043
15.133852,8.794642284028452,0.12397078478139666
15.136247999999998,8.805211866267976,0.12384254077623616
15.138644,8.820297506679534,0.12368190628548548
15.141032,8.843112010823036,0.12344877363023338
15.143412,8.868580242019014,0.12319937318713373
15.145808,8.898704301013884,0.12291540900380447
15.148196,8.93562605818092,0.12256531094160808
15.150576,8.976412247213933,0.12217581468382534
15.152971999999998,9.019852163299422,0.12176850410649899
15.155360000000002,9.060638352332434,0.12138176933563355
15.15774,9.102355706925225,0.12098816720726997
15.160144,9.14113979521182,0.12062604067954928
15.162532,9.178341091632578,0.12026497616144842
15.164912,9.208372602828831,0.11995327714644041
15.167307999999998,9.2404062147715,0.11962271873476853
15.169695999999998,9.265362589288282,0.11936694688296103
15.172076,9.279005207460864,0.11920747957417543
15.174476,9.290133868207828,0.11905965998923472
15.17686,9.293673434849708,0.11897723880903428
15.179256,9.300425807051504,0.11885628288735678
15.181652,9.303733056267905,0.11875403272447065
15.18404,9.31095195917852,0.11858649382684082
15.186419999999998,9.313934343170827,0.11843886346450087
15.188816,9.31547370492416,0.11829026458866122
15.191204,9.315570044438516,0.1181398077452322
15.193584,9.310498699474781,0.11801534905717001
15.195988,9.305195037085571,0.11787095812784093
15.198376,9.306596525069914,0.11764422559840788
15.200755999999998,9.310419422681253,0.11738411243856724
15.203152,9.314382089919452,0.11711899793347175
15.20554,9.318112439732174,0.11683459562037574
15.20792,9.322122328798613,0.11653988395616661
15.210316,9.331998750477446,0.11619586818766339
15.212704,9.350954510328583,0.11576859341384371
15.215088000000002,9.366465147194328,0.11535751172272499
15.217484,9.389751869620262,0.11485453395059834
15.219868000000002,9.419976059845226,0.11428829834738223
15.222252,9.451271185256827,0.11371083559265945
15.224647999999998,9.48792098660162,0.11307357259796097
15.227035999999998,9.52219660014766,0.11244493469257184
15.229432,9.555541048133923,0.11182126887007272
15.231828,9.580877093134518,0.11127142104383395
15.234216,9.610077570001087,0.1106927691628897
15.236596,9.633271744628408,0.11016758932517114
15.238996,9.658468020002143,0.10962801143343828
15.24138,9.684315921681934,0.10909376056408268
15.243764,9.709604744854285,0.10858337424861823
15.246168,9.721670258734639,0.10819370520896296
15.248552,9.731082045562516,0.10781910911939101
15.250932,9.739422897203754,0.10745565997867126
15.253336,9.74962607996455,0.10708234168979602
15.255724,9.758758327538708,0.1067200602953796
15.2581,9.764305682500611,0.10637715767868901
15.260496,9.763986504850124,0.10608039926960046
15.262884,9.76604151499839,0.10578186665605065
15.26526,9.764604180333023,0.10552641088432906
15.267656,9.765029176787213,0.10526123212198264
15.270040000000002,9.764523007681623,0.10500146344356641
15.27242,9.762526594508813,0.10476740653001486
15.274832,9.757969002082145,0.10456867013187295
15.27722,9.756344675961673,0.10434879168403645
15.2796,9.759376177640092,0.1041016298958063
15.282004,9.760265808945233,0.1038758007933012
15.284388,9.765811268049267,0.10362290285192
15.286768,9.768935317526301,0.10340125805780241
15.289168,9.770708892562979,0.10319964143067356
15.291552,9.76968897092032,0.10301369139238181
15.293932000000002,9.778400013756027,0.10275956287421201
15.296328,9.78627243883057,0.1025355547251654
15.298711999999998,9.796146964651532,0.10229651180953359
15.301108,9.802668915285718,0.10209355606677518
15.303512,9.812403671479817,0.10186108855830278
15.3059,9.822650284353115,0.10163843528936362
15.30828,9.833268984278753,0.10143046573495472
15.310683999999998,9.845377928271608,0.10119908931266952
15.313068,9.858278268197386,0.10096815298851668
15.315448,9.86903673774988,0.100758537282354
15.317851999999998,9.882448934354851,0.1005397112856826
15.320239999999998,9.896280439840403,0.1003068261829006
15.32262,9.91383660756507,0.10005464454178861
15.325024,9.930321840103097,0.09981306076796914
15.327412,9.946946842267984,0.09956783859291833
15.329792,9.962640678873093,0.09932754979902832
15.332188,9.976332414731786,0.09910193395022608
15.334572,9.990303689844199,0.09886709740119523
15.336952,10.006556604956746,0.09860869266330247
15.339356,10.025742786375492,0.0983315893484563
15.341743999999998,10.0421354711149,0.09807028988927184
15.344124,10.058435608055696,0.09778511692318079
15.346528,10.071662709063434,0.09752353118722903
15.348912,10.085960745257813,0.09725253514202935
15.351292,10.097837371825191,0.09701100043552761
15.3537,10.109993537646291,0.09676031854142059
15.356084,10.12363994753461,0.09648678890949157
15.358467999999998,10.132211220743457,0.0962503911296477
15.36086,10.140270637273103,0.09600490322484988
15.363248,10.143534456377001,0.0957859603407288
15.365628,10.144284318055282,0.09557136932865277
15.368032,10.145685806039623,0.09536220326781843
15.37042,10.143502401411709,0.09516596647256786
15.372800000000002,10.140527600850879,0.09496930267771353
15.375204,10.13648186510341,0.09478190006914478
15.377592,10.131504963796159,0.0945983951368823
15.379972,10.129880637675688,0.09438339179946997
15.382368,10.124252110062384,0.09419436386505715
15.384756,10.11662148170266,0.09401860507311444
15.387136000000002,10.1079199181563,0.09385186039421835
15.389532,10.099078584983078,0.0936897103338458
15.39192,10.090749108489055,0.093537147052991
15.3943,10.088565703861143,0.0933411085923748
15.396704,10.086522068860091,0.09314050226056678
15.399088,10.084897742739619,0.0929260478804997
15.401468,10.084344351805788,0.09270323620196515
15.403872,10.08164909049868,0.09249792342156203
15.406256,10.084540822550238,0.09226854478264469
15.408636,10.087153015348079,0.0920486589874664
15.411032,10.09456080557167,0.09180362702329505
15.413416000000002,10.1006181213549,0.09157606683814795
15.415796,10.105744271578354,0.09135294919820947
15.418195999999998,10.112872522548225,0.09111709666171346
15.42058,10.12279427019743,0.09087008457224931
15.42296,10.12964298191358,0.09064351219634617
15.425356,10.139285190309065,0.09040516292107649
15.42774,10.147437154637332,0.09019032878401648
15.43012,10.160105177137627,0.08996000088865323
15.432536,10.172493660384204,0.08973857693429843
15.434920000000002,10.185813309190559,0.08951387367565301
15.4373,10.196991087623637,0.0893058428019017
15.439704,10.210031197176272,0.0890908992490737
15.442092,10.214783364489522,0.08893453163344674
15.444472,10.218185057362408,0.08879575064627908
15.446876,10.220096506168078,0.08867917233261867
15.44926,10.221588646093167,0.08857669646273428
15.45164,10.223872181951172,0.08847500764137083
15.45404,10.221360120383428,0.08839676658735886
15.456423999999998,10.217777123629046,0.08832677050193194
15.458804,10.212192026128244,0.08826876370259519
15.461200000000002,10.211262756426336,0.08819224726096368
15.463588,10.211404421911064,0.08810760175590046
15.465972,10.217272850381324,0.08799738279221364
15.468368000000002,10.218997307731891,0.08791517966868925
15.470752,10.22579690176193,0.08780150483444404
15.473132,10.231525560605329,0.08769616055158598
15.475536000000002,10.23632305388895,0.0875945541860237
15.477924000000002,10.24153985605315,0.08747980281284677
15.480304,10.24889852859063,0.08734913725913805
15.482703999999998,10.254255100381693,0.08723009446850778
15.485092000000002,10.26268470810581,0.08709155621258072
15.487472,10.26804127989687,0.08697267070182822
15.489868,10.278472988367405,0.08682251481193176
15.492256,10.289975632024577,0.0866642641987102
15.494636,10.304551311614805,0.086486920123048
15.497039999999998,10.317124890458615,0.08632110373699126
15.499427999999998,10.329698469302427,0.08615544159894685
15.501808,10.347207415198849,0.08596410661796852
15.504204,10.368720562588107,0.08575104609382264
15.506592,10.393446515537278,0.0855153233042719
15.508972,10.416869215874335,0.08527055769606752
15.511368,10.44094354251745,0.08503271004163337
15.513756,10.454355739122422,0.08484503319913657
15.516152000000002,10.473914007593503,0.08462109234179713
15.518548,10.489747613825475,0.08441069843636624
15.520936,10.50893379524422,0.084174606241591
15.523316,10.53240371740952,0.08391036707350796
15.52572,10.5562929484554,0.08363495334314354
15.528108,10.580741258008722,0.08334402436828213
15.530487999999998,10.605608876442624,0.08304022491297205
15.532884,10.630104407824192,0.08272372036142452
15.535272,10.656369722526696,0.08237901370797072
15.537652,10.685196216483059,0.08200999772117616
15.540052,10.714721558573721,0.08162085105127793
15.542436,10.742012482492491,0.08122507021143541
15.54482,10.7698624849187,0.08081211715794086
15.547216,10.79841133547921,0.08037912634802956
15.549600000000002,10.82244412786769,0.0799574889748018
15.55198,10.842100631710998,0.07954279121492894
15.554376,10.859103408501829,0.07913359352231221
15.556764,10.873824545292525,0.07874314253967721
15.55916,10.88472847204549,0.07834131534144981
15.561556,10.900055909171872,0.07790632294154089
15.563944,10.90993612256644,0.0774846280254054
15.566324000000002,10.923820537453844,0.07704505288827243
15.56872,10.933980290102136,0.07661748735460035
15.571108,10.938692819018616,0.0762024022652713
15.573488,10.94233441274846,0.07579500084545561
15.575892,10.943834136105025,0.07540123018487009
15.578276,10.949338060954423,0.07499118450003751
15.580656,10.952560345803684,0.07459795055968252
15.58306,10.955503091399226,0.07421349152740424
15.585444,10.954441635501933,0.07384738975747208
15.587824,10.955242510724197,0.07347808719311828
15.590228,10.955903616319603,0.07311273722879577
15.592616,10.95470239079545,0.0727507640824566
15.594995999999998,10.954292561204216,0.07239150540497112
15.597392,10.955884832359398,0.07202392498177711
15.599776,10.956126629074221,0.07166927497647332
15.602156,10.95809098728174,0.07131505555892634
15.604551999999998,10.958612323250284,0.07095187289435431
15.606936,10.959086437390585,0.07061379249431127
15.609331999999998,10.960724034516142,0.07029229142474483
15.611728,10.963944423507533,0.06997481407253549
15.614116,10.961018740632817,0.0696847503523695
15.616496,10.954740482571323,0.06941555018247506
15.6189,10.946692441188889,0.06917158002926274
15.621288,10.9348725157391,0.06896120803902622
15.623664000000002,10.923704216595366,0.06875682165991984
15.626068,10.906250075958663,0.06858375226834218
15.628456,10.891309892747575,0.06841297734924567
15.630836,10.876090170282767,0.06825010298639664
15.63324,10.859240434123878,0.06810880695631584
15.635628,10.839038122778213,0.06798877032529166
15.638008,10.818928359231165,0.06789093166104361
15.640404,10.806267920162346,0.06777883107325493
15.642788,10.78918397072011,0.0676934603223583
15.645172,10.771680712397298,0.06761979768302898
15.647568,10.760975152246647,0.06752611251548232
