Time,Force,Position
16.055163999999998,0.0,0.0
16.05756,0.0,0.0
16.059948,0.0008445446057184067,0.0
16.062331999999998,0.0008445446057184066,0.0
16.064728,0.0014095499577163927,0.0
16.067111999999998,0.002626181615772279,0.0
16.069492,0.007847014766661869,0.0
16.071887999999998,0.01586134459688642,0.0
16.074275999999998,0.0249466096137495,0.0
16.076656,0.0349630401903909,0.0
16.079052,0.042977370020615455,0.0
16.08144,0.05192286541061832,0.0
16.083824,0.05793509449442602,0.0
16.08622,0.06194522283181687,0.0
16.088604,0.06609512079606793,0.0
16.091003999999998,0.0710364146932371,0.0
16.0934,0.07597770859040627,0.0
16.095784,0.08091900248757544,0.0
16.098167999999998,0.08693123157138315,0.0
16.100564,0.09587672696138602,0.0
16.102952,0.10295989123183226,0.0
16.105332,0.10883235068877974,0.0
16.107736,0.11213770404731238,0.0
16.110124,0.11535643645178512,0.0
16.112503999999998,0.11600806275784302,0.0
16.1149,0.11479143109978712,0.0
16.117292,0.10957059794889754,0.0
16.119671999999998,0.10155626811867298,0.0
16.122068,0.09247100310180989,0.0
16.124456,0.0824545725251685,0.0
16.126836,0.07444024269494394,0.0
16.129232,0.06549474730494109,0.0
16.131619999999998,0.05948251822113338,0.0
16.134,0.055897625608880314,0.0
16.136395999999998,0.052033193742906825,0.0
16.138783999999998,0.04765690519773564,0.0
16.141168,0.04421178221234277,0.0
16.143563999999998,0.04290852960022697,0.0
16.145948,0.037321536241557055,0.0
16.148343999999998,0.028376040851554183,0.0
16.15074,0.02129287658110795,0.0
16.153128,0.015420417124160462,0.0
16.155511999999998,0.011270519159909401,0.0
16.157908,0.008051786755436665,0.0
16.160296,0.03382402873894757,0.0
16.162675999999998,0.08329685372631576,0.013290938759371379
16.16508,0.1440796433421455,0.025866430358439246
16.167468,0.2204542424751217,0.03783607469799476
16.169847999999998,0.318612048961729,0.04901422094333396
16.172244,0.4428368035485216,0.05933716304459344
16.174632,0.5926638713845449,0.06898798640714793
16.177011999999998,0.7611104587003961,0.07832246045323357
16.179408,0.9416584065776268,0.08764483258253751
16.1818,1.1304354604478375,0.09727702960279087
16.184179999999998,1.3472815631646502,0.1065434957242316
16.186576,1.5966674469297224,0.11527608833971387
16.188964,1.8538256245392464,0.12404049112758839
16.191344,2.123829336814825,0.13279979002738007
16.19374,2.426185838683561,0.14133839641352203
16.196127999999998,2.7549419765790013,0.1497275675356938
16.198512,3.1123753595145978,0.1577961748284853
16.200908,3.4880580707355544,0.1656763737047493
16.203291999999998,3.889953187257164,0.17319393023460147
16.205692,4.305398374152739,0.18046087456889454
16.208092,4.688966542182378,0.18776089704383853
16.210476,5.055730300023502,0.18173255570778474
16.21286,5.417562482527754,0.17635107878106338
16.215256,5.760916811036908,0.17157920889411474
16.217644,6.0869114425658415,0.16752468680279806
16.220024,6.387026117449693,0.16428475353862398
16.222424,6.658699656434607,0.16168545466894835
16.224812,6.904024812207744,0.15949930686818592
16.227192,7.141670221935047,0.15734834673265324
16.229588,7.384209464460328,0.15475197432910912
16.231976,7.604081555900443,0.1524140402627873
16.234356,7.780891505881013,0.15071871722751237
16.236752,7.955933568398516,0.14899751055151134
16.239136,8.118175422220338,0.1473096786850969
16.241519999999998,8.248111708277245,0.1458578346825502
16.243916,8.354774542913304,0.1444981770575925
16.246304,8.43113011881513,0.1435000449960117
16.248687999999998,8.491750323857207,0.1426727681368662
16.251084,8.526018353971773,0.14221431133435264
16.253472,8.546084687406314,0.14200405462819485
16.255868,8.566942416773776,0.14178600809305225
16.258264,8.57737222938644,0.14162877200130225
16.260652,8.580724804573213,0.1415718325665371
16.263036,8.593434361328143,0.14147330421246487
16.265432,8.602931112523162,0.14142637447096804
16.26782,8.6107978500241,0.1414214939651531
16.2702,8.619593857226949,0.14150211639268015
16.272596,8.639935938199475,0.14147255863302965
16.274984,8.661071310962788,0.14134527028258562
16.277368,8.66404990323936,0.14136991261540943
16.279764,8.649009588798176,0.14163311403244855
16.282152,8.637693936596106,0.14186278878653427
16.284532,8.614926654280847,0.14213507172905362
16.286936,8.586666822263403,0.1424039159650697
16.289324,8.561619795805875,0.14262179750798887
16.291704,8.527400883377423,0.1429404052538063
16.2941,8.486151955351325,0.14333767096777852
16.296488,8.436475315458981,0.14387761285961856
16.298872,8.38945240261911,0.14438832164728393
16.301268,8.347364856831852,0.14482435015072054
16.303656,8.30578916772379,0.14527669712827795
16.306036,8.2659813660788,0.145787496469318
16.308432,8.228687521859422,0.14627902349075103
16.31082,8.187204380549982,0.14676217008538772
16.3132,8.141904029202808,0.14726056044635155
16.3156,8.093670411549438,0.14780587565380718
16.317988,8.045484015724313,0.14832263982713015
16.320368,7.997205072100568,0.14880209317656756
16.322764,7.944921926983993,0.1493293634362544
16.325148,7.90059996302484,0.1497749223982776
16.327544,7.871316417649001,0.15004392042336978
16.329943999999998,7.847991952684169,0.15026577535988334
16.332328,7.839798454101267,0.15032521859700324
16.334712,7.837703805556232,0.15032554632034006
16.337108,7.834910308876898,0.15035939990277714
16.339496,7.839239375593826,0.15035191765247582
16.34188,7.86247129276004,0.15010305170090257
16.344276,7.900276993658614,0.14962106845968498
16.346664,7.936127815639014,0.1491367039322767
16.349044,7.9629465212753505,0.14875321382871626
16.351444,7.992046866911826,0.14832325784371878
16.353828,8.02319653512296,0.14782194801166057
16.356212,8.055092273296639,0.1472551733126431
16.358608,8.090480356283953,0.14663309466574023
16.360996,8.126380295950467,0.146016761036498
16.363376,8.162000696363258,0.14540267444743943
16.365776,8.200786680507722,0.14476826604091464
16.368164,8.236639398345993,0.14418072993921616
16.370544,8.269698619504926,0.1436276700579991
16.372944,8.29717084730519,0.14314511882291006
16.375332,8.320499103985762,0.14272856850568807
16.377712,8.350392741413023,0.1422032950846661
16.380108,8.369578922831769,0.1417638347842839
16.382496,8.388812326078757,0.1412946298449062
16.384876,8.40632316783305,0.1408381940841991
16.387276,8.421599591415447,0.14038676859356053
16.389664,8.426121337161085,0.14004798774709515
16.39206,8.419748635443106,0.1398216007023202
16.394455999999998,8.411793141859292,0.13960225755000255
16.396843999999998,8.408074167193783,0.13934990205969636
16.399228,8.40859171144659,0.13906635241317342
16.401623999999998,8.415115557938647,0.13870500289503784
16.404016,8.420568469244063,0.1383622507532278
16.406399999999998,8.414660402377038,0.13817843246286352
16.408796,8.410986753681906,0.13798986226094456
16.411184,8.415973134278499,0.1376998249626498
16.413567999999998,8.423008837449753,0.13735168279866902
16.415972,8.432093863195666,0.1369459975441062
16.41836,8.44252936338194,0.13651119783185273
16.420744,8.452545554687632,0.13609243890311748
16.42314,8.465495012299517,0.13563770635007733
16.425528,8.473509102858793,0.13524843804846765
16.427908,8.478170618231292,0.13491137845215356
16.430304,8.47854839285724,0.13463818111303386
16.432692,8.479158484908663,0.13438528767127245
16.435071999999998,8.482934160691757,0.13411909707904573
16.437472,8.488152858713825,0.13385278016680843
16.43986,8.495885514161511,0.13356969571709973
16.442244,8.50664398371401,0.1332805543723676
16.44464,8.52163897218482,0.13296457298434694
16.447028,8.532769528789654,0.13269360393056598
16.449412,8.535379825729624,0.1325138672104468
16.451808,8.534917086736538,0.13237448159849508
16.454196,8.54325414666204,0.13213204203491563
16.456576,8.554244933640014,0.1318691451994886
16.458976,8.562442223938655,0.13163616853045437
16.461364,8.563050420132209,0.13148225937734373
16.463744,8.558024401138848,0.13141670652983223
16.466148,8.553090929944107,0.13137878216197246
16.468536,8.556398179160507,0.13126593627825323
16.470912,8.560496824309826,0.13115075229720932
16.473308,8.565014778339727,0.13101796640951552
16.475696,8.575771352034353,0.1308352084296773
16.47808,8.592487006139992,0.13061617934606948
16.480476,8.614138027298239,0.13034120716849018
16.482864,8.63676743584451,0.13002687208153507
16.485243999999998,8.655811951778524,0.1297405291684348
16.48764,8.675647863645459,0.12945252468253504
16.490028,8.693341905139116,0.12919478625833183
16.492407999999998,8.70759082364738,0.12896148906444974
16.494808,8.725052547715558,0.12868563869862554
16.497192,8.749823826635106,0.12834820499907515
16.499575999999998,8.777109062980267,0.12799695360219293
16.501972,8.80183312007157,0.1276948458305241
16.50436,8.820970183804205,0.12744327298364974
16.50674,8.838896542723338,0.12721264126133824
16.509135999999998,8.864644313173038,0.1269299585226458
16.511523999999998,8.897050012168044,0.12658349853257236
16.513904,8.929735250416773,0.12622525907887883
16.516303999999998,8.955250703440996,0.12592494167619087
16.518691999999998,8.979323134226242,0.12562533645788393
16.521072,9.002836486504044,0.12535084695458795
16.523476,9.024906816542872,0.12507775884554512
16.525864,9.041157835797554,0.12483391382648208
16.528244,9.0553142065072,0.12458711376592746
16.530644,9.065978232403213,0.12439336559393452
16.533032,9.083300186844532,0.12413979752425527
16.535412,9.10169307647249,0.12387448247884834
16.537808,9.121576210167667,0.12357958309354873
16.540195999999998,9.138386307929789,0.1233182117941936
16.542576,9.155056636065051,0.12306482415448558
16.54498,9.167071136401422,0.12285087745892428
16.547363999999998,9.18029634155129,0.12261939657778272
16.549744,9.192637602969624,0.12236426281298411
16.552152,9.210845397000348,0.12205319498810273
16.554536,9.231334831031212,0.12171194058031569
16.556919999999998,9.247867285397481,0.1213820433863445
16.559324,9.258812746405084,0.12109742908395842
16.561708,9.273110782599462,0.1207708671253907
16.564092,9.287408818793839,0.12044308082572296
16.566488,9.303569186107769,0.12010252459001151
16.568876,9.318006991929009,0.11977107504740304
16.571255999999998,9.330442697003829,0.11946013523561352
16.573656,9.344041885063904,0.11916173945765185
16.576044,9.356942224989679,0.118891310222903
16.578424,9.37440584491573,0.11856126119097068
16.58082,9.38628247148311,0.11827497239567054
16.583208,9.39708816286385,0.11800251090920674
16.585592,9.406962688684812,0.11773793530958564
16.587988,9.419258624132771,0.11743687859109624
16.590376,9.428761062901398,0.11715741162858705
16.59276,9.441476307229937,0.1168420350686517
16.595156,9.44860455819981,0.11656753749668324
16.597544,9.456104896222016,0.11630788313606158
16.599923999999998,9.458297780139274,0.11607878837874101
16.602324,9.454624131444142,0.11590094673135655
16.604712,9.452393504987986,0.11572569862878877
16.607091999999998,9.453096144838028,0.1155246747828115
16.609488,9.450585979128151,0.11536055194584338
16.61188,9.45194024528425,0.11516455731636271
16.614259999999998,9.450221475507291,0.11499937875011292
16.61666,9.446780144237634,0.11484158650583891
16.619048,9.443059273714258,0.11469423414016729
16.621427999999998,9.438035150578767,0.11453855390598798
16.623824,9.43357010595072,0.11436144767616738
16.626212,9.419606414269785,0.11428675263486439
16.628591999999998,9.409087845574238,0.11419605508178249
16.630983999999998,9.395915549826222,0.11411976235131108
16.633371999999998,9.380601383704928,0.11406727197611599
16.635768,9.366450700568889,0.11402811567953894
16.638168,9.35108931261935,0.11400640572917878
16.640556,9.332515119109894,0.11402010772981114
16.642936,9.322041876384723,0.11398492562278147
16.64534,9.311708403286417,0.1139442285371681
16.647724,9.304540513919779,0.11389856296524997
16.650104,9.303099387538671,0.11380802452785757
16.652504,9.297142202985535,0.11374482943667201
16.654892,9.290533392126338,0.11367731884089533
16.657272,9.282713876453643,0.11362700222203503
16.659668,9.271821324847894,0.11360674139303752
16.662056,9.26307064361542,0.11356259732870909
16.66444,9.255902754248783,0.11351614259922893
16.666836,9.251947670442062,0.11343406115421219
16.669224,9.25357957999401,0.11331351180915117
16.671604,9.255863115852017,0.11319752706562568
16.674,9.269228090628747,0.11297943010396973
16.676388,9.279427481673803,0.11276589749706008
16.678767999999998,9.292560139025055,0.11252821909681222
16.681164,9.310628163428918,0.11224920111250566
16.683552,9.330465971153721,0.111934016043789
16.685948,9.356449850744637,0.11156210114950385
16.688344,9.38336489589533,0.11118384557973215
16.690732,9.403249925448375,0.11084080156590657
16.693116,9.42327472462828,0.11049332053115088
16.695512,9.44185650156921,0.11014282114664811
16.6979,9.458715717017444,0.10980089509336792
16.700284,9.483164026570766,0.10940630458435308
16.702688,9.509334897616784,0.10900739792003082
16.705071999999998,9.53713578235688,0.10857705370207123
16.707456,9.565355975977559,0.10813101375189077
16.709851999999998,9.59157406885182,0.10770308062439692
16.712236,9.623286607286134,0.10721792335229031
16.714616,9.653276584227752,0.10674221566296141
16.717016,9.67753979818384,0.10630842189639075
16.719404,9.700220220274089,0.10587694247112213
16.72178,9.715032009005533,0.1055077790307791
16.72418,9.731706128856535,0.10512757760635773
16.726564,9.745586752028201,0.1047645068581133
16.728948,9.755882482587614,0.10442017027379535
16.731344,9.764036342773748,0.10409839796218448
16.733732,9.766603209601211,0.10381029824547346
16.736112,9.766795888629922,0.10352266885833693
16.738508,9.77006160359169,0.10320840545927434
16.740896,9.773467088180317,0.10288956173574353
16.743292,9.77887467351536,0.10255558281745636
16.745687999999998,9.782280158103987,0.10223685229581567
16.748075999999998,9.784102850826775,0.10192097781633726
16.75046,9.782992277243368,0.10162604374957919
16.752855999999998,9.780531229219601,0.10135103870019375
16.755243999999998,9.779792742688532,0.10107102370667669
16.757628,9.777191925037908,0.10080026978816908
16.760023999999998,9.767513869961393,0.10058492087653265
16.762415999999998,9.751549973391908,0.1004238308547384
16.764796,9.73679678163592,0.10024716165523583
16.767191999999998,9.724837086559269,0.1000551474988596
16.769584,9.71688159297545,0.09983278964601439
16.771967999999998,9.71078843051119,0.0996008106520281
16.774364,9.708559699912904,0.09934427360997906
16.776752,9.706982595620673,0.09909261941640848
16.779132,9.70633665688822,0.09883651766798573
16.781532,9.708344445208244,0.09857085554846662
16.783915999999998,9.711935025394105,0.09830461800123907
16.7863,9.717108397445799,0.0980396403619926
16.788695999999998,9.722933395803555,0.09778036918408144
16.791083999999998,9.729689559721084,0.09751778803565811
16.793464,9.739518759571673,0.0972317318705219
16.795863999999998,9.746135153862348,0.09697490951690238
16.798251999999998,9.750889217033462,0.09672646907763142
16.800636,9.75550351057772,0.09648255179272257
16.803031999999998,9.758907099308477,0.09625339466157076
16.805419999999998,9.766966515838126,0.09600139590808039
16.807804,9.779681760166667,0.09572666436343295
16.8102,9.802547277854151,0.09537699757753425
16.812587999999998,9.825924652220834,0.09503774507479998
16.814968,9.844878516214102,0.09474135429732009
16.817368,9.86262167539387,0.09446005224328917
16.819755999999998,9.877152029013725,0.09420758694492207
16.82214,9.888329807446803,0.09398839468819453
16.824536,9.897365715506607,0.09378736234730785
16.826919999999998,9.901326486886935,0.09362253349025218
16.829304,9.90207445270735,0.09348544543197435
16.831699999999998,9.909620116699932,0.09330908481393846
16.834087999999998,9.913161579199679,0.09315989761436204
16.836472,9.915632106512788,0.09302007808523523
16.838864,9.9156812241989,0.09290830217483934
16.841255999999998,9.920246400057046,0.09278119590057302
16.84364,9.925602971848107,0.09265462543282918
16.846035999999998,9.936546536997838,0.09250329716538253
16.84842,9.949492202893987,0.09233918360957419
16.850804,9.964719508790274,0.09215358244984559
16.853203999999998,9.977153318007225,0.09198083193345515
16.855591999999998,9.988655961664398,0.09181307237880204
16.857972,9.998947900508073,0.0916605187006587
16.860371999999998,10.012312875284803,0.0914878513062322
16.862756,10.030101360434944,0.0912768442869261
16.865136,10.051102651145003,0.09104185931978383
16.867535999999998,10.0731748770417,0.09079852984174988
16.86992,10.096597577378756,0.0905376856089894
16.872315999999998,10.126306119208785,0.09023250211069793
16.874712,10.16388329439762,0.0898837501150588
16.8771,10.20667537589279,0.08949914916927172
16.87948,10.24173859365601,0.08915687951583835
16.881884,10.280806012912063,0.08879153767740788
16.884272,10.318942266608337,0.08842986920496218
16.886651999999998,10.358428994744973,0.08805204286032405
16.889048,10.389255693589883,0.08771832320870106
16.891436,10.42101355799457,0.08738175301614644
16.893815999999998,10.448906990533285,0.08706540826120657
16.896216,10.478011127885498,0.08673869931612384
16.8986,10.503902459677796,0.0864371330676415
16.90098,10.529793791470095,0.08613545814028345
16.90338,10.553822792142833,0.0858413638227207
16.905768,10.572125029830042,0.08557320080370008
16.908148,10.587494001211057,0.08532118631971168
16.910552,10.599650167032157,0.08509335372330795
16.91294,10.60379792986759,0.08491007923055251
16.915319999999998,10.60701452714324,0.08473016223297396
16.917716,10.607018318858978,0.0845732411208737
16.920104,10.60087603870861,0.0844543598398712
16.922487999999998,10.587004894826288,0.08437075407109179
16.924884,10.564985578331441,0.0843355093618369
16.927272,10.547761859262348,0.08427895963278892
16.929652,10.525742542767501,0.08424283330411964
16.932047999999998,10.505073700713014,0.08418984728943041
16.934435999999998,10.479609261232774,0.0841571621305103
16.936816,10.454144821752534,0.08412457309773307
16.939216,10.428028755966238,0.08408591983463383
16.941599999999998,10.402192229433659,0.08403807943982562
16.943984,10.373142897341166,0.08401259270923916
16.946379999999998,10.344233334875534,0.08398245555303455
16.948767999999998,10.319188204275875,0.08393446172863984
16.951164,10.296005404795773,0.08387974074183069
16.95356,10.274545166808366,0.08382290232849045
16.955948,10.25108282807454,0.08377660826705835
16.958327999999998,10.227248402288382,0.08371528916006424
16.960724,10.213424480234305,0.08359999809605581
16.963112,10.205327321165761,0.08346177113016667
16.965491999999998,10.202864377284127,0.08327722975296625
16.967888,10.200261663775635,0.0830964779288827
16.970276,10.204875957319892,0.08287218056480639
16.972656,10.2149846964242,0.08260507194195259
16.975056,10.220158068475895,0.0823626564868609
16.977444,10.229335642020427,0.08209911247918598
16.979824,10.23730251075146,0.0818475992269588
16.982219999999998,10.252998243214442,0.0815637195529672
16.984607999999998,10.269904680490917,0.08126689317793923
16.986992,10.28373808183434,0.0809874472893907
16.989387999999998,10.297711252804621,0.08070366529749536
16.991772,10.311963963028623,0.08041080886080211
16.994168,10.328498313252764,0.08009947993731341
16.996564,10.341727310118372,0.07978819219787397
16.998952,10.353373515118145,0.07947443467806611
17.001336,10.367580899371776,0.07913367577412517
17.003732,10.382347362132844,0.07877455170492903
17.00612,10.399488012692668,0.07842061188158488
17.008504,10.408899799520546,0.0780992527708408
17.0109,10.410070865937277,0.07779894152285605
17.013288,10.408680753100152,0.07752666990646728
17.015672,10.411062524330383,0.07721602211262082
17.018068,10.4102314900007,0.07692744172500636
17.020456,10.41112301716371,0.07663889445918041
17.02284,10.412573622834165,0.07633231302214574
17.025236,10.412673754064258,0.0760416664441632
17.027624,10.414124359734712,0.07573565052427336
17.030003999999998,10.407706332046358,0.07546249928643974
17.0324,10.405152736223979,0.07517537891903163
17.034788,10.403018449282179,0.07487398128412821
17.037171999999998,10.402327184579354,0.07458078397533074
17.039568,10.401496150249669,0.07429154691076961
17.041952,10.397312540733209,0.07402662859440072
