Time,Force,Position
17.243996000000003,0.050552774045395474,0.0
17.246375999999998,0.05328706660568673,0.0
17.248772000000002,0.055090193606199656,0.0
17.25116,0.05568261579321385,0.0
17.253543999999998,0.05641480760708825,0.0
17.255940000000002,0.05714699942096265,0.0
17.258324,0.05714699942096265,0.0
17.260708,0.05714699942096265,0.0
17.263104,0.05714699942096265,0.0
17.265492000000002,0.05548364204730993,0.0
17.267888,0.052609579860158476,0.0
17.270283999999997,0.04973551767300701,0.0
17.272672,0.04579052029921702,0.0
17.275052000000002,0.040774587738788504,0.0
17.277448,0.03468771999172145,0.0
17.279836000000003,0.027529917058015857,0.0
17.282216,0.02051188375117048,0.0
17.284624,0.014564785630963644,0.0
17.287008,0.009548853070535122,0.0
17.289388000000002,0.007605956443161984,0.0
17.291784,0.006594225375567165,0.0
17.294171999999996,0.0038599328152759144,0.0
17.296552,0.002056805814762985,0.0
17.298948000000003,0.0014643836277487968,0.0
17.301336,0.0007321918138743984,0.0
17.30372,0.0,0.0
17.306116000000003,0.0,0.0
17.308504,0.0,0.0
17.310884,0.0,0.0
17.31328,0.0,0.0
17.315668000000002,0.0,0.0
17.318064,0.0,0.0
17.320459999999997,0.0,0.0
17.322848,0.0,0.0
17.325228000000003,0.0,0.0
17.327627999999997,0.0,0.0
17.330016,0.0,0.0
17.332396000000003,0.0,0.0
17.334792,0.0,0.0
17.337179999999996,0.0,0.0
17.339564000000003,0.0,0.0
17.34196,0.0011515006944550288,0.0
17.344347999999997,0.0032341669486883784,0.0
17.346732000000003,0.003234166948688378,0.0
17.349136,0.003234166948688378,0.0
17.351523999999998,0.0032341669486883784,0.0
17.353904,0.0032341669486883784,0.0
17.356308,0.0032341669486883784,0.0
17.358691999999998,0.0032341669486883784,0.0
17.361075999999997,0.0032341669486883784,0.0
17.363472,0.0032341669486883784,0.0
17.365859999999998,0.0032341669486883784,0.0
17.368243999999997,0.0032341669486883784,0.0
17.37064,0.0032341669486883784,0.0
17.373027999999998,0.0032341669486883784,0.0
17.375408,0.0032341669486883784,0.0
17.377803999999998,0.003234166948688379,0.0
17.380195999999998,0.003234166948688379,0.0
17.382571999999996,0.003234166948688379,0.0
17.38498,0.003234166948688379,0.0
17.387363999999998,0.003234166948688379,0.0
17.389744,0.00208266625423335,0.0
17.392152000000003,0.0,0.0
17.394536000000002,0.0,0.0
17.396915999999997,0.0,0.0
17.399316,0.0,0.0
17.401704000000002,0.0,0.0
17.404083999999997,0.0,0.0
17.406480000000002,0.0,0.0
17.408868,0.0,0.0
17.411248,0.0,0.0
17.413643999999998,0.0,0.0
17.416032,0.0,0.0
17.418416,0.0,0.0
17.420811999999998,0.0,0.0
17.4232,0.0,0.0
17.425579999999997,0.0,0.0
17.427979999999998,0.0,0.0
17.430368,0.0,0.0
17.432747999999997,0.0,0.0
17.435144,0.0,0.0
17.437531999999997,0.0,0.0
17.439912,0.0,0.0
17.442312,0.0,0.0
17.444696,0.0,0.0
17.447076000000003,0.0,0.0
17.449475999999997,0.0015235877467925085,0.0
17.451864,0.0029074058667248066,0.0
17.454244000000003,0.0029074058667248066,0.0
17.45664,0.0029074058667248066,0.0
17.459027999999996,0.002907405866724807,0.0
17.461424,0.002907405866724807,0.0
17.463828,0.002907405866724807,0.0
17.466216000000003,0.002907405866724807,0.0
17.468595999999998,0.002907405866724807,0.0
17.470992000000003,0.002907405866724807,0.0
17.47338,0.002907405866724807,0.0
17.47576,0.002907405866724807,0.0
17.478156,0.002907405866724807,0.0
17.480544000000002,0.002907405866724807,0.0
17.482923999999997,0.002907405866724807,0.0
17.485324,0.007037498837748916,0.0
17.487707999999998,0.01833548117540992,0.0
17.490091999999997,0.04741436523173759,0.0
17.492488,0.10102273149278816,0.008100007457934108
17.494872,0.1802787369734434,0.015979497618944676
17.497256,0.28077464530682794,0.02337718615645487
17.499651999999998,0.38736561196234165,0.03133200866394728
17.50204,0.5061366088291822,0.039745404189343414
17.504419999999996,0.6497638489827093,0.048000066984242314
17.506819999999998,0.8194580372364217,0.05607775710933693
17.509203999999997,1.019038279485919,0.06377603312193458
17.511584,1.2347240837896294,0.07143862905613531
17.513992000000002,1.4646058971997535,0.07917621591235682
17.516376,1.7183202405381688,0.0868633625658151
17.51876,2.0026648119770436,0.0943689100866445
17.521155999999998,2.3069793773361056,0.1017877935279208
17.523544,2.619438323591957,0.10930475133554701
17.525923999999996,2.941529998953947,0.11699224698056619
17.528323999999998,3.286895125736789,0.12467837923361527
17.530712,3.6615872280079738,0.13222335700780036
17.533091999999996,4.048441790817451,0.13971068494400524
17.535496000000002,4.4337135617610945,0.14722941588684024
17.53788,4.7983637124784915,0.15482142964400514
17.540264,5.137787428714736,0.15424464193532839
17.542668,5.444860251215691,0.15391381295820042
17.545052,5.724885842370569,0.1541439370011573
17.547435999999998,6.009246187815987,0.1536432958208049
17.549827999999998,6.2880724493045825,0.15256061827435474
17.552216,6.537154322282124,0.15167204874749401
17.5546,6.749973647830161,0.151055468193586
17.556995999999998,6.916472700388366,0.150995346759797
17.559384,7.064212463839885,0.1510035446255476
17.561763999999997,7.198779931543383,0.15095558958299996
17.56416,7.306721372639259,0.15099894790731563
17.566547999999997,7.379983058171465,0.1512214200750781
17.568944000000002,7.425638433850152,0.15169357709702821
17.57134,7.472226870946492,0.1520141734778396
17.573728000000003,7.51779538640017,0.15206460197109656
17.576107999999998,7.537623714835628,0.1521020922292372
17.578508,7.520303656252178,0.15237441518092704
17.580892,7.481476137853081,0.15280785429324983
17.583275999999998,7.434642112326181,0.15327150343339463
17.585672000000002,7.3918595101203595,0.1536309569647992
17.58806,7.345816880526379,0.1540930826527495
17.59044,7.30973753283624,0.15441940690166894
17.592836,7.273425867720624,0.15473220916025635
17.595224,7.222632966671263,0.15534650023405955
17.597608,7.173980040137312,0.15600497011829048
17.600004,7.135058078081726,0.15650531319915528
17.602392000000002,7.105447771623922,0.15688379575275016
17.604771999999997,7.094598650130677,0.15710712477999264
17.607172,7.091756035765229,0.15730173501131742
17.609560000000002,7.095199262892755,0.15737443352252356
17.611939999999997,7.102414374087635,0.15735324437845324
17.614336,7.109023184946831,0.1574024354057377
17.616723999999998,7.126992973978472,0.1572341522923628
17.619104,7.1352336943896155,0.15711767274143232
17.621504,7.133698124352024,0.1570898265739706
17.623891999999998,7.13691092991194,0.15702673951259521
17.626288000000002,7.1435688584572485,0.1569220094990971
17.628684,7.159166355548003,0.15665998707141437
17.631071999999996,7.186869004915874,0.15622304120883634
17.633452,7.223743540254671,0.15567393422675985
17.635852,7.264063198578859,0.15508173126549982
17.638236,7.29390582246214,0.15472161937366452
17.640616,7.330731240114825,0.15431096874100958
17.643012,7.381431593365567,0.15366660611065708
17.645400000000002,7.424217987287129,0.15309244265173738
17.647779999999997,7.459507834902219,0.15266999618418833
17.650176000000002,7.497404187741542,0.1522573825041889
17.652563999999998,7.5319026394237145,0.1518419407007278
17.654947999999997,7.562538555097783,0.15138245193344313
17.657344000000002,7.585353059241286,0.15101690386491937
17.659731999999998,7.605094527451735,0.15070501665977395
17.662128000000003,7.627349953087797,0.15036351894558866
17.664524,7.646904429843142,0.15009481333846517
17.666911999999996,7.671067512569134,0.14980278835556016
17.669292,7.698116639773079,0.14950491678237787
17.671687999999996,7.719299234364634,0.14929748041026922
17.674076,7.74909463641967,0.14899919926093125
17.676456,7.77469884552677,0.1488126532299789
17.678852,7.793552578289947,0.14869670236877797
17.681240000000003,7.800580698029724,0.148726684313289
17.683619999999998,7.810402314448836,0.14872152065646546
17.68602,7.833167700906227,0.14851861885972034
17.688408000000003,7.856399618072443,0.1482600692369717
17.690787999999998,7.873160598148453,0.14805410113449077
17.693188,7.891132283037961,0.14782405307947954
17.695572,7.910174903114108,0.14757358838531046
17.697955999999998,7.926284256884059,0.14736444932718223
17.700352000000002,7.948352691065018,0.14710385126597122
17.70274,7.9773113712167625,0.14678789461895708
17.705136000000003,8.01106564879426,0.1464144584521107
17.707535999999998,8.04542433084957,0.14607600090304124
17.709919999999997,8.082157200703637,0.14572084809525726
17.712304000000003,8.123593120184838,0.14528007401230875
17.7147,8.16069997294911,0.1448492322902439
17.717084,8.197854047541625,0.14438781750546328
17.719468,8.239012323626975,0.14386684330132474
17.721863999999997,8.274863145607375,0.14340073623893257
17.724255999999997,8.312670742363817,0.14284203209008886
17.726636,8.344891345761592,0.14234923706316893
17.729036,8.377111949159364,0.1418545612439126
17.731423999999997,8.403326250317887,0.1414441891812191
17.733804,8.425396580356715,0.14110238592880506
17.736204,8.447187371141823,0.14077754369540982
17.738591999999997,8.466324434874457,0.1404809393782008
17.740975999999996,8.48383148491301,0.14022735998274138
17.743372,8.506645989056514,0.1399260489942121
17.745759999999997,8.533464694692851,0.13957147837549122
17.748143999999996,8.555162937679341,0.1392281219709101
17.75054,8.562521610216821,0.13902307011910486
17.752927999999997,8.560940714208852,0.13893403018229028
17.755308,8.564342407081742,0.1387482413437242
17.757708,8.571935292902566,0.1384711896343679
17.760095999999997,8.572498163125745,0.13825575309329874
17.762476,8.57720500446862,0.13798406118013826
17.764879999999998,8.580561371371132,0.13774146210647886
17.767268,8.584150055699125,0.13752047486044222
17.769652,8.59188271114681,0.13724378279499966
17.772047999999998,8.600546532154274,0.13695966420393194
17.774436,8.613494093908294,0.13661357922257397
17.77682,8.624671872341372,0.1363112431498723
17.779215999999998,8.642367809692898,0.1359421283643997
17.781604,8.655315371446916,0.1355922200031645
17.783983999999997,8.663794096857146,0.1352506727662204
17.78638,8.66919978633432,0.13494912639613593
17.788767999999997,8.674885015065215,0.13463463276273835
17.791148,8.674331624131382,0.13437446721403845
17.793548,8.671683584652515,0.1341126765896312
17.795935999999998,8.674622538532317,0.13379707925305362
17.798316,8.685941982450124,0.13339725442390837
17.800711999999997,8.703127958980323,0.1329274970571259
17.8031,8.717752756256663,0.13251027719673086
17.805480000000003,8.725719624987695,0.13216476306374617
17.807876,8.734477889651648,0.13181566696833633
17.810263999999997,8.736251464688324,0.1315819052653594
17.812644,8.741470162710394,0.13132575738638894
17.815044,8.747527478493627,0.13103438198848186
17.817431999999997,8.752141772037884,0.13074470363208593
17.819812,8.752612094462446,0.13050808328349056
17.822212,8.751871712073509,0.13029252201771468
17.824599999999997,8.757045084125206,0.12998035316223586
17.82698,8.758633563564649,0.12969742298133077
17.829375999999996,8.763527396362626,0.1293968687082578
17.831764,8.773449144011831,0.1290695496491325
17.834148,8.784953683526872,0.1287353820018179
17.836543999999996,8.801114050840807,0.1283605319090177
17.838932,8.823140950767131,0.12792397929448993
17.841327999999997,8.847542038492211,0.12748340197996347
17.843724,8.862724018418122,0.1271545368215948
17.846111999999998,8.875484588717036,0.12686707972741973
17.848492,8.888245159015948,0.12658096981544195
17.850887999999998,8.900493872635666,0.1262864207073276
17.853276,8.917118874800556,0.1259631626127458
17.85566,8.931462236965304,0.1256722173564933
17.858055999999998,8.948366778383912,0.1253336388816338
17.860444,8.958101534578015,0.12504977620765
17.862823999999996,8.967976060398978,0.12476185143559124
17.865223999999998,8.973566845473385,0.12452944680591324
17.867612,8.980228565734432,0.12428242221003127
17.869991999999996,8.9864709771149,0.12405311103038796
17.872391999999998,8.993225245174564,0.12383531345273371
17.87478,9.002121383607506,0.12359044750221188
17.877159999999996,9.013159392413723,0.12331941042364301
17.879559999999998,9.020053430100246,0.12309787924285909
17.881952,9.02829794222713,0.12285132012315685
17.884332,9.032026396181983,0.12263910528114107
17.886732000000002,9.030959252711083,0.1224714737600596
17.88912,9.02630721662793,0.1223289578021308
17.891503999999998,9.024076590171775,0.12214769859517363
17.893900000000002,9.018540610357087,0.12197950468811376
17.896288,9.010350903489922,0.1218284917977519
17.898671999999998,9.00216119662276,0.12167730788723335
17.901068000000002,8.989967288262765,0.12156797960652521
17.903456,8.984990386955516,0.12137691039222703
17.905839999999998,8.983086521581324,0.12115209778251435
17.908236000000002,8.983417074379027,0.12092625475209585
17.910624,8.98225738310951,0.12073110223407811
17.913007999999998,8.983751418892467,0.12051837972449476
17.915404000000002,8.986176620235202,0.12029803627715058
17.917792,8.988229734525602,0.12006240818180239
17.920175999999998,8.98348515064383,0.11989082405215312
17.922576,8.978880336388922,0.11971382522805238
17.924964000000003,8.972413191014454,0.11955186060229904
17.927343999999998,8.966365354520569,0.11937266366455321
17.929744,8.959246582840043,0.11920629649407896
17.932132000000003,8.950917106346022,0.11905822391575961
17.934511999999998,8.944170421717834,0.11890643282735032
17.936912,8.937935593768843,0.11876412138221717
17.939300000000003,8.935565197685827,0.11858670014918497
17.941684000000002,8.938362486080901,0.11838193781921129
17.94408,8.94395327115531,0.1181552832154948
17.946468000000003,8.949404286602858,0.1179346401740491
17.948847999999998,8.956066006863905,0.11769464441449304
17.951244000000003,8.95658165525884,0.11752178574730889
17.953636000000003,8.956026368467139,0.11736245014013845
17.956015999999998,8.956030160182879,0.11718032601384094
17.958412000000003,8.9540318511522,0.11701786021817559
17.9608,8.958179613987632,0.11679157681236765
17.963184,8.962606916076783,0.1165544951264126
17.965580000000003,8.969408405964693,0.11631376218857342
17.967968,8.98086572365149,0.11603721087929077
17.970348,8.987899530964874,0.11581630419960587
17.972744,8.99330332458418,0.11563020312583962
17.975136,9.000569449323041,0.11543050348475728
17.977516,9.008626969994822,0.1152293760869884
17.979912,9.018546821786158,0.11501387466529654
17.982304,9.029397839137273,0.11479189307332063
17.984684,9.03973699980919,0.1145600968207259
17.98708,9.048725686040749,0.11435332360207842
17.989468000000002,9.058133681152889,0.11413134512881906
17.991847999999997,9.066191201824669,0.11393326388052118
17.994244000000002,9.076250823242862,0.11371717873697901
17.996631999999998,9.089103941340396,0.1134817341950566
17.999015999999997,9.10568172167704,0.1132198525018912
18.001412000000002,9.11876715720005,0.11300516347108355
18.0038,9.13636865089509,0.11276442969108624
18.006183999999998,9.158114115709823,0.11248142354390815
18.008580000000002,9.168126515299777,0.11229953841726313
18.010964,9.181304498621401,0.11211478093648243
18.013348,9.190897589330772,0.11195073756798231
18.015748,9.19983905373409,0.11178287577310304
18.018136,9.21706846037679,0.11153263271488664
18.020516,9.235276254407518,0.11124437434636335
18.022912,9.25427544437116,0.11095715344034528
18.0253,9.2744853391483,0.11065400078431724
18.027684,9.297908039485357,0.1103183988090458
18.03008,9.320818883143215,0.109974451012737
18.032468,9.343450187547356,0.10964086385502521
18.034852,9.367292196764993,0.10929275489893575
18.037248,9.388200939676434,0.1089695210169253
18.039636,9.407387121095178,0.10865240167430572
18.04202,9.425502367327287,0.10834862843413497
18.044428,9.440824116880059,0.10806375196822415
18.046812000000003,9.452560973820578,0.10779779783050661
18.049196,9.468209484455315,0.10747223776802879
18.051592,9.479481706544876,0.10716763112992048
18.053984,9.485678791954966,0.1069078565970015
18.056364,9.500815445910504,0.10657383364870975
18.058764,9.509993019455035,0.1062607317453794
18.061152,9.52117269374598,0.10593052919103643
18.063536,9.534214699156488,0.10559025038804343
18.065932,9.539388071208183,0.10531272820724201
18.068324,9.545073299939077,0.10504521541999969
18.070704,9.54982736311019,0.10478447600941615
18.073104,9.556583527027723,0.10450915809893772
18.075492,9.55947525907928,0.10426190882292513
18.077872,9.562878847810037,0.1040249659108823
18.080272,9.572428508406903,0.10373709052012045
18.08266,9.576251406018239,0.10348608727777808
18.085044,9.583147339562629,0.10320974504630677
18.08744,9.596189344973133,0.10288296142881097
18.089828,9.603644357024965,0.10258666418731933
18.092212,9.614312174636714,0.10226059512404317
18.094612,9.628984193741296,0.10190440656753785
18.097,9.645099235084855,0.10155574680048605
18.099384,9.659863801988054,0.10122652487703586
18.101784,9.679983044824448,0.10084723415271554
18.104172,9.692233654302031,0.10052331066718034
18.106556,9.70806915639187,0.1001841850622836
18.108952,9.726558385534185,0.09983689725785644
18.11134,9.741322952437384,0.09951032701067526
18.113724,9.760883116766337,0.09915430072201878
18.11612,9.781514216281925,0.0987896164848929
18.118508,9.797349718371764,0.09845360379305973
18.120892,9.807178918222352,0.09816239251738193
18.123292,9.815797413259443,0.09788535329712497
18.125680000000003,9.821901950870918,0.09761308117551679
18.12806,9.821069020683364,0.0973906104973149
18.13046,9.824891918294703,0.097143543977126
18.132848000000003,9.822708513666791,0.09693988914355979
18.135228,9.815589741986267,0.09677041942462992
18.137628,9.812847258850914,0.09658630618189892
18.14002,9.807683366088563,0.09643168331800028
18.142404,9.800377602952935,0.096296407284826
18.144804,9.790138573511111,0.09618004351891679
18.147192,9.780970479255927,0.09605388055503024
18.149572,9.770591680187245,0.09594199617540795
18.151964,9.768221284104229,0.09577400825730858
18.154348,9.764779952834575,0.0956155840805047
18.156728,9.755751628206252,0.09548410382600094
18.159132,9.752450066563457,0.09532118987284771
18.161516,9.743421741935132,0.09518940135279946
18.163896,9.736395518053223,0.09504426953384433
18.1663,9.734304661223929,0.09486736183003353
18.168688000000003,9.734215905141049,0.09467628964248413
18.171064,9.737200184991227,0.09446240532779328
18.173472,9.740975860774322,0.09424855991889271
18.175856000000003,9.744471997303695,0.09404362316001358
18.178236,9.74796813383307,0.0938392939368746
18.18064,9.75919313409439,0.09359083854261832
18.183024,9.769207429542215,0.09335589878445631
18.185404,9.781922673870755,0.0930845005746719
18.187808,9.792775587079737,0.09282127248861208
18.190192,9.803488730661861,0.09256313915972483
18.192572,9.81126860793779,0.0923220960025388
18.194976,9.821702212266194,0.09207356274590334
18.197364,9.82985417659446,0.09184824690421758
18.199744000000003,9.831580529802894,0.09167745545458056
18.202136000000003,9.830233847078272,0.09152858340053786
18.204524,9.833542992152545,0.09135850610059526
18.206904,9.829635130174069,0.09124221654995283
18.209308,9.829312160807843,0.09111350353763696
18.211696,9.823634515508425,0.09103004672761746
18.214076,9.814604295022233,0.09097837836867975
18.21648,9.81144060714843,0.0908921668647353
18.218864,9.807205984087988,0.09081488767009858
18.221244,9.806556253639798,0.09072620338473276
18.22364,9.813123530244358,0.0905859471324033
18.226028,9.819830576475779,0.09044153289114285
18.228408,9.821322716400868,0.09033629104080589
18.230812,9.828541619311487,0.0902031316990081
18.2332,9.833990738901166,0.09010267471334972
18.23558,9.843444059983677,0.0899776510900299
18.237976,9.85424785550655,0.08983528951181874
18.240360000000003,9.867845147708756,0.08968106431448795
18.24274,9.880651043978045,0.08952681627850943
18.245148,9.892525774687554,0.08937580268593114
18.247536,9.909755181330258,0.0891824438566908
18.249916,9.93392205577199,0.08894913706277166
18.252312,9.954364267974611,0.08873149619801664
18.2547,9.979090220923784,0.0884797762598847
18.25708,10.008891310552427,0.08819791710881364
18.259476,10.042044975367848,0.08788630442736443
18.26186,10.079622150556682,0.08753722903523449
18.264244,10.113195124252682,0.08721601710224293
18.26664,10.145557393135185,0.08690762946474438
