Time,Force,Position
17.723736,6.710128938640278,0.15804802205057908
17.726132,6.875564639443321,0.15713341588050567
17.72852,7.021916185915583,0.15632938536712054
17.730904,7.131680319734248,0.15572593947383778
17.7333,7.181247349107153,0.15605288563531483
17.735688,7.2198746050460665,0.1564667946539556
17.738068,7.283741566471218,0.15609913518956003
17.740468,7.336534672409125,0.15548687393615185
17.742856,7.353994500619436,0.15518032071815552
17.745236,7.346873833081041,0.15512423281963467
17.747632,7.335006685803009,0.15499374153567744
17.75002,7.299535534306422,0.155135226508303
17.7524,7.252144326129951,0.15550042880198006
17.754804,7.2113638246705465,0.1558115484604452
17.757188,7.174447755077115,0.15608221626685198
17.759568,7.1287772125354705,0.1565804953893486
17.761968,7.110714875705215,0.15671476198382336
17.764352,7.109693058204691,0.15658269127351962
17.766736,7.0960995577182215,0.15669601900741692
17.769132,7.079942982120026,0.1569959359738593
17.771516,7.076728280702241,0.15717835042330364
17.773896,7.065879159208997,0.157405364038044
17.7763,7.054193315812461,0.1575619167427935
17.778688,7.053447245849918,0.15764178152627328
17.781071999999998,7.079053350814887,0.15729012747448803
17.783468,7.103962503503426,0.1568634511631765
17.785856,7.110155797197779,0.15671063286074088
17.788236,7.106059047906327,0.15674759090497517
17.790632,7.10973838417507,0.1566193049555695
17.79302,7.11518750376475,0.15642982043754006
17.7954,7.116817517458828,0.15637760174039725
17.797795999999998,7.130225922348063,0.1562058822817081
17.800184,7.151083651715524,0.15592593711805386
17.80258,7.17091577186672,0.15573668852620987
17.80498,7.203457448772851,0.15540746284128645
17.807364,7.2519233838516985,0.15476642666038942
17.809744,7.284746495869419,0.15432746167705977
17.812152,7.305696773035496,0.1540875796315066
17.81454,7.333537296172362,0.15376301431258488
17.81692,7.370085070429195,0.15325614714262395
17.819316,7.401280064610705,0.15275041747072415
17.821704,7.433313676553374,0.1522043128299509
17.824084,7.457850742189574,0.1518045226902306
17.826484,7.476381505586524,0.15150405339352557
17.828872,7.4935617945431146,0.15124228874923865
17.831252,7.516049537604654,0.15092321374074358
17.833656,7.534253539919641,0.15069006988668376
17.83604,7.555902665220019,0.1504178679280319
17.83842,7.5809024698493035,0.15018829185031832
17.840824,7.611302276382156,0.1499310137991238
17.843212,7.647523289557026,0.14952077117460127
17.845592,7.6721056811635995,0.1492189237662793
17.848,7.691612936090701,0.14900081438956872
17.850384,7.7161953276972755,0.14869801673462832
17.852764,7.738310983706477,0.1483852752187233
17.855164,7.7491601051997225,0.14819180599479473
17.857552,7.7652241329993,0.14791444863243416
17.859932,7.787154693411269,0.14755073244578368
17.862328,7.813461542368409,0.1471427001172964
17.864716,7.841770492071965,0.14671322396672093
17.8671,7.870498750656102,0.1462666293746977
17.869496,7.896014203680324,0.14587635445993774
17.871884,7.9269296586081115,0.14545711655182067
17.874268,7.971021200999656,0.1448745598318032
17.876664,8.020095332272057,0.14419778765512223
17.879052,8.059765260148056,0.14361026819817074
17.881436,8.097852396158219,0.14303145078400512
17.883831999999998,8.138733028847717,0.14242267721187113
17.886216,8.178497400380204,0.14177093809384875
17.8886,8.217704589263118,0.14105976118147856
17.890996,8.249741992921525,0.14043037512249154
17.893388,8.283734275498107,0.1398062155413953
17.895768,8.322894242552778,0.13913968605963437
17.898164,8.363125144794088,0.138462151333234
17.900552,8.404566751848895,0.13777209618594694
17.902936,8.444937423717064,0.13709861476764007
17.905336,8.481675981144738,0.13650010171769425
17.907723999999998,8.521160813423503,0.1359112439632304
17.910104,8.56292728570241,0.13529263498681018
17.9125,8.601667943876496,0.13469206878864537
17.914888,8.640268832423727,0.13410240571597296
17.917268,8.679241808023297,0.13352557926662767
17.919672,8.719984566943802,0.1329048860161536
17.92206,8.752905914333747,0.1323529992185029
17.92444,8.778657476499184,0.1318688582350642
17.926836,8.808925096836655,0.13134709121325455
17.929224,8.842218531278935,0.130820514772998
17.931604,8.874021721653996,0.13032933667593505
17.934008,8.907407703894895,0.12983761722309733
17.936396,8.934228305389102,0.12944322430888944
17.938776,8.959930749868425,0.1290956201702572
17.941176,8.990940648452698,0.12871092419617675
17.94356,9.019436589611358,0.12834210309920613
17.945944,9.044347638157765,0.12800278212674254
17.948339999999998,9.065534024465059,0.12770036878129473
17.950728,9.09174832562358,0.12737317712318272
17.953108,9.118102396408963,0.12704087772746048
17.955504,9.139847861223698,0.12671896144281192
17.957892,9.154283771187064,0.1264580376290894
17.960272,9.164435940403878,0.12625308449052328
17.962672,9.176170901486529,0.12604506270908933
17.965056,9.188976797755819,0.12582292210081453
17.967436,9.196987096599356,0.1256465201091942
17.96984,9.19978248913656,0.1255322460583454
17.972228,9.201459724658882,0.12546355357094877
17.974608,9.201646716113986,0.12542598540215533
17.977004,9.201182081263028,0.12538515943408204
17.979392,9.199553963426817,0.12533189742960965
17.981772,9.195272118538133,0.12529676430336592
17.984172,9.191641899955508,0.12526503421504645
17.98656,9.193226587679213,0.12517127526142852
17.98894,9.18992313017855,0.1250967753480555
17.991344,9.187970147118245,0.12499772817906038
17.993732,9.188019264804357,0.12487762939344252
17.996112,9.186857677676972,0.12477639270294143
17.998508,9.181319802004413,0.1247026168116159
18.000896,9.174431451891497,0.12465318654549683
18.003276,9.169637750323613,0.12460855008124788
18.005676,9.167358006181345,0.12455194611964113
18.00806,9.165869657971996,0.12449309636127624
18.010444,9.157863150844198,0.12448838421259337
18.01284,9.152138283716537,0.12445123190248239
18.015228,9.151348783641488,0.12436439381707894
18.017608,9.160849326552244,0.1241620234293605
18.020004,9.1722594224108,0.12391263058998565
18.022392,9.182506035284097,0.12365088288323717
18.024772,9.189307525172003,0.12340820992749973
18.027172,9.197831576552609,0.12315630584146504
18.029556,9.204213757559934,0.12293051818351328
18.031952,9.213157117821119,0.12266182279540223
18.034352,9.215722088790718,0.12244113908490725
18.03674,9.217727981252873,0.12224248561986065
18.03912,9.216381298528253,0.12208868444395898
18.04152,9.215453924684212,0.12191861323956589
18.043908,9.213735154907257,0.12175001063213897
18.046288,9.213087320316937,0.12156830468607732
18.048688,9.212998564234056,0.12136397225271242
18.051076,9.210675389979283,0.12115958142895945
18.05346,9.209051063858812,0.1209274072527882
18.055856,9.210919082551976,0.12064562044462515
18.058244,9.216791302737974,0.12032198362201417
18.060628,9.222943062177691,0.11998944308203428
18.063024,9.227232490497853,0.11967268011494998
18.065412,9.220440479899292,0.11946842430378707
18.067796,9.214300095606792,0.11926809640610152
18.070196,9.20666946724707,0.11909648615746041
18.072584,9.202763501126459,0.1188958760754602
18.074964,9.19899730463271,0.1186901557902693
18.07736,9.198164374445158,0.11845750068014935
18.079748,9.194258408324549,0.11825699001763353
18.082132,9.193006169256416,0.11804025225252429
18.084528,9.193383943882361,0.11778887922218868
18.08692,9.197114293695082,0.1174942601891514
18.0893,9.196281363507529,0.11726050071258998
18.091696,9.19810216037245,0.11701096441599913
18.094084,9.19871225242387,0.1167794051118604
18.096464,9.199462114102158,0.11654213139923655
18.098864,9.207009673952607,0.11624649453032038
18.101252,9.213998155295615,0.11597325681824978
18.103632,9.215631960705432,0.1157617525483966
18.106028,9.216055061301752,0.11556796677831538
18.108416,9.213125586711296,0.11541674886460423
18.1108,9.211127277680617,0.11525895048105136
18.113196,9.218999702755163,0.11501168021472345
18.115584,9.22608073189679,0.1147664163513665
18.117964,9.236514336225195,0.1144793947700869
18.12036,9.243083508687626,0.1142243495820139
18.122748,9.24765058040364,0.11398841645039337
18.125132,9.245419953947481,0.11380908560137351
18.127528,9.24612259379752,0.11360415676550378
18.129916,9.24803593846106,0.11338215863415205
18.1323,9.24831926943052,0.113193899195859
18.134696,9.244458629280283,0.11304813516602459
18.137084,9.247023600249879,0.11283031932811317
18.139468,9.24707461379386,0.11262131936536048
18.141864,9.249267497711118,0.11238851983606657
18.144252,9.254765734986913,0.11214670321962522
18.146636,9.253326504463674,0.11196713289618974
18.149032,9.251235647634378,0.11178312222510868
18.15142,9.254219927484556,0.11155096369959569
18.1538,9.258554681775092,0.11129634483493392
18.156196,9.26223780975957,0.11103674177384455
18.158584,9.262056505878071,0.11080774109736344
18.16098,9.254006568637767,0.11064573812902267
18.163376,9.245956631397462,0.11048360154825182
18.165764,9.23669598934366,0.11033838924935999
18.168144,9.23195140546189,0.11016714004883665
18.170548,9.229208922326535,0.10997811748793224
18.172936,9.237268338856182,0.1096993843133754
18.175316,9.24518798575897,0.10942708213520046
18.177712,9.250825992661621,0.10918339088960068
18.180096,9.259816574751047,0.10890080364914205
18.18248,9.274533919826006,0.10857680603175343
18.184884,9.282313797101933,0.10831143114190478
18.187272,9.293818336616974,0.10802258179464898
18.189652,9.304391710572236,0.10774068994126093
18.192048,9.311380191915246,0.10747815704152373
18.194436,9.320091234750953,0.10720869274697721
18.196816,9.330245299825634,0.10694347939658817
18.19922,9.33639516340748,0.1067126062750927
18.201608,9.345198754041805,0.10647087240079411
18.203988,9.358378633221298,0.10621141590553976
18.206384,9.375003635386186,0.10593887022119217
18.208772,9.399357501283022,0.10561043286359223
18.211152,9.423571597552996,0.10528812028365515
18.213552,9.450858729756026,0.10494095359783487
18.21594,9.475631904533444,0.10460162480933492
18.21832,9.496400877818028,0.10429488736111973
18.220724,9.51037215293044,0.10403944959152536
18.223112,9.52527459360263,0.1037799725088703
18.225492,9.545252170954289,0.10347968628513331
18.227888,9.56187717311918,0.10321691787055763
18.230276,9.573566808231455,0.10299172987156019
18.232656,9.591495063008455,0.10273904162094438
18.235052,9.606210512225545,0.10251831123175736
18.23744,9.62022711330833,0.10232301454871356
18.23982,9.634895340697174,0.10213246059317317
18.242216,9.6504947336458,0.10193707500979791
18.244604,9.667584370661638,0.10171755195191785
18.246988,9.686256799543319,0.10149695661409386
18.24938,9.700645487678443,0.10131836450782421
18.251768,9.710238578387814,0.10117127703824635
18.254152,9.719040273164271,0.10102464506152643
18.256548,9.726771032754083,0.1008897367186446
18.258936,9.733291087530404,0.1007698333897868
18.261332,9.736318797493082,0.10069047906607737
18.263728,9.742651860814293,0.10060609514704734
18.26612,9.75378052156126,0.1004916858043057
18.2685,9.768633844547336,0.10035756176708284
18.2709,9.780553901227222,0.10024377509536228
18.273288,9.784325785294579,0.10019447267310672
18.275668,9.792241640481627,0.10011097964779878
18.278064,9.805372401975015,0.09998377032995757
18.280452,9.815058040483006,0.09986679184563393
18.282832,9.829958585297325,0.09970702243194099
18.285228,9.847560078992366,0.09950922238797727
18.287616,9.866791586381485,0.09928332283034907
18.29,9.884300532277909,0.09906245225650541
18.292396,9.900598773360832,0.09885744383792569
18.294784,9.918806567391558,0.09861501435436551
18.297164,9.939575540676138,0.09833970975327688
18.299564,9.962765923587716,0.0980357828611799
18.301952,9.987167011312797,0.09771867462800903
18.304336,10.006912271238983,0.09742551491433948
18.306732,10.027076840045748,0.09711768335273527
18.30912,10.046869321800177,0.09679518555719531
18.311504,10.062285515009437,0.09648659191618295
18.3139,10.07691031228578,0.09617939875235287
18.316288,10.089672778442564,0.09588228702144977
18.318668,10.102994323106788,0.09556615470981247
18.321068,10.118597507771149,0.09522469059998866
18.323452,10.127402994263342,0.09492426944515187
18.325836,10.133694523329922,0.09462937956743234
18.328232,10.143059088329554,0.09431265176682922
18.330616,10.143623854410604,0.09404936254140783
18.333012,10.1406037278794,0.09379892247373287
18.335408,10.138374997281112,0.09354977626812179
18.337796,10.140430007429382,0.09326587563044497
18.340176,10.139971060152035,0.09298514629722934
18.342576,10.139092803994107,0.09271918511925742
18.34496,10.13742315190326,0.09245317889218163
18.347344,10.137615830931974,0.09217988463999534
18.34974,10.139019214774184,0.09189454134058074
18.352128,10.140562368243254,0.09160376715684979
18.354508,10.14503878801852,0.09129729862637813
18.356904,10.149654977420644,0.09098608875532141
18.359292,10.158694677196182,0.09063720936511575
18.361672,10.165872045852165,0.09029649299415389
18.364068,10.17346872338873,0.08994265825580557
18.366456,10.178504221671435,0.08961824883171479
18.368852,10.188475087006754,0.08926667154233905
18.371248,10.203800628275268,0.08887312973793401
18.373636,10.220429422155892,0.08849216693814642
18.376016,10.233985180103462,0.08813241229545621
18.378412,10.255689110663562,0.08772083686102483
18.3808,10.277904897902857,0.08731895305746078
18.383184,10.296396022903041,0.0869326905270335
18.38558,10.30580780973092,0.08660100801988793
18.387968,10.314800287678215,0.08628204982549889
18.390352,10.320999268946178,0.08597394247509198
18.392748,10.325847775773779,0.08568315862321355
18.395136,10.327763016295185,0.08540807659031728
18.397516,10.32474288976398,0.08515942647753331
18.399912,10.321722763232778,0.08491003310800829
18.4023,10.313767269648961,0.08468675471768099
18.40468,10.30846550311762,0.08445795347022779
18.40708,10.297389751772505,0.08428193633022718
18.409468,10.28631400042739,0.08410552187567365
18.411848,10.274027544268776,0.08394112082058273
18.414244,10.267235533670215,0.08373288281846136
18.416632,10.255647925645903,0.0835456243704214
18.419012,10.24257007355437,0.08337942248499171
18.42142,10.225907328850585,0.0832213842622368
18.423804,10.20845318821388,0.08306153339204338
18.426184,10.185644371643987,0.08293950812716686
18.428584,10.166839756566926,0.08279569173280589
18.430972,10.148407228542201,0.08266611265469703
18.433352,10.137563794622562,0.08250659128857891
18.435748,10.127651526262703,0.08234354320057556
18.438136,10.119461819395541,0.08217838099693199
18.440532,10.111132342901517,0.08201741556722483
18.442928,10.102663096780633,0.08186062490892004
18.44532,10.094845476965807,0.0817090745364276
18.4477,10.092614850509651,0.08153915288786082
18.4501,10.095319591106108,0.08134485060824899
18.452488,10.093228734276813,0.08117029051151722
18.454868,10.09570115744779,0.08095635405387346
18.457268,10.100967077298105,0.0807338311861323
18.459656,10.106744853827616,0.08052169381681286
18.462036,10.11089261666305,0.08033582697860402
18.464436,10.118904811364455,0.08013411719983198
18.466824,10.125054674946304,0.07993807816400261
18.469208,10.130924999274432,0.07975040229788527
18.471612,10.138657654722117,0.07955684984252466
18.473996,10.1476010149833,0.0793510782769453
18.476376,10.149467137818595,0.07918350080569818
18.478772,10.1496106991612,0.07901662681384723
18.48116,10.148962864570878,0.07884872381632364
18.483544,10.151527835540476,0.07865916829208039
18.48594,10.156094907256488,0.07846010043875792
18.488324,10.160801748599361,0.0782563289848658
18.490708,10.163506489195816,0.07806198993362463
18.493104,10.169144496098468,0.07785470516737313
18.495492,10.171989006321786,0.07765701646995313
18.497872,10.16868744467899,0.07749332441002228
18.500268,10.168319149342391,0.07731659949702407
18.502656,10.164598278819016,0.07716577413998964
18.505036,10.160737638668781,0.0770199092345861
18.507432,10.159438177772405,0.07684698680003682
18.50982,10.15427428501005,0.07668875601992273
18.5122,10.142824550754728,0.07656819403772969
18.514596,10.135099478738521,0.076437021583799
18.516984,10.129236737841866,0.07630037583771636
18.519368,10.12709865918433,0.07615382718897772
18.521764,10.125612206832852,0.0760134269848053
18.524152,10.13013205672062,0.07584424103132725
18.526532,10.138656108101225,0.07565586083319002
18.52894,10.14624899392205,0.07547057473695695
18.531324,10.152770944556238,0.07529311133039794
18.533708,10.154217758510953,0.07514110154832371
18.536104,10.157526903585223,0.0749842962285408
18.538492,10.16777351645852,0.07479774604238575
18.540876,10.181093165264876,0.07459676049927601
18.543272,10.192131174071097,0.07441375199612603
18.54566,10.21103781623612,0.07419911413981013
18.54804,10.231667019893843,0.07398514193217895
18.550436,10.2563004250444,0.07375374877242796
18.552824,10.276278002396063,0.07353414416624213
18.55522,10.29290300456095,0.07333945813601071
18.557616,10.312601042658892,0.07312888785957433
18.560004,10.342589123742641,0.0728667709679059
18.562388,10.372577204826388,0.07260648943779867
18.56478,10.404707156283415,0.07233451266345566
18.567168,10.429899639941413,0.07209137225594896
18.569548,10.456302828412907,0.07183839554573425
18.571944,10.482566247257541,0.07159145836629037
18.574332,10.509621062035094,0.07134813910246038
18.576716,10.537327503118707,0.07111197061133225
18.579112,10.561821138642403,0.07089474138551648
18.5815,10.591250141218708,0.07065883559256436
18.58388,10.620679143795016,0.07042405442530407
18.586276,10.646755571184546,0.07021382812135393
18.588668,10.666685926707965,0.07003303836861147
18.591048,10.687826987044886,0.06984198629709311
18.593444,10.706965946635389,0.06966068262061449
18.595836,10.723031870292836,0.06949374966407344
18.598216,10.739609650629484,0.06933831924505533
18.60062,10.757770222831965,0.0691868188449254
18.603008,10.778724291713779,0.0690300066559504
18.605388,10.804613727648208,0.0688572659184439
18.607788,10.824217322089666,0.06871754992907114
18.610176,10.839956484665148,0.06858930259445799
18.612556,10.854764481680855,0.06846366718659869
18.614952,10.874647615376034,0.06831729402728505
18.617344,10.895322145004128,0.06817413636846331
18.619724,10.91334294757975,0.06803270914402153
18.62212,10.934436786088424,0.06787989521021724
18.624512,10.955018767917903,0.06771747892516561
18.626892,10.978673785680435,0.067542249784456
18.629288,11.001816946763771,0.06735808709539176
18.631676,11.026031043033743,0.0671695077310101
18.63406,11.049733282624523,0.06697124774187228
18.636456,11.073575291842161,0.066768358621918
18.63884,11.09662590512688,0.06656344203570991
18.641224,11.116091625799346,0.06636129756041872
18.64362,11.13797875609881,0.06614077923989792
18.646008,11.155769137106823,0.06591277839697977
18.648388,11.17705186292847,0.0656614342515491
18.650784,11.196239940205084,0.06539597359866907
18.653172,11.207838923376613,0.06514706195557685
18.655568,11.217994884309165,0.06488924481265956
18.657968,11.229501319682079,0.06461799816851843
18.660356,11.241287294308709,0.06434007397968924
18.662736,11.24762604520353,0.06406645597872637
18.665132,11.2515906082996,0.06378586071189371
18.66752,11.255834710649388,0.06349744973568686
18.669904,11.252769258147808,0.06321629967202025
18.6723,11.247981244153536,0.06293354744595825
18.674688,11.242029747174007,0.06263419893432143
18.677072,11.237288955007974,0.06232698187714802
18.679468,11.231105140602967,0.06201132238682013
18.681856,11.2254804047054,0.06168067879496836
18.684236,11.225629653621604,0.06131495910116343
18.686636,11.230202412911227,0.060927409667887615
18.689024,11.23919868257426,0.060517798173542386
18.691404,11.247403556304377,0.06010647602803428
18.693804,11.260031940407906,0.05967379756346682
18.696192,11.27186892857852,0.05924042015751439
18.698572,11.28556824786869,0.05880643232177605
18.700972,11.301409437532136,0.05836268717433773
18.70336,11.318181792755363,0.057917852798334495
18.705744,11.337096018351865,0.05746513841287287
18.70814,11.351866272828675,0.057026634155147256
18.710532,11.370361189544598,0.05658449279781839
18.712912,11.38750563182016,0.056153881614297
18.715312,11.404230765215141,0.05573442764429014
