Time,Force,Position
18.59392,0.04925369780851472,0.0
18.596308,0.044597870009623106,0.0
18.598688,0.036847717200144445,0.0
18.601084,0.030168499577304317,0.0
18.603472,0.024420447514242508,0.0
18.605856,0.02083555490198944,0.0
18.608252,0.016949833958484272,0.0
18.61064,0.012924343388118898,0.0
18.61302,0.009969788004392051,0.0
18.615424,0.009737470578914784,0.0
18.617812,0.010317838163887299,0.0
18.620192,0.00980598148468961,0.0
18.622596,0.009805981484689608,0.0
18.624984,0.009805981484689608,0.0
18.627364,0.00980598148468961,0.0
18.629768,0.00980598148468961,0.0
18.632152,0.006711656474102554,0.0
18.634532,0.004688266650154029,0.0
18.636928,0.0035960423859838237,0.0
18.639316,0.003434983681591939,0.0
18.6417,0.0031341553503398444,0.0
18.644096,0.0019021614593094293,0.0
18.64648,0.0019021614593094293,0.0
18.64886,0.0019021614593094293,0.0
18.651268,0.0019021614593094293,0.0
18.653652,0.0016013331280573348,0.0
18.656036,0.0016013331280573348,0.0
18.658432,0.0016013331280573348,0.0
18.66082,0.0016013331280573348,0.0
18.6632,0.00102096554308482,0.0
18.665596,0.00044059795811230486,0.0
18.66798,0.0,0.0
18.67036,0.0,0.0
18.672756,0.0,0.0
18.675144,0.0,0.0
18.67754,0.0,0.0
18.679936,0.0,0.0
18.682328,0.0,0.0
18.684708,0.0,0.0
18.687104,0.0,0.0
18.689492,0.0,0.0
18.691872,0.0,0.0
18.69428,0.0,0.0
18.696664,0.0,0.0
18.699048,0.0,0.0
18.701444,0.0,0.0
18.703832,0.0,0.0
18.706212,0.0,0.0
18.708608,0.0,0.0
18.710996,0.0,0.0
18.713376,0.0,0.0
18.715776,0.0,0.0
18.718164,0.0,0.0
18.720544,0.0,0.0
18.72294,0.0,0.0
18.725324,0.0,0.0
18.727708,0.0,0.0
18.730104,0.0,0.0
18.732488,0.0,0.0
18.734884,0.0,0.0
18.737292,0.0,0.0
18.739676,0.0,0.0
18.74206,0.0,0.0
18.744464,0.0,0.0
18.746852,0.0,0.0
18.749232,0.0005803675849725149,0.0
18.751628,0.0005803675849725149,0.0
18.754016,0.0010209655430848197,0.0
18.756396,0.0010209655430848197,0.0
18.758796,0.0010209655430848197,0.0
18.761184,0.0010209655430848197,0.0
18.763564,0.0010209655430848197,0.0
18.76596,0.0010209655430848197,0.0
18.768348,0.0010209655430848197,0.0
18.770728,0.0010209655430848197,0.0
18.773124,0.0010209655430848197,0.0
18.775512,0.0010209655430848197,0.0
18.777892,0.0013217938743369144,0.0
18.7803,0.0013217938743369142,0.0
18.782684,0.0013217938743369142,0.0
18.785068000000003,0.0013217938743369144,0.0
18.787464,0.0013217938743369144,0.0
18.789852,0.0013217938743369144,0.0
18.792232,0.0013217938743369144,0.0
18.794628,0.0013217938743369144,0.0
18.797016,0.0007414262893643995,0.0
18.799396,0.0007414262893643995,0.0
18.801796,0.0003008283312520946,0.0
18.80418,0.0003008283312520946,0.0
18.80656,0.0003008283312520946,0.0
18.808956,0.004326318901617471,0.0
18.811344,0.008491579098843056,0.0
18.813724,0.014798709669345702,0.0
18.816124,0.02217677542648688,0.0
18.818508,0.029554841183628056,0.0
18.820892,0.037724302873687346,0.0
18.823288,0.04496259900396832,0.0
18.825672,0.051248440496939295,0.0
18.828068,0.06169954218713585,0.0
18.830468,0.07215064387733242,0.0
18.832856,0.07938894000761337,0.0
18.835236,0.08755840169767266,0.0
18.837632,0.09987183450742587,0.0
18.84002,0.10897246175726348,0.0
18.8424,0.11793331938024088,0.0
18.8448,0.12610278107030015,0.0
18.847184,0.1321303723870824,0.0
18.849568,0.13936866851736335,0.0
18.851972,0.1415318279681721,0.0
18.85436,0.1426240522323423,0.0
18.85674,0.13859856166197693,0.0
18.859136,0.13443330146475135,0.0
18.861524,0.12812617089424871,0.0
18.863908,0.1207481051371075,0.0
18.866304,0.11337003937996633,0.0
18.868692,0.10520057768990704,0.0
18.871072,0.09796228155962608,0.0
18.873472,0.09137561173540301,0.0
18.87586,0.08092451004520645,0.0
18.87824,0.0704734083550099,0.0
18.880636000000003,0.06323511222472893,0.0
18.883024,0.05506565053466963,0.0
18.885408,0.04275221772491644,0.0
18.887804,0.034464275485528606,0.0
18.890192,0.02738703805963953,0.0
18.892572,0.022963527686225192,0.0
18.894972,0.01854001731281086,0.0
18.89736,0.011974636566119464,0.0
18.89974,0.012486493245317153,0.0
18.902136,0.01206718436473652,0.0
18.904524,0.01488197012160316,0.0
18.906908,0.017556986251609584,0.0
18.909304,0.02209433350117265,0.0
18.911692,0.024489810377458652,0.0
18.914076,0.027816452813522977,0.0
18.916472,0.030211929689808983,0.0
18.91886,0.03353857212587331,0.0
18.921256,0.03886731530835448,0.0
18.923652,0.039912317744281535,0.0
18.92604,0.03991231774428154,0.0
18.92842,0.044030356113263974,0.0
18.93082,0.045215128176051236,0.0
18.933208,0.045215128176051236,0.0
18.935588,0.04440244316560146,0.0
18.937984,0.04251882296851314,0.0
18.940372,0.038772871651868185,0.0
18.942752,0.03716879070850029,0.0
18.945148,0.03649587532491072,0.0
18.947536,0.034399330922007566,0.0
18.94992,0.04030929364690257,0.0
18.952316,0.04463267279022288,0.0
18.954704,0.07283580369007747,0.0
18.957084,0.12626726492895604,0.009001619256671438
18.959484,0.20786032281305372,0.017587906614434917
18.961872,0.31612662913302064,0.025540887331110707
18.964252,0.44510710347784943,0.033357476137940496
18.966652,0.5860944947275717,0.04145306766162775
18.969036,0.7419276255318961,0.04979006117687941
18.97142,0.9335586689147696,0.057802757926806975
18.973816,1.1579358780206683,0.06550497214555255
18.976204,1.3997006127153648,0.07312564111560588
18.978588,1.6604569539422265,0.08077726360331412
18.980984,1.935987776002605,0.08858517622426877
18.983372,2.237725315790029,0.09632287605616807
18.985768,2.5620846806922453,0.10405364654888351
18.988164,2.906878674365603,0.1117469749368294
18.990552,3.2697331090113484,0.11942458255399119
18.992936,3.6475277268681836,0.1271801374740797
18.995332,4.042198013634618,0.13498351732583524
18.99772,4.45358016279095,0.14270828243184963
19.000104,4.889965908292307,0.1502044264199122
19.0025,5.297723526439622,0.15773408528735694
19.004888,5.66824210562728,0.1563168830716442
19.007272,6.005478625519872,0.15536561298853052
19.009672,6.317717236641049,0.1550540220211497
19.01206,6.6152007601483716,0.15483641385841257
19.014444,6.904868559698738,0.15423131956830577
19.01684,7.177690414805955,0.15329060949959808
19.019224,7.410013203565356,0.1527365815015193
19.021604,7.60355759161177,0.15259829673410127
19.023996,7.773919180178081,0.1526212963235144
19.026384,7.932319177809873,0.1525816670141214
19.028776,8.081832516298071,0.1522943956703138
19.031172,8.195175855155382,0.15219044774961019
19.033556,8.281334088897625,0.1521815015254275
19.035936,8.351107221331935,0.15221222601430034
19.038332,8.411292950630479,0.15218098563587362
19.04072,8.459379215225512,0.1520031962592024
19.043100000000003,8.488103682093913,0.1517382178699045
19.045496,8.486942094966528,0.15163047031537552
19.04788,8.4570088191425,0.1518067106242299
19.05026,8.43620020746115,0.15191063250184186
19.052656,8.424376490295622,0.151949889059313
19.05504,8.41269254275695,0.15198451126247486
19.05742,8.385086232903435,0.1522002389261558
19.059816,8.353056412676503,0.15249641577917317
19.0622,8.3215365532709,0.15289016562719218
19.06458,8.294902943231795,0.15333738316136428
19.066992,8.275671435842675,0.15373338251879778
19.06938,8.260723669200111,0.15406194756500557
19.07176,8.24968755625176,0.15430065187443465
19.074172,8.23930306960947,0.15453742228724907
19.07656,8.228591821885216,0.1548178386738659
19.078936,8.232966214572517,0.15487043627135966
19.081332,8.242510187595776,0.15477380624919135
19.08372,8.244419740543576,0.15471503358711858
19.086096,8.236226241960672,0.15477927670066846
19.088496,8.229288774161644,0.15487968584359904
19.09088,8.228402934572237,0.15495324975810848
19.09326,8.234734102035583,0.1549138034003188
19.095656,8.241205039125786,0.15486661334976626
19.09804,8.244043861775497,0.15489444468115432
19.10042,8.256519205247084,0.1548568383731072
19.102836,8.280493400660104,0.15473032306250792
19.10522,8.323277898723795,0.15432400246202635
19.107604,8.364666596376752,0.15388410266651792
19.109996,8.40456694582036,0.15339387714445368
19.112384,8.43850821485296,0.15296115363951743
19.114764,8.475382750191756,0.1524881170963399
19.117176,8.515098004038128,0.15194440381243274
19.119564,8.550623960794432,0.15140494649320912
19.12196,8.579678980460534,0.150913845111135
19.124352,8.607011438633938,0.1504452777094839
19.12674,8.630152703859403,0.1500810370422467
19.12912,8.653758603935824,0.14976145904289365
19.131524,8.684162202184414,0.14935279157993375
19.133908,8.713122778194029,0.14894164658694958
19.136288,8.742921971964803,0.14849992108325236
19.138692,8.768437424989026,0.14813046847306152
19.14108,8.795256130625363,0.14776724276259953
19.14346,8.826917655515695,0.14731037669728622
19.145856,8.858673624062513,0.14678733603435642
19.14824,8.88237586365329,0.1463217104785724
19.15062,8.904914620258813,0.14585231479912866
19.153016,8.920795448319026,0.1454647399330411
19.155404,8.935512793393983,0.14506576404803587
19.1578,8.941849648430935,0.14475834093695933
19.160196,8.949536977908245,0.14442213819285488
19.162584000000003,8.958015703318475,0.1440838163934534
19.164964,8.965516041340681,0.1437879531374277
19.16736,8.976321732721424,0.14347045427758862
19.169744,8.989129524848583,0.14312629849110212
19.172124,8.999702898803845,0.1427894768582092
19.17452,9.00934510719933,0.14246303664597676
19.176904,9.019406624475396,0.14211996993404755
19.1793,9.021879047646376,0.14186126381524386
19.181696,9.031475930071487,0.14147803206760462
19.184084,9.031109530592758,0.1411902480194679
19.186464,9.029579648128772,0.1408913790184955
19.188856,9.02590789529151,0.1406241582528977
19.191244,9.021677063946807,0.14038151230430243
19.19364,9.018517167788742,0.14012369087382084
19.196036,9.012563774951342,0.13989389261047216
19.19842,9.006610382113942,0.13966511677357948
19.2008,9.005684904127772,0.13940449040656783
19.203196,9.009787340992832,0.13911224483453868
19.205584,9.017334900843283,0.13879277600937273
19.207964,9.023951295133955,0.13848260753465164
19.210356,9.027634423118432,0.13820680786229508
19.21274,9.037463622969023,0.137854094366789
19.215124,9.044499326140274,0.13752904888397577
19.217536000000003,9.053444582259328,0.13715555076192026
19.219924,9.058804945766129,0.13681136937815655
19.222304,9.066726488526786,0.1364213056903069
19.2247,9.071015916846948,0.1360929621230696
19.227084,9.08210304333928,0.13568922802255742
19.22948,9.085693623525138,0.13538985516817137
19.231876,9.095802362629449,0.13502650651237358
19.234264,9.106795045465294,0.1346853981492926
19.23664,9.121372620913391,0.13431532335498422
19.239044,9.137021131548128,0.1339328641543065
19.241432,9.146244031063032,0.1336376306499893
19.243812,9.155978787257135,0.13334938138505809
19.246208,9.161429802704681,0.13312119334064076
19.248592,9.163435695166838,0.13291803542350675
19.250972,9.161065299083822,0.13274749832930788
19.253376,9.158322815948468,0.1325620971502492
19.255764,9.154649167253336,0.13238502679990904
19.25814,9.150835748931344,0.13221350228552206
19.260548,9.138734388369963,0.13214721042237557
19.262932,9.130357690047697,0.13204566431655004
19.265312,9.117650029150633,0.13203368560332826
19.267708,9.109830513477938,0.1319985721914741
19.270096,9.100892840790362,0.13200943971419674
19.272476,9.098241009595757,0.13193985203187433
19.27488,9.094378473587655,0.13189029625601287
19.277264,9.095171765378444,0.1317981565218992
19.279644,9.09484690015435,0.13175205390106962
19.282048,9.099085314930528,0.13163834884209058
19.284436,9.101089311534816,0.13152752520128433
19.286816,9.098437480340207,0.13145818764802555
19.28922,9.104725217691048,0.13129159991737613
19.291608,9.113946221348082,0.13109430377734885
19.293988,9.127311196124813,0.1308476596733172
19.296384,9.142258962767379,0.13059711514683606
19.298772,9.161862557208835,0.13030734296593557
19.301152,9.183560800195327,0.13002168826565638
19.303548,9.209495562100132,0.12971305600123553
19.305932,9.239294755870905,0.12936784734997106
19.308312,9.272865833709037,0.12895789510081893
19.310716,9.302432710054333,0.1285925068194998
19.313104,9.334281226399769,0.12819253809758294
19.315484,9.36347601569273,0.12781167098521973
19.317888,9.392578257187072,0.12740715029517624
19.320276,9.418095606069164,0.12703304869516024
19.322656,9.443752724578115,0.1266556129422508
19.325056,9.469270073460207,0.12628549210843182
19.32744,9.49455510491682,0.12589556463828785
19.32982,9.514904769320822,0.1255579368250236
19.332224,9.535906060030882,0.12522507394485302
19.334612,9.558350372979918,0.12489175409619818
19.336992,9.576371175555536,0.12461890788860222
19.339388,9.596533848504434,0.1243223004670868
19.341776,9.613903024773997,0.1240501315949909
19.344156,9.627547538804448,0.12380812479121653
19.34656,9.635837376901705,0.12363090724896014
19.348948,9.645337919812459,0.12343643358489854
19.351328,9.653023353431902,0.12322767642208124
19.353732,9.656192728879315,0.1230504084413735
19.35612,9.66094489619256,0.12287009997631555
19.3585,9.668490560185143,0.12266810912392548
19.360896,9.67924902973764,0.12243000605558499
19.363284,9.693360074476914,0.12215023791009354
19.365664,9.706539953656408,0.12187857722107101
19.368068,9.719160754328463,0.12162835162059135
19.370452,9.731641785373657,0.12138453001300503
19.372832,9.744122816418853,0.12114155179017849
19.375236,9.757814552277544,0.12088200882878138
19.377624,9.773508388882654,0.12060386424166784
19.380004,9.787060355114486,0.12035006401207625
19.382408,9.804756292466012,0.120054470954854
19.384792,9.82194037313834,0.11974987751340675
19.387172,9.835120252317834,0.11948404035964354
19.389576,9.849510836310829,0.11920216054264877
19.39196,9.862830485117186,0.11893052369045472
19.394344,9.878431773923678,0.11862912931463683
19.39674,9.892170731610616,0.11834252122502187
19.399128,9.90493130190953,0.11809262684676472
19.401508,9.922487469634198,0.11780502173791373
19.403904,9.936830831798948,0.11755357563892126
19.406292,9.95038279803078,0.1173042797028605
19.408672,9.960721958702697,0.11709144826811274
19.411068,9.968779479374478,0.11690781518773466
19.413456,9.97469512967298,0.1167471746210127
19.41584,9.982101024038702,0.11656015224378057
19.418236,9.986573652098228,0.11639754508917848
19.420624,9.990394653851697,0.11623158021013003
19.423004,9.993424259672247,0.11606740636984367
19.4254,9.995662469559878,0.11590488183202069
19.427788,10.002324189820927,0.11569262913398755
19.430184,10.004190312656222,0.11551712984085931
19.432588,10.006056435491516,0.11534141636522026
19.434972,10.011135363886726,0.11513243556165521
19.437356,10.012861717095163,0.11496203039993644
19.43976,10.02101368142343,0.11472490343022185
19.442144,10.028374249818778,0.11448902175692492
19.444524,10.032941321534791,0.11427108554750805
19.44692,10.038998637318024,0.11402736628255553
19.449304,10.044404326795197,0.11378157748415607
19.451684,10.051300260339591,0.11350991516171835
19.454088,10.059546668324343,0.11321823825192995
19.456476,10.067141450003039,0.11292264128294487
19.458856,10.075295310189173,0.11260776838055747
19.461248,10.085591040748586,0.11227080435477033
19.463636,10.092813735374943,0.11196166126232163
19.466016,10.103249235561215,0.11162008501430182
19.46842,10.113824505374346,0.11127426855900126
19.470808,10.122909531120259,0.11095402837471502
19.473188,10.134136427239449,0.11061380847157393
19.475584,10.138286085932751,0.11033375540944942
19.477968,10.14457761499933,0.11003218621040117
19.480348,10.153942179998964,0.10970445499555598
19.482744,10.159582082759485,0.10940010704251227
19.485132,10.165781064027449,0.10907520178915318
19.487528,10.169698405295273,0.10877807669562566
19.489932,10.17855111361571,0.10844500849297203
19.492316,10.194481059362035,0.10805535366313218
19.494696,10.208688443615662,0.10767267196923302
19.497092,10.218612087122738,0.10733157083612732
19.499476,10.227325025816313,0.10700565807692418
19.501856,10.232685389323114,0.10671520645275423
19.504252,10.236974817643276,0.1064343754659149
19.50664,10.244057742642774,0.10613909612272256
19.509024,10.253282538015547,0.1058250291221737
19.511424,10.265300830067655,0.1054953085409406
19.513812,10.27317515100007,0.10520051749672206
19.516192,10.278907601559208,0.10492550270259914
19.518596,10.286270065812426,0.10462152899966837
19.520984,10.28920901969223,0.10436235154488915
19.523364,10.296012405438006,0.10407682070318686
19.52576,10.304538352676479,0.10378686559491569
19.528148,10.310131033608757,0.10351775981300472
19.530528,10.317026967153149,0.10325717370522874
19.532928,10.328438958869574,0.10297685929154433
19.535316,10.333704878719889,0.1027448710367701
19.537696,10.330682856330817,0.10258189714827431
19.540092,10.319233122075495,0.10249223789368177
19.54248,10.308574783753091,0.10240201085128203
19.54486,10.29605411431113,0.10232159898548135
19.547256,10.287537646362003,0.10221150063077528
19.549644,10.28209421434593,0.10207683829544173
19.552036,10.279584048636057,0.1019224273295758
19.554436000000003,10.272790142179625,0.10180686341594875
19.55682,10.260501790163142,0.10174399991319448
19.5592,10.249563912587016,0.10166186419866838
19.561604,10.242770006130586,0.10154605353364937
19.563988,10.242913567473185,0.10138291213478662
19.566372,10.244500151054762,0.10122475626981511
19.568772,10.25051024500975,0.10102467870678875
19.57116,10.258941748591738,0.10079761683766977
19.57354,10.265371151427308,0.1005852058047739
19.575936,10.272731719822655,0.10036833322636245
19.578324,10.282513697845,0.10012465154989073
19.580704,10.28829147437451,0.0999090272850423
19.5831,10.302496962770268,0.09962502850043668
19.585488,10.321265731166301,0.09929442348638878
19.587872,10.347391276241945,0.09890464163556237
19.590276,10.375518922064003,0.098503400793068
19.592664,10.409652870125317,0.09806143725172081
19.595044,10.439782616693796,0.09764870342090758
19.597448,10.472054233635548,0.09722159360365225
19.599836,10.503534454644386,0.09679615615937731
19.602216,10.53622538046672,0.09635759085232923
19.60462,10.577344018155301,0.09585510605332105
19.607008,10.617251951030386,0.09536961665115504
19.609388,10.660093150211663,0.09487218955058264
19.611784,10.695065716034133,0.09442387445000372
19.614172,10.72659315887121,0.0939841868544362
19.616552,10.755978731335013,0.0935638904253021
19.618948,10.78294289417182,0.09317149844925052
19.621336,10.811117761822123,0.09276779262876574
19.623716,10.843157061338397,0.09234716502418976
19.626112,10.873194260108255,0.09194079904911671
19.628500000000003,10.904302394064754,0.09152631282256982
19.63088,10.935782615073588,0.09112998574420111
19.633284,10.971499355000736,0.09073149581138393
19.635672,11.004654915674026,0.09036440222419188
19.638052,11.038042793772792,0.09001752715573613
19.640456,11.069800658177478,0.08969706478554314
19.64284,11.107145515940834,0.08935753244364797
19.64522,11.140858259263695,0.08905557393593469
19.64762,11.176945190385307,0.08875764107389367
19.650004,11.212333273372622,0.08848074199821215
19.652384,11.239945270799744,0.08826671705464138
19.654788,11.266206793786509,0.0880691833838563
19.657176,11.283761065653305,0.08793623351296406
19.65956,11.302478820505359,0.08781651702644334
19.661956,11.325293324648861,0.08769692087802712
19.664344,11.350482016591119,0.08758043270235849
19.666724,11.376322334839433,0.08746924056030883
19.669124,11.398390769020393,0.08739701455401605
19.671508,11.408306829095991,0.08739389452593209
19.673888,11.412868213238397,0.08742845980936997
19.676292,11.416498431821024,0.08746647611946064
19.67868,11.414401887418121,0.08752880824629346
19.68106,11.39978088185752,0.08764770020048154
19.683456,11.380643818124891,0.08777973836059451
19.685844,11.356199300287306,0.08792378490881556
19.68822,11.332453630584025,0.08804627257302099
19.690624,11.297906061215741,0.08822281012529885
19.693008,11.261635930354762,0.08840261951490681
19.695388,11.220430432441168,0.08860751114952209
19.697784,11.178573308221518,0.08880809621447466
19.700168,11.139556902509446,0.08897289378390888
19.702548,11.098678165677816,0.08914506394130196
19.704964,11.063154104779379,0.08928022092279359
19.707348,11.0301912231348,0.08938753611147175
19.709728,10.991641348131552,0.08951558914091264
19.712132,10.947644249396493,0.08965999551099126
19.71452,10.902995524355378,0.08979879081886283
