Time,Force,Position
19.397604,0.0,0.0
19.399992,0.0,0.0
19.402376,0.0,0.0
19.404772,0.0,0.0
19.40716,0.0,0.0
19.40954,0.0,0.0
19.411936,0.0,0.0
19.414324,0.0,0.0
19.416708,0.0,0.0
19.419104,0.0,0.0
19.421488,0.0,0.0
19.423872,5.669505987901879e-05,0.0
19.426268,0.001044555679536358,0.0
19.428656,0.004174286672470759,0.0
19.431052,0.007304017665405159,0.0
19.433448,0.009502583098561238,0.0
19.435836,0.01263231409149564,0.0
19.438216,0.01576204508443004,0.0
19.440612,0.020754107196921084,0.0
19.443,0.02360429893613506,0.0
19.445384,0.026314721048488834,0.0
19.44778,0.031027243907259458,0.0
19.450168,0.03452906195253133,0.0
19.452552,0.03602877925138636,0.0
19.454948,0.0376682661771016,0.0
19.457336,0.03944752272967705,0.0
19.459716,0.04029561372247418,0.0
19.462112,0.042074870275049636,0.0
19.4645,0.04292296126784676,0.0
19.466884,0.04292296126784676,0.0
19.46928,0.04292296126784676,0.0
19.471668,0.04286626620796775,0.0
19.474048,0.04187840558831041,0.0
19.476444,0.03874867459537601,0.0
19.478836,0.03561894360244161,0.0
19.481216,0.03492009546814056,0.0
19.483612,0.03450078658755992,0.0
19.486,0.03408147770697929,0.0
19.488396,0.03673520475945404,0.0
19.490792,0.0435329029316227,0.0
19.49318,0.048747809237955145,0.0
19.49556,0.05102944923809242,0.0
19.497956,0.05251969330531159,0.0
19.500344,0.056012038118947595,0.0
19.502724,0.06108717479841983,0.0
19.50512,0.06509137629125353,0.0
19.507508,0.06988697371700535,0.0
19.509888,0.0720288440902824,0.0
19.512288,0.07431048409041968,0.0
19.514676,0.0783713806431324,0.0
19.517056,0.08457414756912218,0.0
19.519452,0.09077691449511197,0.0
19.52184,0.09618828548818363,0.0
19.52422,0.10173942610811551,0.0
19.52662,0.10621963154140886,0.0
19.529008,0.10691847967570992,0.0
19.531404,0.10519591818301348,0.0
19.5338,0.1024854960706597,0.0
19.536188,0.0948397069056939,0.0
19.538568,0.08519181699431126,0.0
19.540964,0.07726648857562506,0.0
19.543348,0.07060856003031661,0.0
19.545728,0.06561649791782558,0.0
19.548132,0.06062443580533453,0.0
19.55052,0.05390981220014705,0.0
19.5529,0.0481263541547379,0.0
19.5553,0.04248266573618896,0.0
19.557688,0.03889777312393589,0.0
19.560068,0.036895672377519034,0.0
19.562464,0.03396240607132386,0.0
19.564852,0.02795610383207332,0.0
19.567232,0.021753336906083536,0.0
19.569632,0.01634196591301186,0.0
19.572016,0.01079082529307998,0.0
19.574396,0.006310619859786626,0.0
19.576804,0.004112054426630546,0.0
19.579188,0.003124193806973206,0.0
19.581572,0.003124193806973206,0.0
19.583976,0.003124193806973206,0.0
19.586364,0.003124193806973206,0.0
19.588744,0.003124193806973206,0.0
19.59114,0.002787959493373767,0.0
19.593528,0.002787959493373767,0.0
19.595912,0.002787959493373767,0.0
19.598308,0.002787959493373767,0.0
19.600696,0.002787959493373767,0.0
19.603076,0.002787959493373767,0.0
19.605472,0.002451725179774328,0.0
19.60786,0.0013240949332567785,0.0
19.61024,0.00019646468673922894,0.0
19.61264,0.0,0.0
19.615028,0.0,0.0
19.617408,0.0003362343135994391,0.0
19.619812,0.0009520078809192986,0.0
19.6222,0.001428011821378948,0.0
19.624584,0.0014280118213789478,0.0
19.62698,0.001428011821378948,0.0
19.629368,0.0014280118213789482,0.0
19.631748,0.0014280118213789482,0.0
19.634144,0.0014280118213789482,0.0
19.636532,0.0014280118213789482,0.0
19.638916,0.0014280118213789482,0.0
19.641312,0.003486807627674818,0.0
19.6437,0.0066165386206092185,0.0
19.646084,0.009606499986683408,0.0
19.648488,0.00960649998668341,0.0
19.650876,0.00960649998668341,0.0
19.65326,0.00960649998668341,0.0
19.655656,0.009663195046562427,0.0
19.65804,0.011721990852858298,0.0
19.660424,0.014711952218932489,0.0
19.662824,0.01784168321186689,0.0
19.665212,0.020495410264341644,0.0
19.667592,0.020587958062958704,0.0
19.669988,0.02082027548843597,0.0
19.672376,0.02152859685437289,0.0
19.674756,0.023447623033808547,0.0
19.677152,0.024295714026605676,0.0
19.67954,0.025143805019402804,0.0
19.68192,0.029856327878173425,0.0
19.68432,0.032566749990527194,0.0
19.686708,0.034346006543102645,0.0
19.689088,0.03228721073680677,0.0
19.691484,0.029157479743872373,0.0
19.693872,0.028226314184094055,0.0
19.696268,0.03536024666986216,0.0
19.698664,0.04170278322271215,0.0
19.701052,0.0468346149620634,0.0
19.703436,0.04883671570848025,0.0
19.705832,0.048976485335340464,0.0
19.708216,0.046043219029145294,0.0
19.7106,0.04483251421564655,0.0
19.712996,0.04469274458878634,0.0
19.715384,0.05004742052197899,0.0
19.717764,0.05339999570875479,0.0
19.72016,0.054470930895393316,0.0
19.722548,0.0533999957087548,0.0
19.724932,0.05433116126853312,0.0
19.727336,0.05526232682831144,0.0
19.72972,0.05433116126853312,0.0
19.732104,0.05461070052225354,0.0
19.7345,0.05689234052239081,0.0
19.736888,0.06081346744824333,0.0
19.739272,0.06273249362767899,0.0
19.741668,0.06067369782138312,0.0
19.744056,0.05353976533561501,0.0
19.74644,0.04719722878276502,0.0
19.748836,0.04206539704341377,0.0
19.751224,0.0400066012371179,0.0
19.753608,0.03780803580396182,0.0
19.756004,0.0377513407440828,0.0
19.758392,0.03583231456464714,0.0
19.760776,0.032982122825433155,0.0
19.763172,0.02691912552630358,0.0
19.76556,0.022858228973590862,0.0
19.767944,0.02107897242101541,0.0
19.77034,0.02023088142821828,0.0
19.772728,0.018451624875642836,0.0
19.775112,0.016672368323067385,0.0
19.777508,0.012891011024075083,0.0
19.779896,0.009901049658000894,0.0
19.78228,0.005840153105288171,0.0
19.784676,0.00191902617943566,0.0
19.787064,0.0,0.0
19.789448,0.0,0.0
19.791844,0.0,0.0
19.794232,0.0,0.0
19.796612,0.0,0.0
19.799008,0.0,0.0
19.801396,0.0,0.0
19.80378,0.0,0.0
19.806176,0.0,0.0
19.808564,0.0,0.0
19.810948,0.0,0.0
19.813352,0.0,0.0
19.81574,0.0,0.0
19.81812,0.0,0.0
19.82052,0.0,0.0
19.822904,0.0,0.0
19.825288,0.0,0.0
19.827684,0.0,0.0
19.830068,0.0,0.0
19.832452,0.0,0.0
19.834848,0.0,0.0
19.837236,0.0,0.0
19.83962,0.0,0.0
19.842016,5.669505987901879e-05,0.0
19.844404,0.00011339011975803758,0.0
19.846788,0.0009614811125551666,0.0
19.849184,0.0009614811125551665,0.0
19.851572,0.0009614811125551665,0.0
19.853956,0.0009614811125551666,0.0
19.856352,0.0009614811125551666,0.0
19.85874,0.0009614811125551666,0.0
19.861124,0.0009614811125551666,0.0
19.86352,0.0009614811125551666,0.0
19.865908,0.006639120354262551,0.0
19.868288,0.03326134918843979,0.0
19.870684,0.09004727541425304,0.012064237773557716
19.873072,0.17643971638213068,0.02195148068352839
19.875468,0.28089259832239544,0.03140477276058203
19.877864,0.4057328872055584,0.0405899736452395
19.880252,0.55272847049469,0.049697706220163174
19.882636,0.7257437800557637,0.05858786176552364
19.885032,0.9216604539853501,0.06730334710584449
19.88742,1.140572935939936,0.07574734688257234
19.8898,1.3754870630606126,0.08416958511763349
19.8922,1.630928366751048,0.09253180743840381
19.894588,1.9096431218623333,0.10082660224250684
19.896968,2.2207673616266543,0.10887795740097558
19.899364,2.5592636979611454,0.11673784193947451
19.901752,2.916100014521744,0.1245575764567619
19.904132,3.29425490358502,0.1323635254453693
19.906532,3.69396068257645,0.1401795915570827
19.90892,4.1169418088466,0.14789080425652934
19.9113,4.563015082656106,0.15536362271724824
19.9137,5.008812614985341,0.16272139622909113
19.916088,5.425379511340586,0.17010733419962082
19.918472,5.800748493213716,0.16555166070001542
19.920868,6.145904660009097,0.16323225970711844
19.923256,6.4824045892284925,0.1612643642265442
19.92564,6.794048275161201,0.15957918471568328
19.92804,7.073947367694307,0.15799989854110474
19.930428,7.317119277946953,0.15672107203660252
19.932808,7.535620040510147,0.1556687708262934
19.935204,7.730378925085797,0.15495674098002132
19.937592,7.911453657234232,0.15425077225958564
19.939972,8.071908665014291,0.15357652036885974
19.942372,8.202339745029576,0.1530266420627993
19.94476,8.29436451138421,0.15285661398712128
19.94714,8.361995773445242,0.1528982327295037
19.94954,8.418037531624092,0.15291477271537435
19.951928,8.448943507262536,0.15296586669513834
19.954308,8.451735108084003,0.15302984887027146
19.956708,8.425804137894941,0.15326874560973514
19.959096,8.38017892132367,0.15374486182643068
19.961476,8.334599030722776,0.15426656411365242
19.963876,8.30056521389156,0.1546664739347155
19.966268,8.279382619300005,0.1548552841110064
19.968648,8.255640741312462,0.15500590490836041
19.971044,8.221376502913634,0.15529380437231832
19.973432,8.20019390832208,0.1554802106735243
19.975816,8.194187606082828,0.1555679925014808
19.978212,8.200099464665591,0.15554824005228562
19.9806,8.205127379516822,0.15550461785737377
19.98298,8.215137883248905,0.15535447070958674
19.98538,8.234460042578773,0.15509496849964602
19.987768,8.256668246386592,0.15483151352346322
19.990148,8.285022522060524,0.15447166679558114
19.992544,8.318686147697273,0.1539508291496072
19.994932,8.342853022139003,0.15348498700983865
19.997316,8.360781276916008,0.15309262121580222
19.99972,8.384389072850297,0.15265776812051504
20.002108,8.418052698487044,0.1521362510405714
20.004492,8.455860295243486,0.15154073874250815
20.006888,8.484543227857252,0.15101730927649615
20.009276,8.512806851590433,0.15052394735694777
20.01166,8.546702794652656,0.15003793910543406
20.014056,8.577710797379064,0.14965690578692858
20.016444,8.606437160105331,0.1493114744135128
20.018824,8.633627952794004,0.1489369273558504
20.021224,8.64913290208614,0.14869440838996947
20.023612,8.656908987646332,0.14855683710933945
20.025992,8.665244151713964,0.1483945374435896
20.028388,8.67749096947581,0.1481469805300382
20.030776,8.681264749401034,0.1479721152022989
20.03316,8.667625922944195,0.14799516900155377
20.035556,8.650262434248239,0.14806171988893063
20.037944,8.63192055816426,0.14817244665689708
20.040328,8.611669129132483,0.14834010099572414
20.042724,8.597004693459375,0.14844407694453748
20.045116,8.580617696293574,0.14856469003278966
20.047496,8.565953260620468,0.14866760281777375
20.049892,8.547796480133725,0.1488341742689392
20.052284,8.526147354833347,0.14906912945772502
20.054664,8.50985290546616,0.14921805236139726
20.05706,8.48601658382213,0.14942811883522206
20.059448,8.447700922102229,0.14979621493885298
20.061832,8.409804569262908,0.15014619156060618
20.064228,8.378054288289697,0.15040513580806958
20.066616,8.345372841756708,0.15068003554455978
20.069,8.31776653190319,0.15087851029850616
20.071396,8.298028855408479,0.15096379505874039
20.073784,8.274239755592694,0.1511425236759765
20.076168,8.251055060254723,0.1513547727047344
20.078564,8.233038049394839,0.1515202745789156
20.080952,8.219676866333849,0.15163148757566475
20.083336,8.21004034551197,0.1516961733488475
20.085732,8.20212638618279,0.15174447456080892
20.08812,8.199519880958558,0.15173727710123042
20.090504,8.198403619801548,0.1516919536288202
20.092904,8.199568998644672,0.15160369462170614
20.095292,8.197009715248683,0.15156148297206806
20.097676,8.199525568532167,0.15144332274310063
20.100072,8.212191695174596,0.15117373798811426
20.102464,8.226300844056,0.15090214427430526
20.104844,8.24171324554952,0.15063234819728114
20.107244,8.266297533013962,0.15025440515513644
20.109632,8.293256008277158,0.14986327219874934
20.112016,8.320167261712115,0.1495085886642277
20.114412,8.352805278132598,0.1490787205465462
20.116804,8.38651422973972,0.14863667876199244
20.119184,8.415567353547951,0.1482566697082763
20.121584,8.455050289968847,0.1477222796272429
20.123972,8.49066879452377,0.1472373203135422
20.126356,8.525775442399496,0.14674592830234176
20.128756,8.563303499902219,0.14620802688623818
20.131144,8.59510479441941,0.14574084719940564
20.133528,8.628908189683019,0.1452498821339024
20.135928,8.664062059386987,0.1447351143437134
20.138312,8.697725685023737,0.14425655343087565
20.140696,8.72952697954093,0.14379964325972075
20.143096,8.761328274058123,0.14334211900160404
20.145484,8.786564187828624,0.1429943540865955
20.147868,8.807376591225712,0.14272384742385735
20.150264,8.831262030555852,0.14241411812790494
20.152652,8.857568879512991,0.14205948912990235
20.155036,8.87856827436518,0.1417542084113321
20.157436,8.90105791328459,0.1414177239949682
20.159824,8.927319436271356,0.14101295775400785
20.162208,8.951858397765426,0.14062423290744058
20.164604,8.969739430714187,0.1403095853362336
20.166996,8.984826966983613,0.14002389759877212
20.16938,8.990695395453873,0.13986371145585705
20.171776,9.002709895790243,0.13962338202557334
20.174168,9.01672649687303,0.13935989580180455
20.176544,9.028880766836263,0.13911589650339293
20.17894,9.045830634225243,0.13881859558539703
20.181324,9.059707465681168,0.13856251535249361
20.1837,9.069300556390541,0.13836811546513267
20.186096,9.08196668303297,0.13813475746845377
20.18848,9.095052118555978,0.1378835876850584
20.19086,9.10804500628037,0.1376064051642234
20.193256,9.12494954769898,0.13725497407529147
20.19564,9.142273397998169,0.13688750206538966
20.19802,9.152008154192272,0.13659955504834273
20.200424,9.15843755702784,0.13633034587038106
20.202812,9.166869060609827,0.13603664651544536
20.205188,9.170877053818396,0.1358092525574359
20.207584,9.171392702213334,0.13563927284479518
20.209972,9.17190835060827,0.13546946808106308
20.212352,9.175357265309401,0.1352662008978756
20.214748,9.180528741503231,0.13505038290526725
20.217132,9.18476905213728,0.13484266147660165
20.219512,9.183142830158937,0.13470123278944834
20.221924,9.178303802620682,0.1346042177944906
20.224312,9.17025196952251,0.134551428234047
20.226692,9.16261944530492,0.13448095685451736
20.229084,9.156197625900825,0.13438998466164617
20.231472,9.15326815131037,0.13424346100598614
20.233868,9.147824719294299,0.13411185543521545
20.236264,9.143684539890344,0.13398578382103934
20.238648,9.142430404964339,0.13385962584191746
20.241028,9.138754860411337,0.1337739056671137
20.243432,9.133589071791118,0.1337196840873493
20.24582,9.132939341342931,0.13362800020974352
20.2482,9.139040087238666,0.13349668236038456
20.250596,9.14658385537338,0.13336586497898004
20.252984,9.15668880276195,0.13318962243967708
20.255364,9.166142123844462,0.13301093282340146
20.257756,9.17918033753923,0.13280587001003777
20.260144,9.193941112726693,0.13259006766991532
20.26254,9.21098352791429,0.13234183261927113
20.264932,9.229096878288528,0.132078239686372
20.26732,9.247210228662766,0.13181323271643355
20.2697,9.265323579037005,0.1315476649597964
20.272096,9.293028124262747,0.13118794011888155
20.274484,9.319661734301851,0.13084511500706406
20.276864,9.346435113967814,0.13049845982702618
20.279264,9.369855918447001,0.13020032764836237
20.281648,9.397792781098218,0.12986994574336894
20.284044,9.426009183003156,0.1295300050003929
20.28644,9.449709526736065,0.12922521238583173
20.288828,9.47676244565575,0.12887656542023657
20.291208,9.505445378269513,0.12849356220302433
20.293604,9.533197145323498,0.12811955846727158
20.295992,9.554850062339616,0.12778659058401629
20.298372,9.57361693487778,0.12745279879194038
20.300776,9.592104268162224,0.1271315001448931
20.303164,9.610731371073527,0.1268055182871631
20.305544,9.623771480626163,0.12652717728378532
20.30794,9.638022294992295,0.12623200375315674
20.310324,9.647337742305817,0.12598570897016162
20.312708,9.659214368873197,0.12569776835913585
20.315104,9.675746823239468,0.1253727109730436
20.317492,9.692279277605738,0.12504704326390242
20.319872,9.700291472307145,0.12479593296247976
20.322268,9.705649939956075,0.12456197165513887
20.324652,9.71007724204523,0.12433596305667788
20.327048,9.71785711932116,0.12406689465658086
20.329444,9.721912334357974,0.12382877816926291
20.331832,9.723453591969175,0.12360195727179016
20.334212,9.730349525513569,0.12331296807083957
20.336608,9.734032653498046,0.12306262358004814
20.338996,9.738646947042302,0.12280644673768791
20.341376,9.746753585400192,0.12250452314719691
20.34378,9.758584885997198,0.12217528377244563
20.346168,9.773861309579598,0.1218296356868938
20.348548,9.788486106855938,0.12148146474045535
20.350944,9.800969033759001,0.12115705796344829
20.353332,9.815314291781622,0.12081854616844914
20.355712,9.827797218684685,0.12049525309439144
20.358108,9.850290649319835,0.12008127679257723
20.360496,9.87343570626104,0.11967386397724193
20.36288,9.892623783537653,0.11927577311270701
20.365276,9.915164436001044,0.11883912159977926
20.367664,9.944130699584267,0.1183343489746184
20.37006,9.975890459846823,0.11781070279704595
20.372456,10.00900069454974,0.1172677659502687
20.374844,10.038246497386682,0.11675723721359248
20.377224,10.067212760969904,0.1162576505403828
20.379624,10.09976391716538,0.1157391723310124
20.382008,10.12723993668138,0.11526956309017114
20.384388,10.154204099518184,0.11479161654439522
20.386792,10.178886622354852,0.11434331176332956
20.38918,10.196212368511912,0.11396885723713077
20.39156,10.20753181242972,0.11364607206024192
20.393956,10.215778220414473,0.1133524949044576
20.396344,10.225095563585864,0.11304873321711215
20.398724,10.23641500750367,0.1127273553980923
20.40112,10.246943055488561,0.11240724998711238
20.403508,10.254537837167256,0.11210984984293705
20.405888,10.252122115113865,0.11189921485821057
20.408292,10.246493587500561,0.11172159004427933
20.41068,10.244030643618927,0.11153983887022334
20.41306,10.240356994923795,0.11137431612430222
20.41546,10.229047030295334,0.11128881928910846
20.417844,10.216526360853376,0.11121875531915881
20.420228,10.199582181038,0.11119616563190737
20.422624,10.184220793088462,0.1111715645698463
20.425012,10.168068009206005,0.11114773588085243
20.427392,10.147631484576994,0.11116654461075212
20.429788,10.12812612550776,0.11117953540434052
20.432172,10.109272392744588,0.11119608000547418
20.434552,10.09363146554133,0.11117995577896005
20.436948,10.085998941323737,0.11109835435399242
20.439336,10.084232949718537,0.11097254586381475
20.441716,10.08647115960617,0.11081453086312668
20.444112,10.087358895053441,0.11067703217589543
20.4465,10.090388500873994,0.11051907760679285
20.448884,10.095000898560382,0.11035977325057078
20.45128,10.103198188859022,0.11018277363800429
20.453668,10.114188975836994,0.10998847592076963
20.456052,10.127461402815106,0.10976870735527745
20.458448,10.141664995352997,0.10954514716684147
20.460832,10.15265578233097,0.10935257595764915
20.463216,10.168581936361559,0.10912193009426867
20.465612,10.183576924832368,0.10889674481158781
20.468,10.203647049982646,0.1086293754892833
20.47038,10.223717175132931,0.10836226920770739
20.472776,10.245789401029628,0.10807997908940241
20.475164,10.272145367672879,0.10775667456742614
20.477544,10.300223895808829,0.10742772023639226
20.47994,10.329093819877695,0.10709909458226796
20.482328,10.354099312080587,0.10679904834803901
20.484712,10.37309850204423,0.10654705430440482
20.487108,10.390235360888317,0.10630682554966389
20.489496,10.401365917493152,0.10611296516986207
20.491876,10.412636243724846,0.10591458780022009
20.494276,10.419622829209986,0.10575652956061361
20.49666,10.426888953948847,0.10558958219004885
20.499044,10.43536578350121,0.10540882634593321
20.50144,10.446915648986625,0.10520417818712763
20.503824,10.456603183352483,0.10501019673360172
20.506208,10.459772558799896,0.10485185552674764
20.50862,10.467085905367,0.1046593159490113
20.511008,10.474678791187825,0.10445809761929341
20.513388,10.487346813688122,0.10421898411994802
20.515784,10.50001483618842,0.1039814774544241
20.518172,10.51710636906213,0.10370327644256562
20.520556,10.532056031562567,0.10344436290857215
20.522952,10.54835616850336,0.10316939344797307
20.52534,10.566146549511371,0.10287316554888772
20.52772,10.584356239399964,0.1025646292639599
20.530116,10.60349709484834,0.10225180166994391
20.532504,10.622777719923572,0.10193338721529202
20.534888,10.641127179439025,0.10161975953471294
20.537284,10.663760379701035,0.10126915084869217
20.539672,10.68360008328371,0.10093187962140016
20.542052,10.706792362053156,0.10056261870831851
20.544468,10.730264180076324,0.1001863310810774
20.546856,10.750802731793298,0.09982943552946776
20.549236,10.767756390898018,0.09948784563578514
20.551632,10.788714251495573,0.09912108698268551
20.55402,10.81339677433224,0.09873530639053907
20.556404,10.838079297168909,0.0983521879487897
20.5588,10.862901589632436,0.09796654460351026
