Time,Force,Position
22.209848,0.0036057349333940506,0.0
22.212232,0.002338335060016291,0.0
22.214628,0.0,0.0
22.217016,0.0,0.0
22.219396,0.0,0.0
22.221796,0.0,0.0
22.22418,0.0,0.0
22.22656,0.0,0.0
22.228964,0.0,0.0
22.231352,0.0,0.0
22.233728,0.00019646468673922891,0.0
22.236124,0.0001964646867392289,0.0
22.238512,0.0001964646867392289,0.0
22.240908,0.00019646468673922891,0.0
22.243304,0.00019646468673922891,0.0
22.245692,0.00019646468673922891,0.0
22.248076,0.00019646468673922891,0.0
22.250472,0.00019646468673922891,0.0
22.25286,0.00019646468673922891,0.0
22.25524,0.00019646468673922891,0.0
22.257644,0.00019646468673922891,0.0
22.260032,0.00019646468673922891,0.0
22.262412,0.00019646468673922891,0.0
22.264808,0.00019646468673922891,0.0
22.267192,0.0026178682560263583,0.0
22.269572,0.03785480041155498,0.0
22.271976,0.11959710115414879,0.008813050108707142
22.274364,0.23164476477310803,0.016675414847039587
22.276744,0.35486262339366864,0.024705918613290752
22.27914,0.486175745224906,0.033354215566835634
22.281528,0.6417746627458839,0.04204360777791548
22.283912,0.8377895720476952,0.05019286014439121
22.286308,1.0780301057943036,0.05770876174608182
22.288696,1.3396836557000746,0.06511828815466215
22.291076,1.6096666820998693,0.07272901008487438
22.293472,1.8931921954421502,0.08054490538871695
22.29586,2.2101867595346,0.08822076613799205
22.29824,2.554226659115256,0.09579659624313758
22.300636,2.913580724817208,0.10336221404714861
22.303024,3.285687777386597,0.11098142134180904
22.305408,3.680509202869396,0.11863156159202361
22.307812,4.1123845717146175,0.12615289887724637
22.310196,4.577126482690062,0.13347903684275633
22.31258,5.054158641539861,0.1407296225329538
22.314976,5.536126173499981,0.14788119212945705
22.317364,5.9696825756409755,0.15512550152374244
22.319748,6.344069378410345,0.15370923883821724
22.322144,6.694621755393554,0.15320466594332907
22.324532,7.040801635547331,0.1524514197858032
22.326912,7.38419560245325,0.15094830898325726
22.329308,7.702829665586836,0.14932933558777298
22.331696,7.964949752259144,0.14837207074380876
22.33408,8.161287636984893,0.14828954460568985
22.336476,8.329834116259889,0.14838329924918167
22.338864,8.492285537212757,0.1482683850954054
22.34126,8.643428889395034,0.14794090112520802
22.343656,8.757518298214888,0.14779104187751102
22.346044,8.851080530464984,0.14766483155552387
22.348428,8.933657663310715,0.14754097334196556
22.350824,8.998359450781292,0.14746946325285706
22.353212,9.034108245673728,0.14743214066796784
22.355592,9.028613800113677,0.1475269218828214
22.357988,8.980848609027001,0.14790517712658183
22.360376,8.919582465252475,0.14838426851805359
22.36276,8.847746739238422,0.14901875932543343
22.365156,8.791553836285498,0.1495252181025913
22.367544,8.743975636653927,0.14987722431452197
22.369924,8.682896484334503,0.1503466383948695
22.37232,8.615391720895246,0.15091190272929494
22.374708,8.542670155291788,0.15163849182598757
22.377088,8.465802722710768,0.15252645733623416
22.379492,8.413610229534939,0.15317806368006745
22.38188,8.395731092444047,0.15343213221426472
22.384264,8.386836849868978,0.1536223814882839
22.38666,8.38781334139913,0.15367220145870797
22.389048,8.395122896250498,0.15359264011825172
22.391428,8.401129198489752,0.1535081457515331
22.393824,8.389862663973798,0.15361287640686835
22.396212,8.37426706274091,0.1537254672549092
22.398596,8.373664554120966,0.1535966983594798
22.400992,8.386657441845356,0.1532918873374683
22.40338,8.40453847479412,0.1529530487599803
22.40576,8.432195798191616,0.15254023941837683
22.40816,8.463530561999985,0.15211629036234436
22.410544,8.502686737338916,0.1516175603242226
22.412928,8.546823605700833,0.15111819953577005
22.415332,8.596872332645518,0.1506011042436028
22.41772,8.651669435187708,0.15004320264183682
22.4201,8.705255832916402,0.1495058777530344
22.4225,8.76377759769771,0.1489034755917109
22.424888,8.834079649532036,0.14811165561238518
22.427272,8.896327972410324,0.14739200867665225
22.429676,8.939208809988369,0.14686962741795756
22.43206,8.9814852430886,0.1463161633598202
22.434444,9.00765232241888,0.14596081261187183
22.43684,9.02460029394999,0.14574013684371342
22.439224,9.046343862906854,0.14546104305438118
22.441608,9.080704440820034,0.14504984636561102
22.444004,9.116088732091608,0.14465468895283848
22.446388,9.147933456721306,0.14436548561104262
22.448768,9.17852025470926,0.14413927365840087
22.451164,9.210689844563051,0.143908487954075
22.453552,9.243837821804863,0.14363742569795424
22.455936,9.275310459382224,0.14334884608055942
22.458332,9.31162591621358,0.14298501941664224
22.460716,9.348175586328283,0.14256326327654315
22.463116,9.384120851965164,0.14211274828677134
22.465512,9.420113339430292,0.14162791433631655
22.4679,9.463881912455614,0.14103395292162246
22.47028,9.507557937682314,0.14042548672890742
22.47268,9.546438365483265,0.13987811724962063
22.475064,9.5808952829108,0.1393915040382559
22.477444,9.620891971868764,0.13887690137874067
22.47984,9.661632834931401,0.13839250786424015
22.482228,9.714199311017437,0.1378088450020018
22.484608,9.773283946021923,0.1371717311959215
22.487004,9.833951372892242,0.13653272767606356
22.489392,9.891965072710088,0.13591533750165422
22.491776,9.94774435435604,0.13529946402587367
22.494172,9.996401072605726,0.13471545197124254
22.49656,10.036631974847037,0.13415839871281682
22.498956,10.069321004811503,0.13364315212079572
22.501352,10.096562811044159,0.13317121821880562
22.503736,10.12566694839637,0.13268498781159885
22.50612,10.150394797203411,0.13223953742592875
22.508516,10.16934866119668,0.13188004621504554
22.510904,10.180945748510341,0.1316059760604054
22.513284,10.194218175488453,0.13134933321141976
22.51568,10.200505912839294,0.13119461184139142
22.518068,10.206374341309552,0.1310574068860283
22.520448,10.20744717235406,0.13096396767286164
22.522852,10.215038162317015,0.13081677807087047
22.52524,10.22383985709347,0.1306513368333889
22.527624,10.23189737776525,0.13046072431486747
22.53002,10.234322579107987,0.13026612030377596
22.532408,10.225760785188484,0.13012729483136448
22.534788,10.209470127537037,0.13005776297998992
22.537184,10.19303970025873,0.12999339639521307
22.539572,10.180613474473255,0.12988899996060058
22.541956,10.171400054247695,0.12974682035319665
22.544352,10.162791038499952,0.12963521302264125
22.546736,10.158091780588558,0.1295400047708278
22.54912,10.158512985327008,0.12944354035116415
22.551516,10.157071858945901,0.12936244533675081
22.553904,10.147390012153648,0.1293434596443989
22.5563,10.13691676942848,0.12932662157340002
22.558696,10.131611211181403,0.12928036998234174
22.561084,10.125002400322206,0.12922856778128863
22.563464,10.118208493865772,0.12912948802184035
22.56586,10.102150153639803,0.1290774155273185
22.568252,10.083018777480778,0.1290591662977937
22.570632,10.053737127962805,0.12915106579259478
22.573032,10.022173838444699,0.12927534393967682
22.575416,9.989027757060756,0.1294031013872006
22.577796,9.952901187542373,0.12958657559808226
22.580196,9.92454880772631,0.1297509203429529
22.58258,9.907230645000732,0.1298281749122308
22.584964,9.892705978954485,0.1298821296497231
22.58736,9.877017829922984,0.12992396246505522
22.589744,9.859886658652506,0.1299638624941326
22.592124,9.845828523315085,0.12997058128411912
22.59452,9.83340040167174,0.12994380113579884
22.596908,9.823068824431301,0.12983850506842512
22.599304,9.809479115660572,0.12971794229623154
22.6017,9.80175593950223,0.12954194252912601
22.604088,9.79575532483659,0.12935603457480133
22.606472,9.791244954238167,0.12914175631770003
22.608868,9.790366698080238,0.12887401981064928
22.611252,9.790140068228366,0.128609369457918
22.613636,9.794941353227724,0.1283202022156846
22.61604,9.810544537892087,0.12792960725294403
22.618428,9.836437765542252,0.12742552066306764
22.620808,9.867593121326996,0.12683559461583527
22.623204,9.89851615968626,0.12622876957059606
22.625592,9.929346650246908,0.12559741218096623
22.627976,9.957710405210182,0.1249515557461444
22.630372,9.981465554202812,0.12431776728077056
22.63276,10.001822802038292,0.12367413239454972
22.63514,10.020737027634794,0.12303164727542054
22.63754,10.038161009164078,0.12241787732761084
22.639924,10.052279637334827,0.12181670613980869
22.642304,10.066445487333821,0.12118757819022573
22.644704,10.072975021399484,0.12064725517536316
22.647092,10.085044326995575,0.12009564717823634
22.649472,10.090827791098695,0.11961032933475013
22.651868,10.097030564082397,0.11911055530447816
22.654256,10.10137100594654,0.11862405382087626
22.656636,10.105711447810686,0.11813959681029253
22.65904,10.108469097808992,0.1176579768862847
22.661428,10.108992329635406,0.11717509002573603
22.663812,10.10192646735673,0.11675110927670969
22.666208,10.092998273958498,0.1163409344153286
22.668596,10.077504699813579,0.11600385969631342
22.670976,10.062103673467272,0.11569004550689942
22.673372,10.046934964546447,0.11539414187333986
22.67576,10.02878576749118,0.11515023546985759
22.678144,10.008587247861254,0.11495222185058376
22.68054,9.989644759015201,0.11479007853613787
22.682928,9.971306674646963,0.11466020392046328
22.685308,9.952689051025,0.11454011406026679
22.687708,9.936026306321217,0.11443100588375424
22.690096,9.921038901281886,0.11434278855737434
22.692492,9.91405989922822,0.11418428423232528
22.694888,9.903496004562305,0.11404558988285628
22.697276,9.895725606575724,0.11388785368185425
22.69966,9.886325194895061,0.11376128685517209
22.702056,9.879438740640012,0.11362604803027984
22.704444,9.867849236757833,0.11355050634720333
22.706828,9.859565086234182,0.11346521923845676
22.709224,9.85710024649468,0.11336230192615372
22.711612,9.859523551979548,0.11324814599948754
22.713996,9.861899635636174,0.11316316645391282
22.716392,9.872376670077081,0.11303430847066005
22.71878,9.882574165264268,0.1129155682625166
22.721164,9.894354452317291,0.11279497517378952
22.72356,9.913072207169346,0.11261817616895556
22.725948,9.933000666834895,0.11242481956473406
22.728332,9.955769845008025,0.11218570910055387
22.730728,9.978306705755676,0.11192847200330742
22.733116,10.00112310575705,0.11166113372574672
22.735496,10.028223246504977,0.1113527006088581
22.7379,10.053461056133347,0.11105715639617862
22.740288,10.076277456134719,0.11079537149725159
22.742668,10.101468043934847,0.11053191323681073
22.745064,10.132385394720503,0.11023157345227147
22.747452,10.166096242185496,0.10991510002629734
22.749832,10.201529651143185,0.10959477364061092
22.752228,10.241898427153485,0.10923619842774297
22.754612,10.27919416723073,0.10890511389920403
22.756992,10.309831978762666,0.10861858909335892
22.759388,10.336093501749431,0.1083509390760142
22.761772,10.360400145818023,0.10807091390498624
22.764168,10.374603738355912,0.10784679383605171
22.766564,10.390297574961023,0.107598581045264
22.768948,10.40254628858074,0.10736239233776583
22.771328,10.407997304028289,0.10717484934261515
22.773732,10.420246017648006,0.10694122011011273
22.77612,10.431795883133423,0.10673287625356045
22.7785,10.445580166790732,0.10652863392907129
22.780904,10.462809573433434,0.1063136630287673
22.783292,10.477757340076,0.10612527642791317
22.785672,10.496569538584538,0.10591296509730266
22.788068,10.51337963634666,0.10571566399732997
22.790456,10.52660484149653,0.10553426738612645
22.79284,10.53438282291459,0.10537986183264324
22.795236,10.540438242839954,0.1052313880486972
22.79762,10.542117374220144,0.1050989987568646
22.8,10.543284648921137,0.10495828955921774
22.802404,10.54752495955519,0.1047938319736046
22.804792,10.558842507615125,0.10457713768017411
22.807172,10.57267401310068,0.10435480172190369
22.809568,10.589671102317908,0.10413156081951012
22.811956,10.616771243065834,0.10385892452299471
22.81434,10.642241370119681,0.10361480394083604
22.816736,10.670085684972282,0.10336889254756271
22.819124,10.703516993183552,0.1030939698571797
22.821504,10.723724992102827,0.10291887280728682
22.823908,10.740487868036707,0.10275434269606619
22.826296,10.751663750611916,0.10261904616771317
22.828676,10.757904266134512,0.1025173653452476
22.831072,10.761211515350913,0.1024349465461673
22.83346,10.75665013120851,0.10240497207149918
22.835844,10.755022013372296,0.10235594600274497
22.838248,10.756187392215422,0.10229239992463159
22.840632,10.758656023670662,0.10223746646096545
22.843012,10.761496742178238,0.10219598687866017
22.845416,10.767503044417492,0.10215353272736953
22.847804,10.770668628149162,0.10215253774462348
22.850184,10.772623507067337,0.10216544036526978
22.85258,10.771086041171877,0.10221499961520875
22.854968,10.771690445649693,0.10224603285217664
22.857348,10.774716259754502,0.10224989919799338
22.859752,10.774576490127641,0.10225432219049692
22.86214,10.776997899754639,0.10222766254519433
22.86452,10.785053524568548,0.10214829754418045
22.866916,10.791526357516622,0.10206957688072549
22.869304,10.812712743823917,0.10187725135981354
22.871684,10.83869472755696,0.10165953151818588
22.87408,10.868960452036564,0.10140686535939895
22.876464,10.9027185213298,0.10111943026744544
22.878844,10.938106604317113,0.10080632003898121
22.881252,10.978989132864479,0.10044468113975873
22.883636,11.01949957435951,0.10007259954810949
22.88602,11.061640029548618,0.09967743919926421
22.888416,11.102756771379331,0.09926569100100617
22.890804,11.144200274292011,0.09882088193692534
22.893188,11.183968437540235,0.0983560482632851
22.895592,11.225274066683921,0.09784379708689747
22.89798,11.267558083215627,0.09730421577211298
22.90036,11.307095824896246,0.09675108842822526
22.902756,11.341465882098774,0.09621134399028239
22.905144,11.367315679636436,0.09571347477588482
22.907524,11.391303146054542,0.09522499091028772
22.90992,11.412497115793311,0.09475023715161737
22.912308,11.428755718479469,0.09430730869461477
22.914692,11.442220824486293,0.09387637661859204
22.917088,11.445675426761033,0.09350749824294269
22.919476,11.445684906050376,0.09314650210889429
22.921856,11.444111593473888,0.09278510701410632
22.924252,11.440024323471784,0.09242662072773734
22.92664,11.431001686417066,0.09209384896094322
22.929024,11.41639205600368,0.0917823313052785
22.93142,11.400991029657373,0.09147033462926982
22.933808,11.380654636258452,0.09118430767345156
22.936204,11.361389178046172,0.09088995719715176
22.9386,11.34012161908748,0.09060600924556098
22.940988,11.319365916807978,0.09033033325328067
22.943368,11.298842531953957,0.0900712149642791
22.945764,11.27510634154002,0.08983411587643107
22.948152,11.251882007805278,0.08960485730463726
22.950532,11.229169530749738,0.0893836140073443
22.952936,11.212463355933448,0.08912850320616875
22.955324,11.193755080370739,0.08888350523814365
22.957704,11.173975869621392,0.08864535044194469
22.9601,11.15126339256585,0.08842079255728257
22.962488,11.130832555510446,0.08817627380807905
22.964872,11.109191013641544,0.08794233030581979
22.967268,11.086338766959141,0.08771932969904869
22.969656,11.059994175463103,0.08752646048381063
22.97204,11.036815167698737,0.08733641002325525
22.974436,11.01922315329304,0.08712558089005634
22.976824,11.005727888178795,0.08691403398805479
22.979208,10.989671443810696,0.08672978244719369
22.981604,10.975197791308432,0.0865466721435026
22.983988,10.960165060298726,0.08638017926811127
22.986372,10.946295812274276,0.08622777875951779
22.988776,10.932426564249825,0.08607510747795939
22.991164,10.918557316225375,0.08592223404699344
22.993544,10.906410629693621,0.08576673987139435
22.995944,10.89919931021448,0.08558689805121346
22.998332,10.89627173148189,0.08537773033251586
23.000712,10.891714139055223,0.08519280681950583
23.003108,10.893162848867807,0.0849770205731348
23.005496,10.89540295461331,0.08476194032044428
23.007876,10.901507492224786,0.08453035410696799
23.010276,10.90812388651546,0.08430890903125497
23.012664,10.92167774860516,0.08405405309924505
23.015044,10.936302545881501,0.08379187345554175
23.017448,10.95786481095687,0.08349654467692035
23.019836,10.978123823420123,0.08319207770926662
23.022216,10.99773120957732,0.08288347343449823
23.024612,11.021622336481071,0.08254888159900849
23.027,11.045932772265399,0.08220120679156111
23.029384,11.073456013609647,0.08183398429400426
23.03178,11.10232972939425,0.08145306499874487
23.034168,11.12962065331302,0.08106937164140665
23.036548,11.157702973164707,0.08068843376011725
23.038948,11.184062731523696,0.0803091869283792
23.041332,11.210422489882687,0.07993080777290729
23.043712,11.235571543428179,0.0795662652451271
23.046112,11.257647561040615,0.07921943633144683
23.0485,11.280142887533632,0.07886110076193842
23.05088,11.297702846974037,0.07852526877504515
23.053276,11.317544446414578,0.07817302572286608
23.055664,11.337386045855121,0.07782236784315284
23.058044,11.353502983056549,0.07748169481879033
23.06044,11.36789735876528,0.07714407742401651
23.062828,11.386156166339987,0.07679432939882452
23.065228,11.40069031167558,0.07645554803347394
23.067624,11.411592342570676,0.07614718562150066
23.070012,11.424356704585328,0.0758355070029281
23.072392,11.43325663473401,0.0755386534522757
23.074792,11.444670522308304,0.07524302659185517
23.077176,11.455944640255739,0.07495300986794919
23.07956,11.465728514135954,0.07468139004356936
23.081956,11.48044775506878,0.07439205963384024
23.084344,11.49330466488205,0.07410749074561356
23.086724,11.511608798427131,0.0738152330882728
23.08912,11.528981766412432,0.07352536704939311
23.091508,11.54155913697198,0.07324988566372531
23.093888,11.556510695330282,0.0729804038610223
23.096296,11.572393419248368,0.07270980299548878
23.09868,11.58664612947237,0.07245946861659931
23.101064,11.599688134882875,0.07221963750213253
23.10346,11.609517334733463,0.07199737776261979
23.105848,11.623862592756085,0.07176922543035798
23.108228,11.636857376338344,0.07155520312026298
23.110628,11.644217944733692,0.07137789467485613
23.113012,11.655023636114432,0.07120117764691936
23.115396,11.671975399361283,0.07099817641934522
23.1178,11.687017609660336,0.070824349905218
23.120188,11.703642611825224,0.07065512710871878
23.122568,11.72133854917675,0.07048117541292587
23.124964,11.733819580221944,0.07033144128454233
23.127352,11.743507114587803,0.07018683266435903
23.129732,11.751844174513304,0.0700562109201576
23.132128,11.762695191864418,0.06992808078719133
23.134516,11.77061294290934,0.06980967730693949
23.1369,11.780253255446953,0.06969176034005652
23.139296,11.794549395783463,0.0695654080388461
23.141684,11.809125075373688,0.06943237798550032
23.144068,11.824352381269975,0.06930579863812623
23.146464,11.849590190898345,0.06914519662900048
23.148852,11.879483828325608,0.06897793173432855
23.151236,11.912310732059064,0.06880237535369577
23.153632,11.94513763579252,0.06862801452583159
23.15602,11.97717314359306,0.06845200572426884
23.158404,12.01470309695365,0.06824682966321959
23.160808,12.04743745288849,0.06805364007468968
23.163196,12.077238542517136,0.06787002947585409
23.16558,12.11002012028022,0.06765581985379907
23.167976,12.138145870244411,0.06744934062599697
23.170364,12.164549058715906,0.06724333803430144
23.172744,12.195096218307095,0.06702066684249314
23.175144,12.231649680137535,0.06677914175584591
23.177532,12.264338710101999,0.06654736089851114
23.179916,12.292651451521294,0.06631584163361166
23.182312,12.317379300328337,0.06608653996945336
23.1847,12.339453422082904,0.06585816297789504
23.187084,12.360875917531413,0.06562518266793622
23.18948,12.378853289994531,0.06539122526288062
23.191868,12.392454373912475,0.06515713222907114
23.194252,12.394741701486222,0.06494318286156193
23.196652,12.388788308648822,0.06473767479337439
23.199036,12.382323059132224,0.06452305236376649
23.20142,12.37455455700351,0.06429721653552845
23.203816,12.368927925248073,0.06406196430476419
23.206204,12.357854069760826,0.06383045313340964
23.208588,12.3494811631543,0.063575240186029
23.210984,12.337523363935517,0.06332045237441582
23.213376,12.319838801731207,0.06307586482826323
23.215756,12.305087505833091,0.06282380398611702
23.218152,12.287542713255641,0.06257440288308387
23.22054,12.268554898439213,0.06231647438817708
23.222924,12.244259629517838,0.06205760299559901
