Time,Force,Position
20.892452,0.10047790946962516,0.0
20.894848,0.10285209726837949,0.0
20.897236,0.10764769469413131,0.0
20.899616,0.10923048655996753,0.0
20.902016,0.11374654473199891,0.0
20.904404,0.11733143734425198,0.0
20.906784,0.12026470365044716,0.0
20.90918,0.11947330771752904,0.0
20.911567999999995,0.12310542215802525,0.0
20.913948,0.11938075991891196,0.0
20.916344,0.11163060710943333,0.0
20.918732,0.10695349023301007,0.0
20.921116,0.09855171111747349,0.0
20.923512,0.09122086718857547,0.0
20.9259,0.08081698732662207,0.0
20.92828,0.07148404265130719,0.0
20.93068,0.06415319872240915,0.0
20.933068,0.05789328998014965,0.0
20.935448,0.054706417170945536,0.0
20.937848,0.05340316455882974,0.0
20.940236,0.047422795070290666,0.0
20.94262,0.04130265595489138,0.0
20.945016000000003,0.03490297758577167,0.0
20.947404,0.02743236403001343,0.0
20.949788,0.023428162537179727,0.0
20.952183999999995,0.017819880100978132,0.0
20.954572,0.014467304914202332,0.0
20.956956,0.010581583970697165,0.0
20.959352,0.006556093400331789,0.0
20.96174,0.004672473203243474,0.0
20.964136,0.004672473203243474,0.0
20.96654,0.005997014892890949,0.0
20.968924,0.005997014892890949,0.0
20.971304,0.008532261396037164,0.0
20.973708,0.01078796864546296,0.0
20.976096,0.014394150335247706,0.0
20.978476,0.01641754015919623,0.0
20.98088,0.01641754015919623,0.0
20.983268,0.021234426662479718,0.0
20.985648,0.019791404423503703,0.0
20.988044,0.027029700553784675,0.0
20.990428,0.030683104071812572,0.0
20.992808,0.03699023464231522,0.0
20.995204,0.037710371854147946,0.0
20.997588,0.03910806812275005,0.0
20.999972,0.04397217645427669,0.0
21.002364,0.04457847678996068,0.0
21.004752,0.04944258512148732,0.0
21.007132,0.055517398266512696,0.0
21.009528,0.062383607344456186,0.0
21.011916,0.070180981982178,0.0
21.0143,0.07199798713136074,0.0
21.016696,0.07593092990310905,0.0
21.019084,0.07625769098507262,0.0
21.02148,0.07900586169403367,0.0
21.023876,0.08091541464183345,0.0
21.026264,0.08361636352255135,0.0
21.028644,0.09048257260049485,0.0
21.03104,0.08852769368232113,0.0
21.033424,0.09281143442887525,0.0
21.035808,0.0882953762568439,0.0
21.038204,0.08815560662998369,0.0
21.040588,0.08843514588370409,0.0
21.042972,0.09830587998892813,0.0
21.045368,0.10403264297445829,0.0
21.047752,0.10775730521357156,0.0
21.050152,0.11427546413201979,0.0
21.052548,0.11907106155777161,0.0
21.054932,0.12065385342360783,0.0
21.057316,0.12144524935652594,0.0
21.059712,0.12116571010280552,0.0
21.0621,0.12726456014067314,0.0
21.064484,0.13056991349920577,0.0
21.066888,0.13401503648459864,0.0
21.069272,0.13038292204410243,0.0
21.071652,0.1253077853646302,0.0
21.07406,0.1219552101778544,0.0
21.076444,0.11632099499094133,0.0
21.078824,0.11483075092372218,0.0
21.08122,0.11010641221905575,0.0
21.083608,0.10738417426080618,0.0
21.085988,0.1051025342606689,0.0
21.088388,0.09851586443644583,0.0
21.090772,0.08792499311938906,0.0
21.093152,0.07933622254874914,0.0
21.095556,0.07076874105564089,0.0
21.097944,0.06434312993580968,0.0
21.100328,0.058569145122036405,0.0
21.102724,0.05572842661445829,0.0
21.105108,0.052096312173962066,0.0
21.107492,0.04953513292010437,0.0
21.109888,0.04660186661390919,0.0
21.112276,0.04781257142740794,0.0
21.114656,0.05381887366665849,0.0
21.117056,0.06862497482449455,0.0
21.119444,0.08529340710188726,0.0
21.121824,0.10103067381950165,0.0
21.124228,0.11490560941755941,0.0
21.126616,0.13064287613517378,0.0
21.128996,0.1486830719304571,0.0
21.131392,0.16672326772574048,0.0
21.13378,0.1807379729506584,0.0
21.13616,0.19598467206660677,0.0
21.138556,0.20708740006286125,0.0
21.140944,0.21711919287247716,0.0
21.143324,0.22298572548486753,0.0
21.145724,0.226850157350841,0.0
21.148112,0.22456851735070374,0.0
21.150492,0.22135571179078814,0.0
21.152888,0.21733022122042275,0.0
21.155276,0.21237356509027908,0.0
21.15766,0.20606643451977644,0.0
21.160056,0.19761743357599673,0.0
21.16244,0.18530400076624354,0.0
21.164836,0.16912613609051685,0.0
21.167235999999995,0.15201710585501185,0.0
21.16962,0.13490807561950682,0.0
21.172,0.11980114613041865,0.0
21.174396,0.10269211589491364,0.0
21.176784,0.0846519200996303,0.0
21.179164,0.06661172430434698,0.0
21.181568,0.05136502518839859,0.0
21.183956,0.03611832607245021,0.0
21.18634,0.025015598076195758,0.0
21.188736,0.014983805266579825,0.0
21.191124,0.009095983576657807,0.0
21.193508,0.003208161886735789,0.0
21.195904,0.0016040809433678946,0.0
21.198292,0.0,0.0
21.200676,0.0,0.0
21.203072,0.0,0.0
21.20546,0.0,0.0
21.207844,0.0,0.0
21.21024,0.0,0.0
21.212628,0.0,0.0
21.215008,0.0,0.0
21.217408,0.0,0.0
21.219796,0.0,0.0
21.222176,0.0,0.0
21.224572,0.0,0.0
21.22696,0.0,0.0
21.22934,6.851090577482482e-05,0.0
21.23174,0.0012079569981881802,0.0
21.234128,0.0032785686503798562,0.0
21.236508,0.006420115489210064,0.0
21.238904,0.013426094194013761,0.0
21.241292,0.02150300808545599,0.0
21.243676,0.029579921976898217,0.0
21.246072,0.03844823180125856,0.0
21.24846,0.04778117647657344,0.0
21.250856,0.06055734827941193,0.0
21.253252,0.08166299657627368,0.0
21.25564,0.12403809968969962,0.009743524714657165
21.25802,0.20989086142750918,0.017719303172787106
21.260416,0.3453239235433085,0.024332261811804885
21.262804,0.49355719435478856,0.031063844851543034
21.265188,0.6477910798319115,0.03838218148708553
21.267584,0.8266469953123744,0.04590309067731364
21.269972,1.0417182363940978,0.053264615898130786
21.272356,1.2894218063226979,0.060409575301796366
21.274752,1.5581663053581234,0.06745667331146037
21.27714,1.8345201436757395,0.07470737243076597
21.279524,2.120552037069868,0.0822248229244815
21.28192,2.4297629382283614,0.0898316377752493
21.284308,2.778216874950796,0.09717837828063665
21.286688,3.1518084900715064,0.10435745835833918
21.289083999999995,3.5327058683278456,0.11164375874946422
21.291468,3.9338036620719805,0.11899843056824157
21.293852,4.3666007232453445,0.12633092083035433
21.296248,4.827561276921795,0.1336020655813292
21.298636,5.29997535656931,0.14080784279212266
21.301032,5.7691823182305155,0.14792170782382327
21.303428,6.210883101268298,0.14525991656759601
21.305816,6.594534337807208,0.1444720585059104
21.3082,6.904812382436602,0.14538066872128438
21.310596,7.213044896207076,0.1460633734276654
21.312984,7.51793241822225,0.14604572723848322
21.315364,7.7838602356429405,0.1458732605738787
21.31776,7.997790134774386,0.14600894874260395
21.320148,8.16544508688637,0.14658281517189858
21.322528,8.304794881010539,0.1474093549888405
21.324924,8.44447522793241,0.14790726150193573
21.327312,8.573825893471708,0.14811830923980493
21.329692,8.67562126270147,0.1482745534753643
21.332092,8.728814718941269,0.14883101463102805
21.334476,8.752679303834853,0.14960506371961427
21.33686,8.774405810070897,0.15019746296691044
21.339256,8.760149308131155,0.15090429244330666
21.341644,8.697899089395001,0.15181623204262124
21.344024,8.608091678491443,0.15276768988005182
21.346424,8.519729185684726,0.15356010735799092
21.348812,8.427035730303214,0.1544384311375413
21.351208,8.337832723877467,0.1553515604752299
21.353604,8.257522064168922,0.15620866830135977
21.355988,8.202447318230881,0.15672696410580497
21.358372,8.142529753038842,0.15732512712018468
21.360768,8.086427502026666,0.157982241705602
21.363156,8.049178983777663,0.15853500959977443
21.365536,8.027061431910594,0.1589377734627887
21.367932,8.024825117880834,0.15904573425898605
21.370324,8.043913063927352,0.1588489121084994
21.372704,8.055876550719741,0.15879964443307185
21.375104,8.070960295273428,0.1586701823907058
21.377492,8.090235232775054,0.15844045638808968
21.379872,8.112350888784258,0.15813132540021096
21.382272,8.125154889195674,0.1579363739782706
21.38466,8.135817019233818,0.15778314018812384
21.38704,8.171620619385974,0.15729813204080373
21.38944,8.22963242334595,0.15651343691142944
21.391828,8.282708860253315,0.15580039904351953
21.394208,8.30975798745726,0.15550571775098299
21.396604,8.346862944363664,0.15512697454513558
21.398992,8.38629486724058,0.15476471095588756
21.401376,8.424236546050276,0.15443057763731088
21.403772,8.458872871501438,0.15412487360518956
21.40616,8.483453367250142,0.15391365163067544
21.408544,8.5022145522147,0.1537584194640594
21.41094,8.517949923074443,0.15362143864176994
21.413328,8.528238070202379,0.1535494438322959
21.415712,8.528190848374134,0.15358470017553072
21.418108,8.511150329044403,0.1538139884034554
21.420496,8.495739823408753,0.15399710447984166
21.42288,8.480234874116617,0.15424493794928562
21.425276,8.4611903581826,0.154595302471602
21.427664,8.446522130793756,0.15490413841524095
21.430048,8.45052443642872,0.15494054504793697
21.432444,8.453967663556243,0.15500321328512057
21.434832,8.456013194415167,0.15512986676335055
21.437216,8.45042240934076,0.15538471800313197
21.439612,8.448463738706849,0.15556892323303917
21.442,8.455818619528587,0.15554479065623086
21.444384,8.45218650508809,0.15561717936380973
21.44678,8.457401411394423,0.15553647034856988
21.449168,8.477841727739172,0.15523447276784497
21.451548000000003,8.500191597031723,0.1548767182956321
21.453956,8.532132661175773,0.1543965524452177
21.456344,8.570452114611415,0.1538531489468177
21.458728,8.611797382151867,0.15330523779330063
21.461128,8.667389672342715,0.15258891379617992
21.463516,8.731082913317847,0.15179036750838318
21.465896,8.799711521345593,0.150923981509362
21.468296,8.870342230119753,0.15004210055299844
21.470684,8.940833169267053,0.14917714083966882
21.473068,9.019192741773162,0.1482155660414199
21.475468,9.09988117610765,0.1471859190593175
21.477852,9.17000192406048,0.1462411446366898
21.480236,9.233559187124493,0.1453094770219208
21.482636,9.287292937911522,0.1444798637301999
21.485024,9.341585767205991,0.1436254190716653
21.487404,9.394947430940684,0.14278142303416824
21.489808,9.450311195421792,0.14191590176177027
21.492196,9.504604024716262,0.1410633631235046
21.494576,9.552424021062656,0.14035214110367444
21.496972,9.595773285207395,0.13975563382289344
21.49936,9.640425801964248,0.13916705198840337
21.50174,9.675394576070984,0.13865935586832312
21.504144,9.700679607527595,0.13823348217627843
21.506532,9.724102307864651,0.13783053054777902
21.508912,9.740727310029538,0.137507525629455
21.511308,9.752464166970057,0.13721133957863713
21.513696,9.761314979432624,0.13691751203412558
21.51608,9.762204610737767,0.13668532337923092
21.518476,9.762210298311373,0.13643324876384105
21.520864,9.759562258832506,0.1362027939506874
21.523244,9.755144436032701,0.13601314936044293
21.52564,9.752541722524207,0.13583614043853665
21.528028,9.757341111665696,0.13562283005524103
21.530408,9.768239350845054,0.1353686231965238
21.532804,9.78537620968914,0.1350704787880563
21.535192,9.806097961145479,0.1347465961837797
21.537572,9.824677842228539,0.13445067273586353
21.539968,9.84525982405802,0.13413290869162764
21.542356,9.867891128462158,0.1337674267477083
21.544736,9.888427784321264,0.13340235875534098
21.547136,9.906730022008473,0.13304084530894714
21.549524,9.92554411637488,0.132683391483651
21.551904,9.94938612559252,0.13229913074568583
21.554304,9.9713658036906,0.1319325204127121
21.556692,9.993345481788682,0.1315679404894681
21.559072,10.013555376565822,0.13124168760308746
21.561468,10.034229906193916,0.13095225332784227
21.563856,10.062446308098856,0.13062383225473428
21.56624,10.089544552988913,0.13033962098934787
21.568636,10.114361157878834,0.13008849837550376
21.571024,10.142762655381008,0.12981348786756675
21.573404,10.165529937696268,0.12961124891892187
21.575804,10.184712327399275,0.1294363535574383
21.578192,10.199937737437692,0.12927509410673216
21.580572,10.203709621505048,0.1292159011097472
21.582972,10.201754742586875,0.12920757556040058
21.58536,10.200311720347898,0.12920720522060947
21.58774,10.20007940292242,0.12918888960944147
21.59014,10.195842884004108,0.12921091940087318
21.592528,10.186670998033184,0.12928079064234918
21.594908,10.174378854300963,0.1294129780011924
21.597308,10.167673703927411,0.129500071549
21.599696,10.157383660941607,0.12961229411625474
21.60208,10.14457966053019,0.12973710759625523
21.604472,10.126560753812438,0.12992143819120008
21.606856,10.110264408587383,0.13009674643937952
21.609252,10.09331643705627,0.13027001027981386
21.611656,10.072551255487426,0.13044904597481205
21.614044,10.047037698321077,0.13064383494842802
21.616424,10.017939248542472,0.130865420987101
21.61882,9.98004099984528,0.13117419358683047
21.621208,9.949639297454558,0.13139328518450333
21.623588,9.91751503357114,0.1316229997131102
21.625983999999995,9.886973561553559,0.13184629694371783
21.628372,9.86588351476062,0.13198658886039794
21.630752,9.851543944311608,0.1320905882759973
21.633156,9.836133438675958,0.1322080357696495
21.635544,9.820722933040308,0.13232436412266438
21.637928,9.807733837031655,0.13240338526171636
21.64032,9.80047150400853,0.1324307848802671
21.642708,9.800286408411296,0.1323830906951161
21.645088,9.80159155688128,0.13230708778465555
21.647492,9.808950229418762,0.132141618090776
21.649876,9.819661477143017,0.1319328866828497
21.652256,9.839731602293297,0.13162100574319954
21.654652,9.865016633749908,0.1312531131872246
21.65704,9.89393377964702,0.13083326900637832
21.65942,9.92233906886493,0.13040619712712018
21.661824,9.958612991441651,0.12990622618707598
21.664212,10.002615777750314,0.12933875450221421
21.666592,10.05383557111173,0.1286902287355575
21.668996,10.106033751861165,0.12801346176807712
21.671384,10.161352190371902,0.12727924868054472
21.673764,10.213132958098628,0.12654220857261023
21.676156,10.262167450974262,0.12580546118333377
21.678544,10.307152416386689,0.12505978942216642
21.680924,10.355397409187274,0.12425219801446989
21.683328,10.399964961576991,0.12344624777463917
21.685712,10.441227160608172,0.12265645652242685
21.688092,10.47997540221374,0.12188063875692412
21.690496,10.517699930460912,0.12109520247503923
21.69288,10.552119105349549,0.12032657455979881
21.695264,10.579321273185437,0.11963235639109575
21.697668,10.606802980275045,0.11893258331728522
21.700052,10.626695593259573,0.11829278715542958
21.702432,10.641700061019728,0.11767020712033005
21.704836,10.65433034098113,0.11705440873064535
21.707224,10.669242260942665,0.11641374937408894
21.709604,10.678055330866336,0.11580381947048043
21.712008,10.679698615565501,0.11523359546637775
21.714396,10.682040748398965,0.11464178931948318
21.716776,10.67781750048574,0.11411826955280614
21.71918,10.669310511825959,0.11363677007056129
21.721568,10.664248646151572,0.1131411957590197
21.723948,10.655834205290407,0.11268101633321692
21.726344,10.644718815548526,0.11225882824539536
21.728732,10.628108980246594,0.11189274385882922
21.731112,10.610660527183498,0.1115534700102749
21.733508,10.591721830053183,0.1112375921627676
21.735892,10.570501492922732,0.1109464797698469
21.738276,10.544717875792006,0.11070593938775303
21.740672,10.517164475340339,0.11049883049501742
21.74306,10.49054224044845,0.11028523680767795
21.74544,10.461498595929566,0.11010116156261673
21.747844,10.434037743276518,0.1099144207973605
21.750228,10.405318963981726,0.1097698650815478
21.752608,10.374550862112274,0.10966856097291769
21.755004,10.33866040173511,0.10963731387490956
21.757392,10.304445281022396,0.10962682239055836
21.759776,10.275118305534056,0.10960585357535617
21.762172,10.241460367470914,0.10965380033122779
21.76456,10.213249653139579,0.10967284707902501
21.76694,10.185922882539783,0.10971471432659076
21.769336,10.157477954925104,0.10979419294189979
21.771724,10.135411416602015,0.10983838724470994
21.77412,10.120374893876571,0.10985238242847295
21.776516,10.108503954882801,0.10986361261456667
21.778904,10.101428613314782,0.10984210093784402
21.781284,10.097658625105295,0.10981278915886962
21.78368,10.10226912693381,0.10973395752311804
21.786064,10.114189183613695,0.10961647534630153
21.788444,10.129694132905831,0.10948199710064034
21.79084,10.147573269996723,0.10934555950292789
21.793228,10.165405185259374,0.10923685397277647
21.795608,10.185331749067057,0.10913597947619776
21.798012,10.20991414067363,0.10900805158977353
21.8004,10.2362190937729,0.1088733376547158
21.802784,10.268670118738282,0.10868657126962412
21.80518,10.300981374076802,0.10850442342564814
21.807564,10.332221694228682,0.10833368663696984
21.809944,10.369608086246675,0.10811189132953232
21.812344,10.403130046398694,0.1079167977290534
21.814732,10.438793876923992,0.10770091737585609
21.817128,10.472083519650534,0.10748650232870584
21.819524,10.500158256070744,0.10731965333462455
21.821912,10.526510430998256,0.10716068734787178
21.824292,10.554864706672188,0.10698674935959152
21.826688,10.584662004585093,0.10681856970777022
21.829076,10.616461403244417,0.10663662104727034
21.831456,10.640531938171794,0.10650694281083589
21.833856,10.655942443807444,0.10643320109239529
21.836244,10.672843193510314,0.10633694354067673
21.838624,10.696449093586734,0.10617625603736383
21.84102,10.72024198511826,0.10598379936383819
21.843408,10.742079997731611,0.10577947504171656
21.845788,10.763545923292625,0.10556380928911135
21.848184,10.788643963294135,0.10530774645305221
21.850572,10.809086175496754,0.10507683650781896
21.852952,10.834091667699647,0.10480143915004578
21.855352,10.858725072850202,0.10451383020455518
21.857736,10.880053124642226,0.10423411074135706
21.860132,10.9068756219943,0.10390542827794971
21.862528,10.935328133040455,0.1035519414494791
21.864916,10.967272988900246,0.10316320842027012
21.8673,10.999776923267477,0.10275621256897023
21.869696,11.028975504276177,0.10235531697860367
21.872084,11.05808153748626,0.10193498834040582
21.874464,11.08323059103175,0.10151760228713541
21.87686,11.10614522640535,0.10109844123838925
21.879248,11.132691976219443,0.1006402243530298
21.881632,11.163941775660671,0.10013243158370522
21.884028,11.191606682489647,0.09964070764340986
21.886416,11.206839675959541,0.09924246307868996
21.888796,11.222864065362353,0.0988445896736814
21.891192,11.238748685138303,0.09845103906201268
21.89358,11.248766772301863,0.09809183147550639
21.895976,11.254920427599451,0.09775534665761405
21.89838,11.264286888456956,0.09739343278312433
21.900764,11.267135190396012,0.09706188714657002
21.903144,11.267189995655732,0.09674237631871388
21.905544,11.267105031288594,0.09642751203720423
21.907932,11.26287609580176,0.09614260280906897
21.910312,11.256784829195366,0.09586636123212214
21.912712,11.2473409874022,0.09561894210057047
21.915096,11.241901347101864,0.09534759867227854
21.91748,11.238324037921089,0.09506809820212404
21.91988,11.23167369280726,0.0948087083300055
21.922267999999995,11.225535204372624,0.0945579560037902
21.924648,11.218465550378214,0.09431093615373133
21.927044,11.210045421943443,0.09408051957544583
21.929432,11.203208085374508,0.09385126858078477
21.931812,11.195020274365215,0.0936378229250235
21.934212,11.191116204102475,0.09339159557087745
21.936596,11.188422838653233,0.09313357531887502
21.93898,11.188522969883326,0.09286479522029428
21.941376,11.194489633725809,0.09256526922790437
21.943764,11.199105823127931,0.09228149833167974
21.946144,11.203162934022615,0.09201524651050824
21.948544,11.207592131969635,0.09176121400343043
21.950928,11.212393416968995,0.09151939243412598
21.953312,11.217706558647551,0.09128696854235718
21.955708,11.223950865885888,0.09105099651254471
21.958096,11.226702828310588,0.09084652738128325
21.96048,11.23797505040015,0.09060673011415402
21.962883999999995,11.24538284062374,0.09038633985854191
21.965272,11.249717594914273,0.09018457059817371
21.967652,11.257217932936483,0.08998555881218087
21.970051999999995,11.264206414279489,0.08977774699132207
21.972436,11.269704651555278,0.08958979568232045
21.97482,11.273852414390712,0.08941776832676099
21.977216,11.27320457980039,0.08926727973121296
21.979604,11.274558845956486,0.08910557103377865
21.981984,11.276052881739442,0.0889395996372167
21.98438,11.274613651216203,0.08878808493605772
21.986772,11.272522794386907,0.08863212234659337
21.989152,11.268057749758857,0.08847396460025186
21.991556,11.266014114757803,0.08829251094649203
21.993944,11.264809097517913,0.08808682094854824
21.996324,11.2669566554648,0.08785496168962934
