Time,Force,Position
21.814428,0.0,0.0
21.816824,0.00409877980827339,0.0
21.819228,0.00926849480318531,0.0
21.821616,0.01723170647743219,0.0
21.823996,0.024543291845621172,0.0
21.8264,0.029713006840533095,0.0
21.828784,0.03180968590238963,0.0
21.831168,0.0349773001508847,0.0
21.833564,0.04000724551893641,0.0
21.835952,0.04797045719318329,0.0
21.838332,0.05900670480048555,0.0
21.840728,0.06911178684800949,0.0
21.843116,0.07921686889553343,0.0
21.845496,0.08731985019664054,0.0
21.847892,0.09542283149774763,0.0
21.85028,0.10180325130615829,0.0
21.85266,0.10911483667434727,0.0
21.855056,0.11228245092284232,0.0
21.857444,0.11572960442505782,0.0
21.859824,0.12010792348705164,0.0
21.86222,0.12355507698926713,0.0
21.864608,0.12076158030993216,0.0
21.866988,0.11689714844395867,0.0
21.869388,0.10893393676971179,0.0
21.871776,0.1016223514015228,0.0
21.874156,0.09645263640661088,0.0
21.876552,0.09435595734475434,0.0
21.87894,0.0924936262251977,0.0
21.88132,0.0909108343593615,0.0
21.883716,0.08294762268511462,0.0
21.886104,0.07191137507781237,0.0
21.8885,0.061806293030288416,0.0
21.890896,0.05170121098276447,0.0
21.893284,0.04359822968165737,0.0
21.895664,0.03549524838055028,0.0
21.898068,0.029114828572139616,0.0
21.900456,0.021803243203950634,0.0
21.902836,0.01863562895545557,0.0
21.905232,0.015188475453240077,0.0
21.90762,0.010810156391246266,0.0
21.910004,0.007363002889030775,0.0
21.9124,0.006057719760092346,0.0
21.914788,0.004752436631153918,0.0
21.917168,0.004752436631153919,0.0
21.919568,0.004752436631153919,0.0
21.921952,0.004752436631153919,0.0
21.924332,0.004752436631153919,0.0
21.926736,0.0034471535022154907,0.0
21.929124,0.0,0.0
21.9315,0.0,0.0
21.933896,0.0,0.0
21.936284,0.0,0.0
21.93868,0.0,0.0
21.941076,0.0023289964873338077,0.0
21.943464,0.007496815624376485,0.0
21.945848,0.0210432289415548,0.0
21.948244,0.04259425352866203,0.0
21.950632,0.0807608009913111,0.0
21.953012,0.15151055961472443,0.00858575507807919
21.955416,0.26103682309325593,0.01626844027679296
21.957804,0.39723633500765665,0.023651504158268846
21.960184,0.5492618697225503,0.031053395461100905
21.96258,0.7060300924613448,0.039164387159929384
21.964964,0.8815538125910892,0.04758483812343784
21.967344,1.0896154179112238,0.05572164115400618
21.969748,1.327423307600283,0.06354455960785156
21.972136,1.5819883856496133,0.0713315330277869
21.974516,1.852564582096671,0.07919241930163223
21.976912,2.1463670081363357,0.08708754238373102
21.9793,2.4719159234334724,0.09486097344769467
21.981684,2.8302369372043463,0.10243938171063895
21.98408,3.2102505063881033,0.10992645698194435
21.986468,3.6001763439317207,0.11754100861263933
21.988848,3.997823327116855,0.1253719663483174
21.991244,4.425635903551494,0.13305786255630994
21.993632,4.860943130434736,0.14070702687350362
21.996012,5.297649949444448,0.14827519035504744
21.998416,5.719558250727801,0.15576518272951176
22.000804,6.099526359282233,0.15471617826432185
22.003184,6.433268638503321,0.1546566018216418
22.00558,6.737496950780962,0.15496283252310736
22.007968,7.031765772870499,0.15517152313751134
22.010348,7.329674292832009,0.15448511076956153
22.012748,7.607618506446941,0.15342150838794122
22.015136,7.845715280020115,0.15271821445275924
22.017516,8.051597137769123,0.15240749379683785
22.019912,8.24533041312851,0.15211205797525185
22.0223,8.426544914903808,0.1516807168458915
22.02468,8.589515775967351,0.1511199827526497
22.02708,8.716316637400007,0.15075180474643715
22.029468,8.805642350731791,0.15066321685919276
22.031864,8.875090617942009,0.15067723108255934
22.03426,8.938491048658337,0.15051575887131222
22.036644,8.99216809832778,0.1500936910449958
22.039028,9.004088155007665,0.14989688750452942
22.041424,9.007956378589377,0.1496669194722503
22.043812,9.007588083252777,0.14947467533168776
22.046192,8.99809322791563,0.1494368199059315
22.048592,8.985245797391709,0.14945689539828702
22.05098,8.973888610935004,0.14944285967755114
22.05336,8.966395856344272,0.14937864211160487
22.055764,8.952570038432324,0.1494460367048506
22.058152,8.93352741835618,0.14967983365157986
22.060532,8.914622672049024,0.14999902816430008
22.062932,8.903818876526154,0.15023666247359851
22.065316,8.898789065817057,0.15036985282751314
22.0677,8.895761355854374,0.1504733400007191
22.070096,8.887890826637696,0.15066844211833028
22.072484,8.869078628129158,0.15101114841662044
22.074864,8.849289938090465,0.15131109261021078
22.07726,8.83513546323869,0.15151506943725748
22.079652,8.817256326147797,0.15176435881171293
22.082032,8.8023104553631,0.15196933826713413
22.084428,8.796396700922465,0.1520766055936584
22.086816,8.801005306893115,0.15205623792621986
22.0892,8.795371091706201,0.15215151539007715
22.091596,8.784754287638435,0.1523427882575572
22.093984,8.793132881818568,0.15233958851914928
22.096368,8.820319882791503,0.1521786460393214
22.098764,8.853745503429167,0.15195366979417538
22.101152,8.891874173693967,0.15164773490108155
22.103536,8.941084282877489,0.15119742578928994
22.105932,8.993646967247784,0.15070223428109447
22.10832,9.050213853110915,0.15015675468113193
22.1107,9.10696773042915,0.14957769262405535
22.113104,9.159113001776737,0.14902019268868893
22.115492,9.203995940101198,0.14851095120630808
22.117876,9.250741209545216,0.14797969362161806
22.120272,9.303445559400245,0.14739598801187706
22.12266,9.364622947091894,0.14674667737080263
22.125044,9.420864967730932,0.1461551974187219
22.127448,9.485534700236217,0.14544534635688589
22.129836,9.545501383114367,0.14482880865247547
22.132216,9.592244756700515,0.14439459515359257
22.134612,9.63456461991325,0.1440289307774263
22.137,9.679213344954366,0.14359346443812876
22.13938,9.723584426599633,0.14308121736906568
22.141776,9.75668897372894,0.14267079586801845
22.144164,9.791470756380571,0.1422044337504846
22.146544,9.826951387166503,0.1417124382718979
22.148948,9.850885944182759,0.14131758521120383
22.151336,9.860248613324522,0.14102986917671692
22.153716,9.864164058734476,0.14079259840146638
22.156112,9.86891812190559,0.14052465642119483
22.1585,9.872181941009487,0.14028743188489093
22.16088,9.876376925673167,0.14004123442605043
22.163276,9.880432140709981,0.13980012201025793
22.165664,9.889562492426268,0.13950169642242938
22.168044,9.902277736754804,0.1391760179313765
22.170444,9.910756462165034,0.13887761710582586
22.172832,9.920912423097583,0.1385121920402842
22.175212,9.91845137507382,0.13824972827546725
22.177608,9.91496661369166,0.13797266212796075
22.179996,9.921632125668447,0.1375800141459361
22.182392,9.931278125779668,0.13712677146965202
22.184788,9.938130629211557,0.136697597075509
22.187172,9.944284284509143,0.13629513856869066
22.189556,9.94731768204543,0.13595708860949385
22.191952,9.94243522439467,0.13573337721110879
22.19434,9.938483932303688,0.13550173567247215
22.19672,9.93732613689204,0.13524332890340193
22.199124,9.938123220398566,0.13499078826627187
22.201512,9.941434261330707,0.13472537262352896
22.203892,9.94204435338213,0.13450993876058007
22.206288,9.94470376800821,0.13424400908758508
22.208676,9.94377829002204,0.13400412574002024
22.21106,9.945134452036006,0.13373212352607705
22.213456,9.943045491064579,0.1334836495288189
22.21584,9.93914142080184,0.13322317710966947
22.21822,9.938310386472157,0.13292874484398817
22.220628,9.940085857366704,0.13264449269416193
22.223016,9.94553876867212,0.13235510984506535
22.225396,9.952062615164177,0.13205370834114827
22.227792,9.954302720909679,0.13180723832663546
22.23018,9.954633273707381,0.13160485802318353
22.232564,9.954916604676843,0.13143036922193027
22.23496,9.95492039639258,0.13126610422659593
22.237348,9.963771208855148,0.13098775398505738
22.239728,9.976673444638791,0.1306408690315536
22.242124,9.982358673369687,0.1303730312636099
22.244512,9.990138550645614,0.13010718615939562
22.246896,10.000991463854596,0.1298072209013891
22.249292,10.009749728518546,0.1295061608618524
22.25168,10.015062870197104,0.12922493482304082
22.25406,10.01776761079356,0.12901453729824766
22.256456,10.025080957360666,0.12879423917850966
22.258844,10.031276146912889,0.12861641950090597
22.26124,10.036540170905335,0.12844703043680405
22.263636,10.037240914897504,0.1283391157466816
22.266028,10.032167674075902,0.12831065947611328
22.268408,10.028677225120134,0.12827752684395252
22.270808,10.038829394336949,0.12809168013788286
22.273192,10.049261102807483,0.1278970140833739
22.275576,10.059180954598817,0.12769541226536196
22.277972,10.074827569375687,0.12744657113595817
22.280356,10.097691191205302,0.12712294899603616
22.28274,10.125118093035193,0.12674203346795587
22.285136,10.144024735200217,0.12643233989683267
22.28752,10.15622622699169,0.1262057883682158
22.2899,10.176668439194309,0.12592068759932348
22.292304,10.203256723263038,0.12557607090180142
22.294692,10.234268517705182,0.12518341577069603
22.297076,10.263417981027768,0.12480594795612995
22.299472,10.299085603268804,0.12438291632221796
22.30186,10.336383239203919,0.12392843798441659
22.304244,10.374519492900195,0.12344608744629038
22.30664,10.411259946185737,0.12293427996999827
22.309024,10.447628312418942,0.12241206404028063
22.311408,10.487489023465782,0.12184422818926226
22.313812,10.533915115259317,0.12120143744267114
22.3162,10.579457263321315,0.12054131608353667
22.318584,10.611031927986637,0.11998848450366381
22.32098,10.636879829666432,0.11947930222355177
22.323368,10.660074004293751,0.11898552444508062
22.325748,10.677960724816119,0.1185225639206364
22.328144,10.691471156793316,0.11808414345834882
22.330532,10.703259027277817,0.11765637729602757
22.332912,10.719051099255152,0.11719459270364302
22.335312,10.73940645123276,0.11667951236980839
22.337696,10.755944593172636,0.11616804095911668
22.34008,10.76438178432823,0.11570301719880903
22.342476,10.76215684544568,0.11531812656002402
22.344864,10.75699864025694,0.1149545466547172
22.347244,10.745741585030329,0.11461866614400097
22.349644,10.73262219868416,0.11429405665755175
22.352028,10.71619745897946,0.11397809750470468
22.354412,10.701635050394318,0.11364975146950826
22.356808,10.686932872182316,0.11332587801074408
22.359196,10.671159758783674,0.11301203073332332
22.361592,10.652313609451975,0.1127244754963307
22.363988,10.629975115306642,0.11247647774952811
22.366376,10.609871039333202,0.11222915063505037
22.368756,10.592700229665956,0.11195913345098465
22.371156,10.574318715185212,0.11170320546426468
22.37354,10.55551789182389,0.11146065296936558
22.375924,10.534435428462428,0.11124280093034902
22.37832,10.506787584354276,0.11109188451811323
22.380708,10.476206473939932,0.1109618095511787
22.383088,10.442412557965667,0.11086186956692844
22.385484,10.411784225723078,0.11075713910746837
22.387876,10.386183808331717,0.11063709855320762
22.390256,10.366961780231945,0.11048231379831952
22.39266,10.349462313624867,0.1103205086364195
22.395048,10.333266099629906,0.11016593744512657
22.397432,10.317581742314141,0.11001970716129485
22.399828,10.305574825409249,0.10987858659999516
22.402216,10.291937894810273,0.10976668573010576
22.4046,10.274808619397664,0.10969522800862289
22.406996,10.259541675104614,0.10961211552230068
22.409384,10.243715652304122,0.10954795786180281
22.411768,10.230683126182964,0.1094669490638694
22.414164,10.21909362230078,0.10938910844410235
22.416552,10.20694503991116,0.10933029994302088
22.418932,10.199032976439845,0.10925809287041605
22.421332,10.19312301371495,0.10916983147612278
22.42372,10.19051840434859,0.10907373092781739
22.426104,10.196061967594755,0.10890903753413918
22.4285,10.203979718639674,0.10874228839731678
22.430892,10.21441142711021,0.10856867333838112
22.433268,10.222561495580607,0.10842109222279725
22.435664,10.229500859237504,0.10828917892092584
22.438048,10.236300453267543,0.10816250243564934
22.440428,10.247616105469612,0.10801397287124155
22.442836,10.260654319164377,0.10785968484616995
22.44522,10.2755548639787,0.10769483829428857
22.4476,10.289664012860104,0.10753133898110426
22.449996,10.306706428047702,0.1073476728798401
22.452384,10.328544440661055,0.10713256509715413
22.454764,10.353175949953739,0.10690431257630498
22.457168,10.378086998500146,0.10666625862940804
22.459552,10.405931313352747,0.10640968198117685
22.461932,10.434055167459071,0.10614478967112359
22.464328,10.468185323804645,0.10583721110957692
22.466716,10.50180362347102,0.10552265966338419
22.469112,10.536073549443453,0.10521352652903102
22.471516,10.574906755416158,0.10486065556373556
22.4739,10.61173786064245,0.10452560783316205
22.47628,10.647637800308962,0.1041963072502626
22.478684,10.684888214415835,0.10385085911629402
22.481072,10.721906311097229,0.10348805705974673
22.483456,10.758692090353145,0.10310887575269505
22.485852,10.796036948116503,0.10271382863684975
22.48824,10.833009718827524,0.10230926428307006
22.49062,10.87347483435218,0.10187251539872734
22.493016,10.914499028384277,0.10142040445851436
22.495404,10.95328880424448,0.10096498885281546
22.497784,10.990635557865705,0.1005079258586943
22.500188,11.027749994061455,0.10003638543031663
22.502576,11.059789293577733,0.09960272451595806
22.504956,11.096763960146623,0.09914110853934885
22.507352,11.131876295595955,0.09869145962328495
22.50974,11.163683277686754,0.09824627689676108
22.51212,11.192045136792162,0.09781371835422217
22.51452,11.21961559996465,0.09738265039958609
22.516904,11.246953745711663,0.09693588768767995
22.519284,11.265352322913229,0.09654478251501979
22.521684,11.2808176338086,0.09617036523406416
22.524068,11.29670225358455,0.0957836964007498
22.526452,11.308582671867667,0.09542229170769312
22.528848,11.320974946829985,0.09506991984013174
22.531236,11.33201674735194,0.09473456681776438
22.533616,11.339845742313981,0.09442408320725623
22.53602,11.344601701342969,0.09413464245784305
22.538408,11.340138552572787,0.09390570654992311
22.540788,11.331531432682912,0.09370470630594328
22.543192,11.325438270218653,0.09350038987649259
22.545576,11.317854863687174,0.09331665806736517
22.547956,11.307570508274974,0.09316580331870263
22.55036,11.295423821743219,0.09302220918226728
22.552748,11.276339667412438,0.09291784347744966
22.555128,11.254462016402318,0.0928244653742823
22.557528,11.236681114683652,0.09272866805316217
22.559912,11.213545537031791,0.0926724918283916
22.562296,11.191061585685992,0.09262048747053979
22.564692,11.16680785101925,0.09259702708386947
22.567076,11.14828087933804,0.0925467411191327
22.569456,11.131476469149526,0.09249308903728129
22.571852,11.113461354147512,0.09245123357417877
22.57424,11.099310671011471,0.09239014473499767
22.57662,11.084228822315655,0.09233253700559108
22.579016,11.070217908806473,0.09226682184507784
22.581404,11.05914026160349,0.09218574877822772
22.583784,11.0497851758932,0.0921014769449573
22.586184,11.046296622795298,0.09198674722196225
22.588568,11.049605767869568,0.09183844726138696
22.590968,11.049050481077867,0.09170864124259985
22.593368,11.05170799984608,0.0915556987975522
22.595756,11.054924597121733,0.09138579921116273
22.598136,11.062564704770802,0.09118059814776336
22.60054,11.07649065391284,0.09093361973198147
22.602928,11.092278934174438,0.09067959804045714
22.605312,11.105832796264137,0.09042011496912199
22.607704,11.124601564660171,0.09012593616002958
22.610092,11.142858476377004,0.0898237253141572
22.612476,11.160743301041501,0.08950771340612809
22.614872,11.178628125706,0.0891936120877968
22.61726,11.199074129624355,0.08885334581045785
22.61964,11.222732939102626,0.0884917631291389
22.622036,11.243598251901561,0.08814131009141829
22.624424,11.267536600633555,0.08777379595237811
22.626804,11.28961261824599,0.0874129001273008
22.629204,11.30982630473887,0.08705927513457619
22.631588,11.325663702686576,0.08671330633670915
22.633968,11.33912691283553,0.08636503286812465
22.636368,11.34872569111851,0.08603550940821288
22.638752,11.362328670894323,0.08568498662483544
22.641132,11.373138153990801,0.08534492068287967
22.643532,11.38273693227378,0.08501571524682897
22.645916,11.38991430092976,0.0847096265650511
22.6483,11.389874662532995,0.08444557511002165
22.650696,11.38876408894959,0.08418859752558683
22.65308,11.387094436858744,0.08394768486050014
22.65548,11.382491518461704,0.08371987036494419
22.657876,11.375606960064525,0.08351001297082987
22.660264,11.371376128719824,0.08329514511371623
22.662648,11.359556203270033,0.08310758306157873
22.665044,11.346385803379883,0.08293533519731597
22.667432,11.33121330274332,0.08277289042048071
22.669816,11.318042902853172,0.08260044487277139
22.672212,11.29979736628355,0.08245411463121158
22.6746,11.282482995273707,0.08230443811252684
22.67698,11.26703095538342,0.08214886626006461
22.679376,11.255163808105388,0.08198548432196864
22.681764,11.248604114932306,0.08181355645821455
22.684144,11.238179989893249,0.08165624562586958
22.686544,11.226684929667552,0.08150568540297468
22.688932,11.212908229441718,0.08137222557312876
22.691312,11.20220456514894,0.08122224680309027
22.693708,11.192571836042802,0.08106532615183772
22.696096,11.188154013242993,0.0808783245332433
22.69848,11.188671557495798,0.08067041109283475
22.700884,11.191610511375604,0.08044130197137185
22.703272,11.200276228240938,0.08019315954979683
22.705652,11.209733341039186,0.07994591970333838
22.708052,11.21704858346416,0.07971215731977678
22.71044,11.23153361111364,0.07946478505876649
22.71282,11.240152106150731,0.07924055537701372
22.715216,11.247140587493742,0.0790390573972966
22.717604,11.251847428836616,0.07885506569102511
22.719984,11.263491737978516,0.078641405581339
22.722388,11.277650004546032,0.07842858492761624
22.72478,11.287524530366996,0.0782417696553226
22.72716,11.298981848053794,0.07805848982436592
22.729556,11.3045726331282,0.0778988296344336
22.731948,11.315610641934418,0.07772798217374963
22.734328,11.327020737792973,0.07757089177880988
22.736728,11.34415759663706,0.07739510043126957
22.739116,11.359943981040788,0.07723430184333932
22.741496,11.377452926937213,0.0770733093148482
22.743892,11.396125355818892,0.07692833780411526
22.74628,11.407720547274684,0.0768162926544346
22.74866,11.417406185782674,0.07673443062151168
22.75106,11.420945752424553,0.07668266875544207
22.753444,11.43156255649232,0.07659953313200805
22.755828,11.44497285723942,0.07650969498733685
22.758224,11.456008970187773,0.07641529887257531
22.760612,11.476636277987625,0.07629064668774838
22.762992,11.499545225787616,0.07614988917124277
22.765388,11.523385339147383,0.07600689753829622
22.767776,11.542290085454537,0.07588387616287066
22.77016,11.561194831761696,0.07576154990542516
22.772556,11.584243549188544,0.07561858946177195
22.774944,11.604359000309197,0.07548636284885649
22.777324,11.62540561698963,0.07535165657944543
22.779724,11.642587801804087,0.07522973146910764
22.782108,11.659537669193071,0.0750910564326533
22.784492,11.67141239990258,0.0749750874742691
22.786888,11.682216195425454,0.07486509703060883
22.789276,11.689807185388409,0.07477335044416662
22.791672,11.693021886806193,0.07468490723692094
22.794068,11.697447293037479,0.0745862225678384
22.796452,11.701640381843285,0.07447034023491275
22.798836,11.707975341022367,0.07434221929227013
22.801232,11.703368630909589,0.0742574225325696
22.80362,11.696108193744335,0.0741752448207694
22.806,11.692572418818195,0.0740846241381384
22.8084,11.683030341652804,0.07401829457757463
22.810788,11.672557098927635,0.07395398326113754
22.813168,11.661432229896407,0.0738839626781351
22.815568,11.65002782161146,0.07382145868787335
22.817956,11.636109455900899,0.07375738083190167
22.820336,11.622330859817197,0.0736893631636888
22.822732,11.60897157261407,0.07360974875515959
22.82512,11.598685321344005,0.07351641731771547
22.827504,11.594684911566912,0.07339223468859055
22.8299,11.590404962536095,0.07327563283201927
22.832288,11.590688293505554,0.07312853676520761
22.834668,11.595395134848427,0.07295519323413933
22.837064,11.602663155445159,0.07275927385955856
22.839452,11.611002111228526,0.07255739701554809
22.841836,11.619201297385036,0.07235875920330113
22.844232,11.634058412086855,0.07214439175090082
22.846624,11.650126231602172,0.07192128737880912
22.849004,11.673131518916518,0.07167349291392656
