Time,Force,Position
23.955284,0.0739596097483234,0.0
23.957672,0.07181773937504633,0.0
23.960056,0.07274890493482467,0.0
23.962452,0.07181773937504636,0.0
23.96484,0.06674260269557414,0.0
23.967224,0.06217932269529959,0.0
23.969628,0.0574289165809683,0.0
23.972012,0.04988501378730204,0.0
23.974396,0.043272276553414105,0.0
23.9768,0.0377304745061647,0.0
23.979184,0.03419077320533216,0.0
23.981568,0.03144246783741772,0.0
23.983964,0.025900665790168323,0.0
23.986352,0.022360964489335777,0.0
23.988732,0.01975242874828155,0.0
23.991128,0.01821482819386585,0.0
23.993516,0.015606292452811622,0.0
23.995896,0.014068691898395927,0.0
23.998292,0.012531091343980226,0.0
24.00068,0.00913115967000789,0.0
24.003064,0.00615053687661618,0.0
24.00546,0.005032245202781112,0.0
24.007848,0.002843018342307513,0.0
24.010228,0.0014451874147520252,0.0
24.012624,0.0011182916738350678,0.0
24.015012,9.457831543968742e-05,0.0
24.017396,0.002191257377296226,0.0
24.019792,0.004148166812292554,0.0
24.02218,0.006384615501009303,0.0
24.02456,0.0066189634433092,0.0
24.026956,0.0066189634433092,0.0
24.029344,0.0066189634433092,0.0
24.031728,0.0066189634433092,0.0
24.034124,0.0066189634433092,0.0
24.036512,0.0066189634433092,0.0
24.038892,0.0066189634433092,0.0
24.041288,0.0066189634433092,0.0
24.043676,0.0068533113856090976,0.0
24.046056,0.008158594514547526,0.0
24.048452,0.009463877643485955,0.0
24.05084,0.010908930399284592,0.0
24.053236,0.0112830479684447,0.0
24.055636,0.011517395910744598,0.0
24.058024,0.011517395910744598,0.0
24.060404,0.011517395910744598,0.0
24.0628,0.011422817595304911,0.0
24.065188,0.009326138533448373,0.0
24.067568,0.007369229098452045,0.0
24.069968,0.005132780409735295,0.0
24.072356,0.004898432467435398,0.0
24.074736,0.004898432467435398,0.0
24.077132,0.008717673021988368,0.0
24.07952,0.012257374322820916,0.0
24.0819,0.014865910063875144,0.0
24.084296,0.01626374099143063,0.0
24.086684,0.01980344229226318,0.0
24.089068,0.022551747660177618,0.0
24.091464,0.02399476989915363,0.0
24.093852,0.02315615213799237,0.0
24.096236,0.02231753437683111,0.0
24.09864,0.020872481621032474,0.0
24.101028,0.020825259792789323,0.0
24.103408,0.021057577218266593,0.0
24.105812,0.02259517777268229,0.0
24.1082,0.025063943886876307,0.0
24.110584,0.025670378881513686,0.0
24.11298,0.026276813876151068,0.0
24.115368,0.027954184057426976,0.0
24.117748,0.028700388678924563,0.0
24.120144,0.028700388678924563,0.0
24.122532,0.028700388678924563,0.0
24.124916,0.02488114812437159,0.0
24.127312,0.021341446823539043,0.0
24.1297,0.018732911082484816,0.0
24.13208,0.017335080154929322,0.0
24.134476,0.013795378854096775,0.0
24.136864,0.011047073486182337,0.0
24.139248,0.009369703304906428,0.0
24.141652,0.008903037937129262,0.0
24.14404,0.008436372569352094,0.0
24.146424,0.008436372569352094,0.0
24.14882,0.008109476828435137,0.0
24.151208,0.007642811460657969,0.0
24.153592,0.00610521090624227,0.0
24.155988,0.003636444792048251,0.0
24.158376,0.0030300097974108736,0.0
24.160756,0.0024235748027734956,0.0
24.163156,0.0007462046214975876,0.0
24.165544,0.0,0.0
24.167924,0.0,0.0
24.170324,0.0008840783904885546,0.0
24.172712,0.004374662005208709,0.0
24.175092,0.014196413083273745,0.0
24.177488,0.024854886064630797,0.0
24.179876,0.044078944681226855,0.0
24.18226,0.07144928005248127,0.0
24.184656,0.10626704404409305,0.0
24.187044,0.14559897034986694,0.0
24.189424,0.19731369232861018,0.007820101692308328
24.191824,0.25484582923363136,0.015980094647110317
24.194208,0.31842769849040775,0.024556215371001697
24.196592,0.38931533088281206,0.03367775635090828
24.198988,0.47169802350091194,0.04312644051333586
24.201376,0.5725585701141104,0.052519563598725026
24.203756,0.69520232408094,0.061736837369832015
24.206152,0.8490353846556702,0.0702358463516463
24.20854,1.0260965706808767,0.07847702643911775
24.21092,1.2195881839843912,0.08673962857341916
24.21332,1.4282522979244712,0.09514391826034022
24.215704,1.6583275321658448,0.10352227063900309
24.2181,1.904181432720515,0.11194407501341674
24.2205,2.163487168276924,0.12034777827427398
24.222888,2.4293544928642854,0.12877458599385846
24.225268,2.709931579095128,0.1371743261707262
24.227672,2.9939972184238672,0.14565226598612202
24.23006,3.2843921293580824,0.15412981901444972
24.23244,3.5820021514871785,0.16255441268494014
24.23484,3.885803571452758,0.1709696772369152
24.237224,4.180990288096988,0.17169391022545905
24.239608,4.480366301831285,0.17210635916155687
24.242004,4.78733140967067,0.17203537726927526
24.244392,5.101515420420675,0.1712735441344802
24.246772,5.411793465050071,0.17006413952442465
24.249168,5.707924618259165,0.16878993875360068
24.251556,5.981109081129372,0.16768258525711302
24.25394,6.217609791831626,0.1674053158243544
24.256336,6.431626551188078,0.1674166036857766
24.258724,6.636801977371311,0.16728989701269043
24.261104,6.8256414199327216,0.16701258836749228
24.263508,6.985527869915995,0.16684056735810782
24.265896,7.1290311144492025,0.16661045878424444
24.268276,7.262295329540587,0.16633912800228437
24.270676,7.3916989044817365,0.16592692881770682
24.273064,7.506766700689613,0.1655150000699009
24.275448,7.606754544059539,0.1650414711201095
24.277844,7.693198004629111,0.16455541372309024
24.280232,7.767213343555339,0.16411168054929556
24.282612,7.8356908068090085,0.16362208221045743
24.285012,7.904264609577035,0.16294708072043676
24.2874,7.964461714022793,0.16219808991912327
24.289784,8.012230696825208,0.16149092784706387
24.29218,8.04840827988757,0.160886743738658
24.294568,8.083235388509573,0.16033436496286985
24.296952,8.110938037877444,0.1599371317075912
24.299348,8.133053693886644,0.15961043435406547
24.301736,8.156567046164449,0.15920547162401325
24.304116,8.180546929151078,0.15874412566358514
24.306516,8.196658178778899,0.15841284213250587
24.308904,8.219799444004364,0.15800535244022468
24.311288,8.258258667066865,0.15737898864726352
24.313684,8.298208134196585,0.15671743565790378
24.316072,8.330895268303182,0.15611817763235863
24.318456,8.348683753453326,0.15571758756792473
24.320852,8.365680842670551,0.15532414251264026
24.32324,8.387193990059808,0.15487662239037803
24.325624,8.405821092971113,0.1544368656922755
24.32802,8.420770755471548,0.15401084159122655
24.330408,8.428969941628056,0.1536497170213375
24.332792,8.438519602224924,0.1532622990466844
24.335188,8.447789723568071,0.15289028001181293
24.33758,8.456408218605162,0.15251796845592017
24.33996,8.462652525843497,0.1521624104678878
24.34236,8.462146356737906,0.1518671112041782
24.344748,8.464573453938513,0.15153060434387147
24.347132,8.47575312822946,0.15110453295091247
24.349528,8.488515594386243,0.15066454906217272
24.35192,8.500626434236969,0.15022456496839234
24.3543,8.513715661475716,0.1497391164204351
24.356696,8.520286729796014,0.1493367261874817
24.359084,8.51614844624993,0.14911268471312322
24.361468,8.512661789009902,0.14889117393924844
24.363864,8.505310699903902,0.1487188393817038
24.366252,8.504664761171451,0.14842670042067846
24.368632,8.504949987998778,0.14812403986037392
24.371032,8.506166380385885,0.14781184851816648
24.37342,8.508825795011967,0.14749622874985777
24.375804,8.514558245571106,0.14713512227025352
24.3782,8.525086293555994,0.14671425866679436
24.380592,8.528397334488137,0.14640297487929294
24.382972,8.531708375420276,0.14609290432956912
24.385368,8.534879646725555,0.1457897202683472
24.387756,8.532044615791584,0.14556802438056157
24.39014,8.526136548924558,0.14539053609350175
24.392536,8.521439186871032,0.14518955497713884
24.394924,8.51515903295167,0.14499735741745468
24.397308,8.515816346831336,0.1447122484506191
24.399704,8.513400624777946,0.14447095057082138
24.402092,8.511636529030614,0.14423230382617538
24.404476,8.508941267723504,0.14400354843790128
24.406872,8.50945881197631,0.143723258838074
24.409264,8.505552845855698,0.1435172475303847
24.411644,8.513240175333012,0.14316635222540475
24.41404,8.523953318915137,0.1428084719238481
24.416432,8.534247153616679,0.1424709661584849
24.418812,8.540908873877726,0.1422026637199858
24.421208,8.551015717124164,0.14190741966914705
24.423596,8.558840920370468,0.14165197253674536
24.42598,8.56201029581788,0.1414475461624374
24.428376,8.566390376078788,0.14121974844529875
24.430764,8.5683490467127,0.1410372316034086
24.433144,8.573380753279668,0.1408135054497896
24.43554,8.587491798018942,0.14046878469781224
24.437924,8.608400540930383,0.14004210553699364
24.440308,8.629960910147885,0.1396209415639615
24.442704,8.65431477604472,0.1391739540033978
24.445088,8.674384901195,0.13879431770485515
24.447472,8.696177587837978,0.13839959379915592
24.449868,8.71461769929418,0.13805823384347174
24.45226,8.737713638549273,0.13767010938301277
24.45464,8.765465405603258,0.1372387435450128
24.45704,8.79549881265738,0.136768745117462
24.459428,8.820596852658888,0.13636539125659092
24.461812,8.83824556818217,0.13603686897670925
24.464208,8.856825449265232,0.13570070452991267
24.466596,8.879689071094846,0.1353049014276092
24.46898,8.897896865125572,0.13495599235775835
24.471376,8.914893954342798,0.13462695740400513
24.473764,8.93412546173192,0.13429410679523632
24.476148,8.954799991360016,0.13396064175264913
24.478548,8.978547556921164,0.13358816283130598
24.480936,8.994798576175846,0.13332198349426494
24.48332,9.006206776176533,0.13314147866369666
24.485716,9.014262400990443,0.13301295193504575
24.488104,9.020967551363995,0.1329117316428971
24.490484,9.027113623230106,0.13283513178239373
24.492884,9.032188759909578,0.1327731843606898
24.495272,9.04313042920144,0.1326475955007749
24.497652,9.058076299986137,0.1324752546858078
24.500048,9.072602861890251,0.13232233393055748
24.502436,9.080331725622198,0.132242151962085
24.50482,9.090062690100561,0.1321398131033819
24.507216,9.100445280884983,0.1320413578637857
24.509604,9.116135325774357,0.13190315644501832
24.511988,9.13103397473081,0.13176862985254612
24.514384,9.14686378924704,0.13162816698085253
24.516772,9.167628970815883,0.1314360473381426
24.519156,9.191327418690925,0.13121333865043233
24.521552,9.215957032125742,0.130983366019328
24.52394,9.242216659254638,0.13071871752818462
24.52632,9.268755825637253,0.13044566395312215
24.52872,9.303303395005537,0.13008572585791106
24.531108,9.343345409933875,0.12965478415219728
24.533488,9.38473789930257,0.1292002402391
24.535888,9.422033639379817,0.12876128219188754
24.538276,9.455092860538748,0.1283468165740336
24.540656,9.491504656884459,0.12788792601551532
24.543056,9.519116654311583,0.12751873287689014
24.545444,9.546868421365568,0.12714705908545842
24.547824,9.570243899874383,0.1268041625895767
24.55022,9.592827982450277,0.12646116403772173
24.552612,9.613270194652895,0.12614663285022026
24.554992,9.628777039802902,0.1258818934660098
24.557392,9.645774129020129,0.12558970369923042
24.55978,9.658255160065323,0.12533009496338887
24.56216,9.66328686663229,0.12513295089907306
24.56456,9.664454141333286,0.12497276546685347
24.566948,9.664178393795302,0.12481169602770653
24.569332,9.65994566659273,0.12466153313776555
24.571728,9.655712939390158,0.12451180861055616
24.57412,9.650549046627809,0.12436987616557262
24.5765,9.642871196439843,0.12423976633764157
24.5789,9.63226007994568,0.12413686318007956
24.581288,9.62178873307838,0.12402850186443887
24.583672,9.619186019569888,0.12384688978443169
24.586068,9.621798212367729,0.12360909849527671
24.588452,9.623199700352068,0.12338979111749712
24.590836,9.629816094642738,0.12311390151325571
24.593232,9.633778761880938,0.12285441656640829
24.595624,9.638160737999717,0.1225783924397059
24.598004,9.650690886731024,0.12222177261408983
24.6004,9.66364034434291,0.12185009862775308
24.602788,9.678359585275738,0.12143829002028891
24.605172,9.688702537663392,0.1210521218410354
24.607572,9.707985058596494,0.1205849117099067
24.609956,9.73113201139557,0.12008352117418322
24.61234,9.75642083456792,0.11955919431496786
24.614736,9.784223615165885,0.11902681398329887
24.617124,9.818963863562882,0.11843495442240606
24.619504,9.849188053787845,0.11787249752178458
24.6219,9.876618747333474,0.11733075253533623
24.624292,9.902047340132688,0.1168089700266965
24.626672,9.92160940031951,0.11633557739700331
24.629072,9.938657503080718,0.11587244915138509
24.63146,9.950910008416173,0.11545006629324338
24.633844,9.953943405952462,0.11511639142980867
24.63624,9.954602615689996,0.11478682614435377
24.638628,9.955401595054393,0.11445323202124028
24.641012,9.954478012926092,0.11412639219455477
24.643412,9.954485596357566,0.11379258033550313
24.6458,9.9455536112436,0.11353691271247279
24.64818,9.935550690942993,0.11329240124299608
24.650576,9.926199396948443,0.11305118517225307
24.652968,9.916428794073312,0.11282457327636676
24.655348,9.898649788212516,0.11266837935744382
24.657748,9.8788686816053,0.11252932406142198
24.660136,9.854012438318614,0.1124363638337012
24.66252,9.826782007233174,0.11234575028809915
24.664916,9.78805082834843,0.11236896404060631
24.667308,9.751833606889301,0.11238339593987465
24.669692,9.71533684617645,0.1124083276880905
24.672088,9.675767049530544,0.11246289885463069
24.674476,9.63992191512375,0.11249359495513378
24.67686,9.603238162955797,0.11255588262814711
24.679256,9.564924397093765,0.11265100163971375
24.681644,9.534199725336817,0.11269072839777593
24.684024,9.503567601378489,0.11275566554980396
24.686424,9.468232427793026,0.11288327429995708
24.688808,9.436854233872152,0.11300483122480609
24.691192,9.406639522936533,0.11313934676053024
24.693596,9.381872035732727,0.113240756008778
24.695984,9.356545470021478,0.11336353899777851
24.698364,9.330520056175928,0.11351323573851604
24.700764,9.30593766456935,0.11366640552779737
24.703148,9.280656424828477,0.11384841106690599
24.705532,9.258028912140079,0.1140159718063016
24.707928,9.23991745762371,0.11415684494449235
24.710316,9.22282971646574,0.11431626642388987
24.7127,9.215333170159266,0.11440018890559156
24.715096,9.209559185345496,0.11447591461216125
24.717484,9.209372193890392,0.11451219148874037
24.719864,9.218636627659933,0.11447827621721142
24.722264,9.231765493295446,0.11441367594022324
24.724648,9.249969495610431,0.11430129658839147
24.727032,9.269244433112055,0.11417629219997615
24.729428,9.28730866580018,0.11406910490587743
24.73182,9.307514768861584,0.11393844066123242
24.7342,9.333727174162236,0.11375307545968123
24.736608,9.356494456477497,0.11358283500952479
24.739,9.37767894692692,0.11341483885120363
24.74138,9.396861336629927,0.11326571431607028
24.743776,9.422050028572185,0.11306390444588983
24.746168,9.454595497194052,0.1127888085011711
24.748548,9.486209800256141,0.11251909964982354
24.750944,9.525180879997839,0.1121742142482375
24.753332,9.564012190112678,0.11183602202813335
24.755712,9.605916536160569,0.11147221063786651
24.758108,9.647029486275546,0.11110974896297551
24.760496,9.684557543778272,0.11076830628700246
24.762876,9.721154435721216,0.11043519690375017
24.765272,9.754166435051905,0.11012410285930518
24.767664,9.778518405090871,0.10987918565642388
24.770044,9.803010144756696,0.10963229646385356
24.77244,9.82321814367597,0.10942989558046748
24.774828,9.847290574461214,0.10919982931247095
24.777212,9.872341392634482,0.1089360685540236
24.779608,9.899254541927306,0.10866272672440638
24.781996,9.924305360100572,0.10840276173569659
24.78438,9.956945272378924,0.10809478576591802
24.78678,9.99545171726967,0.10774616181298695
24.789164,10.034237701414133,0.10738815776198134
24.791548,10.067436692199928,0.10706634691809339
24.793944,10.094629380746474,0.10679547279360518
24.796332,10.12745628447993,0.10646596612891536
24.798716,10.155487590787635,0.10617021836329721
24.801108,10.18500914116256,0.10585197592459195
24.8035,10.21015440299231,0.10555256264718078
24.80588,10.23772107444906,0.10522524957899836
24.808276,10.269431717025507,0.1048649859870566
24.810668,10.298348862922616,0.10451997215741675
24.813048,10.326614382513668,0.10417119748673362
24.815448,10.357952938037775,0.10379657081006488
24.817836,10.38556683132277,0.10344435487152477
24.82022,10.419374018302117,0.10301787579640889
24.822616,10.452809118229128,0.10258159317075854
24.825004,10.4856851396487,0.1021667129780282
24.827388,10.516326742896373,0.10175052146480867
24.829788,10.544733927972153,0.10133082756864172
24.832176,10.566111097450289,0.10093840401245
24.834556,10.582972208756393,0.10056786245518542
24.836952,10.602254729689493,0.10017169927773435
24.839344,10.619954458756757,0.0997746862959505
24.841724,10.63942397114496,0.09934728012903257
24.844124,10.652747411667056,0.09896702127749987
24.846512,10.66728155700265,0.09857348370604042
24.848892,10.676088939352711,0.09821121117741327
24.851292,10.683685616889274,0.09786190222595838
24.85368,10.685415761813447,0.09754808370162177
24.856064,10.682490078938729,0.0972568929247024
24.85846,10.68226534494473,0.096929568266843
24.860852,10.683763172443427,0.09659837307317982
24.863232,10.687542639942262,0.09624605319727224
24.865632,10.688388841134898,0.0959098534293045
24.86802,10.679736395274649,0.09564825919822773
24.8704,10.670152783854622,0.0953914256934591
24.872796,10.656984279822344,0.09514646217028011
24.875184,10.640323430976425,0.0949358986823378
24.877568,10.625385143623204,0.09472087144773211
24.879968,10.606163115523428,0.09453942788037333
24.882356,10.585730382610151,0.09437075240350844
24.884736,10.562084844136963,0.09422743949078953
24.887136,10.544166068649304,0.094054381278042
24.889524,10.520613077974733,0.09393253762293821
24.891908,10.502135223979634,0.09377648650712425
24.894304,10.483936909238253,0.09361092365226384
24.896692,10.470254652668904,0.09342936464519905
24.899076,10.461787302405888,0.09321004769049782
24.901476,10.460536959195618,0.09294080432239972
24.903864,10.4645940700903,0.09265779848353961
24.906244,10.469163037664185,0.09238508988945504
24.908644,10.470007342998953,0.09212745378359703
24.911036,10.466707677214027,0.0918984501339092
24.913416,10.466760586615877,0.0916395812570346
24.915812,10.472819798256975,0.09134393543147076
24.9182,10.47738876583086,0.09107042708900759
24.920584,10.487032870084208,0.09076528033306894
24.922984,10.497236052845007,0.09044085376225593
24.925372,10.509673653777696,0.09012431707049337
24.927756,10.535474333629244,0.08972183054898498
24.930152,10.562206179040572,0.08931588637934834
24.93254,10.592802456317871,0.08889312523223272
24.934924,10.61166566837039,0.08852975675200221
24.93732,10.635184708221804,0.08814702959974317
24.939712,10.655770481767023,0.08778204401798817
24.942092,10.66885970900577,0.08747117133180927
24.944492,10.684742432923851,0.0871516260210872
24.94688,10.699414452028437,0.08684702720576719
24.949264,10.703516888893493,0.08661580817355215
24.95166,10.703754893892581,0.08640368207952315
24.954048,10.704644525197724,0.08619756944229105
24.956432,10.70897927948826,0.085986355619663
24.958832,10.718901027137466,0.08575556970811563
24.96122,10.731988358518343,0.08552979264711073
24.963604,10.74465638101864,0.08531778845948235
24.966004,10.758535108332437,0.08509447999017355
24.968392,10.76826986452654,0.0848976566748345
24.97078,10.782380909265811,0.0846935530442376
24.973176,10.791184499900137,0.08450023831846956
24.975568,10.788207803481434,0.08438932428472946
24.977952,10.783508545570038,0.08428025216169258
24.980348,10.775177173218145,0.08420615568336802
24.982744,10.782163758703287,0.08406962218509924
24.985132,10.790640588255648,0.0839137121905554
24.987544,10.800048583367788,0.08375535483204356
24.989932,10.824402449264623,0.08352291133478021
24.99232,10.844240256989426,0.08330256160729979
24.994724,10.855790122474842,0.08313052235164634
24.997108,10.879212822811898,0.08290126693929914
24.999492,10.900121565723339,0.08267225355865576
25.001888,10.917165876768808,0.08245970033301768
25.004276,10.93355856150822,0.08224229718443164
25.006664,10.94450402251582,0.0820391710722295
25.00906,10.95037434684395,0.0818634402584013
25.011444,10.955453275239162,0.08168672889329594
25.013832,10.953874275089065,0.08153389792651414
25.016228,10.952527592364442,0.0813987992980051
25.018616,10.952531384080181,0.08124896195444192
25.021012,10.956679146915615,0.08107511321165033
