Time,Force,Position
22.856932,0.03665147076926961,0.0
22.859332,0.042890090433997434,0.0
22.86172,0.052993141964698745,0.0
22.8641,0.0655224673342362,0.0
22.866496,0.0759099223304966,0.0
22.868884,0.08843924770003406,0.0
22.871268,0.1000374075097932,0.0
22.873664,0.11070440175977402,0.0
22.876052,0.12244233119639336,0.0
22.878432,0.13231792951345606,0.0
22.880828,0.14326446301715728,0.0
22.88322,0.15118031820420763,0.0
22.8856,0.1565349941374003,0.0
22.888004,0.16174990044373275,0.0
22.890388,0.1669648067500652,0.0
22.892768,0.17325064824303618,0.0
22.895172,0.18260952566906255,0.0
22.89756,0.1886158279083131,0.0
22.89994,0.19196840309508892,0.0
22.902336,0.19546074790872497,0.0
22.90472,0.19988425828213927,0.0
22.9071,0.20551847346905236,0.0
22.909496,0.2063570912302136,0.0
22.911884,0.205193608244958,0.0
22.914264,0.20496129081948067,0.0
22.916668,0.2035182685805047,0.0
22.919056,0.2039375774610853,0.0
22.921436,0.20528805190144425,0.0
22.923832,0.20663852634180319,0.0
22.92622,0.2081287704090224,0.0
22.9286,0.20668574817004637,0.0
22.931004,0.20617389149084867,0.0
22.933388,0.20594157406537142,0.0
22.935772,0.2078511270131712,0.0
22.938164,0.2056167088412771,0.0
22.940552,0.20445322585602152,0.0
22.942932,0.1971436710046552,0.0
22.945328,0.19397808727298277,0.0
22.947716,0.19146412984736821,0.0
22.950112,0.18853086354117304,0.0
22.952504,0.18145362611528396,0.0
22.954892,0.17330545350275633,0.0
22.957272,0.16501751126336847,0.0
22.959668,0.1536516688790866,0.0
22.962056,0.1465744314531975,0.0
22.964436,0.13670369734797347,0.0
22.96684,0.12590179768297116,0.0
22.969228,0.11388432899263136,0.0
22.971608,0.10079592511565305,0.0
22.974012,0.0914370476896267,0.0
22.9764,0.0848716669429353,0.0
22.97878,0.08231048768907762,0.0
22.981184,0.0829621139951355,0.0
22.983572,0.0788181428754416,0.0
22.985952,0.08161163955477656,0.0
22.988356,0.07839883399486097,0.0
22.99074,0.07825906436800076,0.0
22.993124,0.07411509324830684,0.0
22.99552,0.06824856063591649,0.0
22.997908,0.06387227209074531,0.0
23.000292,0.06070668835907287,0.0
23.002688,0.05576645709462219,0.0
23.005072,0.052828326576588355,0.0
23.007456,0.052828326576588355,0.0
23.009852,0.05003482989725339,0.0
23.01224,0.0501745995241136,0.0
23.01462,0.0489590304987762,0.0
23.017016,0.05045413877783402,0.0
23.019404,0.05045413877783402,0.0
23.021784,0.048447173819578505,0.0
23.02418,0.04550904330154468,0.0
23.026568,0.039497876850455464,0.0
23.028952,0.031344840026089185,0.0
23.031348,0.025985299881057872,0.0
23.033736,0.01676132787005306,0.0
23.036116,0.012472722911660275,0.0
23.038512,0.008184117953267492,0.0
23.0409,0.005897613741291559,0.0
23.043284,0.005473440648872266,0.0
23.04568,0.0038385627429542318,0.0
23.048068,0.003134850396814519,0.0
23.050448,0.003134850396814519,0.0
23.052852,0.0031348503968145194,0.0
23.05524,0.0031348503968145194,0.0
23.05762,0.002850446931255437,0.0
23.060016,0.0014951082790578237,0.0
23.062404,0.0014951082790578237,0.0
23.064784,0.0,0.0
23.067184,0.0,0.0
23.069572,0.0,0.0
23.071968,0.0,0.0
23.074364,0.0,0.0
23.076752,0.0,0.0
23.079132,0.0,0.0
23.081528,0.0,0.0
23.083916,0.0,0.0
23.0863,0.0,0.0
23.088696,0.0,0.0
23.09108,0.0,0.0
23.09346,0.0,0.0
23.095864,0.0,0.0
23.098252,0.0,0.0
23.100636,0.0028455827194167746,0.0
23.103032,0.00848466211816851,0.0
23.10542,0.014123741516920245,0.0
23.1078,0.02269608722186715,0.0
23.110208,0.03341030330009112,0.0
23.112592,0.04505568493809341,0.0
23.114976,0.05670106657609569,0.0
23.117372,0.0692776137738763,0.0
23.11976,0.08013159947896048,0.0
23.122144,0.09200929854244004,0.0
23.12454,0.10565488506898994,0.0
23.126928,0.12330277723050428,0.0
23.129308,0.14369504838524122,0.0
23.131712,0.16715656375729504,0.0
23.1341,0.20062289528782537,0.0
23.13648,0.2513091541717123,0.011267908777946005
23.138876,0.33309027600701346,0.02076280769239483
23.141264,0.444989769263577,0.029279081428567017
23.143644,0.5742508553582263,0.03774838047806509
23.14604,0.716170484663827,0.046482647106422095
23.148428,0.8670172348715577,0.055649162401595814
23.150808,1.039367653179199,0.06464960919319959
23.153204,1.2355506014151318,0.07343751947117358
23.155592,1.4436479187573408,0.08223091291191795
23.157972,1.6655219363253826,0.09099082978776996
23.160372,1.9017770585970721,0.09982773934224454
23.162756,2.1620970282225302,0.10855333506889339
23.16514,2.446249527776279,0.11713659169184891
23.167536,2.755772023153782,0.12554401282311284
23.16992,3.079445201667324,0.13391113858163017
23.17232,3.414103479585234,0.14230616930471562
23.174716,3.764682223960124,0.150620962027908
23.177104,4.140914295128226,0.15866672052004102
23.179484,4.532513441819476,0.1665010113180399
23.181884,4.923885958658857,0.17416207084575883
23.184272,5.300786718853841,0.170459254963613
23.186652,5.640633535686404,0.16858308700547775
23.189048,5.945566383671952,0.16775051078718148
23.19144,6.238212775498887,0.16688679491834446
23.19382,6.520249946689532,0.16569437159502115
23.196216,6.788606757168698,0.16402999369872673
23.198604,7.02847710577855,0.1625339428155454
23.200988,7.244003067780914,0.16124199921609716
23.203384,7.450408157356336,0.15987073576154945
23.205772,7.641686072265566,0.15852839045959669
23.208156,7.820864522471284,0.15705693474758703
23.210552,7.973184628643904,0.15572949826467392
23.21294,8.097807773022256,0.15458406018265833
23.21532,8.195430907882775,0.15367443784402826
23.217724,8.276529171808502,0.15283635711991278
23.220112,8.34515398812051,0.15195712678200007
23.222492,8.392692549355317,0.15114787628974963
23.224888,8.404803389206043,0.1506805045301719
23.227272,8.402621880436,0.15035775571124296
23.229656,8.385075192000677,0.1502783820262306
23.23206,8.35695892132583,0.1503760017568624
23.234444,8.331915686584038,0.15042737345400425
23.236828,8.308734782961807,0.15045825502874638
23.239232,8.275915462659825,0.15066112192851458
23.241616,8.244771482022298,0.1508764271377207
23.243996,8.222332856646869,0.15103004629277497
23.2464,8.207808190600622,0.15113285381913433
23.248788,8.192165367539495,0.1512906679958683
23.251168,8.171167868545174,0.15153778835433135
23.253568,8.15203270067041,0.15175995505974446
23.255952,8.12530843869056,0.15208132619530437
23.258332,8.100074420777927,0.1523667770322576
23.260732,8.079915539544768,0.15257416129110163
23.26312,8.068975766110775,0.15263590135160793
23.2655,8.058967158236557,0.15268679622936082
23.267896,8.0496101766684,0.15273909686411752
23.270284,8.039833886219663,0.15281174301022005
23.272664,8.040020877674765,0.15276938845414537
23.27506,8.033642488383178,0.15284459609306167
23.277448,8.035876906555073,0.1528362769970841
23.279828,8.048167154429425,0.15273870230843598
23.282224,8.064926238647566,0.15262384107256038
23.284612,8.088343251411015,0.15241844669839935
23.286996,8.122981472720046,0.1520340475063459
23.289392,8.1554778236558,0.15169185683950848
23.29178,8.181316246046247,0.15144460591067577
23.294172,8.201195588025685,0.15125304380576077
23.296572,8.22061029515417,0.15101559456211028
23.29896,8.237278727431564,0.15077648541267227
23.30134,8.25236436784312,0.1505491831617216
23.303736,8.274619793479182,0.15024164860070163
23.306124,8.300320342100637,0.14990258647249555
23.308504,8.322947854789037,0.1496127994454841
23.310908,8.33728742523805,0.14945656284004027
23.313296,8.357493528299454,0.1492208387336242
23.315676,8.38035335841333,0.1489605073197842
23.318072,8.40679808113946,0.14866263084834822
23.32046,8.431380472746035,0.14839013459297212
23.32284,8.463319641032218,0.14800282837976614
23.32524,8.495026491892922,0.14759850689558274
23.327624,8.52664079495501,0.14717014671912684
23.330008,8.556439988725787,0.14673110616025645
23.332404,8.582421972458834,0.14631142867053823
23.334792,8.600023466153873,0.1459905651886957
23.337168,8.617764729475772,0.14566511457003203
23.339572,8.637368323917231,0.14532041887070613
23.34196,8.659997732463498,0.1449648897968433
23.34434,8.691799026980693,0.14451777153082399
23.346732,8.729419632282031,0.14403129302039808
23.34912,8.76755209426257,0.1435557350815787
23.351516,8.807826426616383,0.143056097798275
23.353916,8.846238427850642,0.14257967241208008
23.356304,8.886280442778977,0.14206361358823513
23.358684,8.92916317621489,0.14148245048577038
23.36108,8.969811491478913,0.14091685383102723
23.363468,9.006502827078345,0.14037369086093207
23.365848,9.044032780438936,0.13980114859836956
23.368244,9.077326214881218,0.13925709457953048
23.370632,9.100888684845133,0.1388264136162483
23.373012,9.123799528502992,0.13839715433273173
23.375416,9.151785508840325,0.13791200567376108
23.377804,9.184008008095967,0.1374030050553323
23.380184,9.216323055150227,0.13692069806687424
23.382588,9.250360663697183,0.13642471090062167
23.384976,9.285748746684497,0.1359068243571427
23.387356,9.320065894485174,0.13540652804305991
23.389752,9.35429049448723,0.13488257825063146
23.39214,9.378923899637787,0.13446275157230098
23.394524,9.397598224377333,0.13408183972578563
23.39692,9.413618822064407,0.13372143488069713
23.399304,9.423912656765951,0.13342092397985958
23.401684,9.432483929974797,0.13313173541452275
23.40408,9.439704728743285,0.13286841831887325
23.406468,9.444643887511637,0.13263890139527207
23.408852,9.445159535906573,0.13247248980944376
23.411248,9.4491203072869,0.1322839230267276
23.413636,9.451171525719431,0.1321439511219978
23.416032,9.456388327883632,0.13199226695804867
23.418432,9.47026515933956,0.131753146385582
23.42082,9.483862451541766,0.13152689651322774
23.423204,9.489451340758306,0.13139134696808194
23.4256,9.48665973993684,0.13132971146511246
23.427988,9.479212311316484,0.1313093441164812
23.430368,9.472044421949846,0.13127774499531852
23.432764,9.460080935157457,0.13129277041240855
23.435152,9.450399088365206,0.13127419693846387
23.437536,9.437224896759316,0.13130778605894605
23.439932,9.423771165899712,0.13135326111012627
23.44232,9.413343249144914,0.13139394574065552
23.4447,9.40799046906959,0.13137625108142706
23.4471,9.401706523434488,0.1313668604326211
23.449484,9.397936535225002,0.1313437635178476
23.451868,9.394026777388655,0.13132622908483815
23.454264,9.399568444776952,0.13122130228048162
23.456652,9.406460586605606,0.13109128271436266
23.459036,9.412421562874481,0.13097052466844705
23.461432,9.416799747277523,0.13085497770917504
23.46382,9.419315600561006,0.1307553417647009
23.4662,9.417035856418737,0.1307018641219685
23.468596,9.412242154850855,0.13066146790591107
23.470984,9.405586122163417,0.1306371767739361
23.473364,9.405448248394425,0.13055618827549698
23.47576,9.414901569476937,0.13038332624384766
23.478148,9.425006516865507,0.13021387773814064
23.480528,9.437904960933414,0.13002016637574257
23.482928,9.446007807575567,0.12987283941046074
23.485316,9.46197928757653,0.12964596535985892
23.487712,9.48367753056302,0.1293659549601339
23.490108,9.506493930564394,0.1290433066993147
23.492496,9.522140545341262,0.12877381402246468
23.494876,9.542070900864681,0.12845188464964863
23.497276,9.562420565268681,0.12811537869588654
23.49966,9.582909999299543,0.1277729281470194
23.502044,9.593715690680284,0.1274967114807449
23.50444,9.605359999822188,0.12718892838922685
23.506828,9.614490351538473,0.1268941256664989
23.509212,9.622969076948703,0.12659560554028
23.511608,9.638013183105622,0.12621587219488467
23.513996,9.654827072583483,0.125796819784186
23.51638,9.673131206128563,0.1253495819977589
23.518776,9.695858850047058,0.12484579919481203
23.521164,9.713930666166661,0.12437929413836638
23.523544,9.726974567435036,0.12393906792490081
23.525948,9.739134524971874,0.12347714493993253
23.528336,9.749339603590535,0.12300561910781793
23.53072,9.76010376071664,0.12251169652676
23.533116,9.766910938178157,0.1220311127848332
23.535504,9.771763236721497,0.12154248783455238
23.537888,9.773682268958643,0.12108035010000055
23.540284,9.783469934554596,0.12054819289784509
23.542672,9.78832223309794,0.12006124869224867
23.545052,9.792522905335224,0.11957217033091105
23.547448,9.800076152759283,0.11904343067581082
23.549836,9.807349860929621,0.1185226712598073
23.552216,9.818348231339073,0.1179791062378538
23.55462,9.830697076188883,0.11741442341769186
23.557008,9.844908252158252,0.11683652579142705
23.559388,9.851390564395672,0.1163227127307912
23.561792,9.856801941446452,0.1158210937654334
23.56418,9.863144484057013,0.1153148093820353
23.56656,9.86548282517474,0.11484399772552951
23.568956,9.872244676665881,0.1143223713334757
23.571344,9.876585118530025,0.11383245126841286
23.573728,9.881157877819646,0.1133620462170566
23.576124,9.887033889721383,0.112899483037524
23.578512,9.892490592742538,0.112451166913209
23.580892,9.890310979830364,0.11208512635227268
23.583288,9.884639022104551,0.11176278444827252
23.585676,9.877896129192104,0.11145059337502305
23.58806,9.863796459600048,0.11121285143260792
23.59046,9.852490286687324,0.11095587123240383
23.592848,9.839833639334241,0.11072005121388426
23.595228,9.81982021530155,0.11055750572354758
23.597624,9.802460518321332,0.11038112082262086
23.600012,9.77439146947473,0.11031754452159004
23.602396,9.744552637307189,0.11029000232132555
23.604792,9.714294496259066,0.11027711865170038
23.60718,9.688784730808454,0.11025821030129943
23.60956,9.664578217969957,0.11024692042578484
23.611964,9.637530986623881,0.11028300974240277
23.614352,9.611507468636201,0.11033837798817692
23.616732,9.584645332887359,0.11042292336557784
23.619128,9.559505758631214,0.11050106689565022
23.621516,9.536228515494624,0.11056618069499513
23.6239,9.513463129037234,0.11064008600646054
23.626296,9.494142865565237,0.11069993567805485
23.628684,9.486136358437438,0.11068346746798445
23.631064,9.484508240601226,0.1106305007497436
23.633468,9.489398281683465,0.11053643124024924
23.635856,9.500946251311012,0.11039655890741973
23.63824,9.513937243177535,0.11026092116779178
23.640636,9.525298221349976,0.11015602116087835
23.643024,9.545179459187283,0.10999330550868978
23.645404,9.568645589636844,0.10981397212923619
23.6478,9.604124324564909,0.10953463243395126
23.650188,9.638392354679471,0.10926986971434184
23.652572,9.674662485540452,0.10898999803557284
23.654968,9.710420759722235,0.10870239614438369
23.657356,9.747249969090657,0.10840616831887895
23.659736,9.785289883272577,0.1080936344760391
23.662132,9.827613538201051,0.10773916841776626
23.66452,9.868866257942887,0.10739627440327805
23.6669,9.912121078431142,0.10703777497807196
23.6693,9.952442632613199,0.10670264960387431
23.671684,9.99104162530256,0.10637405694813053
23.674068,10.030432013924838,0.10604774292662121
23.676464,10.064235409188447,0.10575718908048626
23.678856,10.091380875906749,0.10551077617096612
23.681236,10.113311436318718,0.10531280408182936
23.683636,10.131377564864708,0.10514292292249082
23.68602,10.14772113191801,0.10497951522183858
23.688404,10.170350540464279,0.10476026644628364
23.6908,10.189534826025156,0.10455431297442543
23.693184,10.202200952667583,0.10438572346724277
23.69558,10.206067280391427,0.10427940979482965
23.697976,10.214357118488683,0.10412835337619236
23.700364,10.220644855839522,0.10399296103124259
23.702744,10.226932593190362,0.10385807213318184
23.70514,10.228424733115453,0.10375353896265276
23.707524,10.231918973786957,0.10363434202877808
23.709908,10.233411113712046,0.10353055021383
23.712304,10.234251627331076,0.1034222359143236
23.714692,10.237094241696523,0.1032997658438598
23.717072,10.241938956808388,0.10316275978830627
23.719472,10.250787873413085,0.10299713534964164
23.72186,10.258473307032528,0.10281892410741059
23.724256,10.270302711771667,0.10260814273836016
23.726652,10.28920935393669,0.10234576515531325
23.72904,10.310677175355574,0.10205093471808797
23.73142,10.330142896028041,0.10176976429006114
23.733816,10.350959091140863,0.10147085645347907
23.736204,10.366048523268159,0.10120629338581089
23.738588,10.381929351328372,0.10094247632758889
23.740984,10.402885316068058,0.10064165689101019
23.743372,10.426122920807881,0.10031648827514458
23.745752,10.45001215185376,0.09999873866633875
23.748148,10.475251857340002,0.09966373676907733
23.750536,10.498629231706683,0.09933851280310342
23.75292,10.528804304245535,0.09897322060893622
23.755316,10.556465419358773,0.09861388785181383
23.757704,10.58375444741967,0.09824225740499151
23.760084,10.612114410667209,0.09786199492702807
23.762484,10.636609942048773,0.09750576102291653
23.764872,10.65938291193764,0.09715456422045878
23.767252,10.679502154774033,0.09681410944976848
23.769648,10.698550462423787,0.09648399502590707
23.772036,10.713874107834428,0.09617257373081872
23.774416,10.721608659139982,0.09590002207293549
23.776824,10.728272275258897,0.09563683296863698
23.779208,10.736565905071894,0.09534672477338944
23.781592,10.740995103018916,0.09507761562169692
23.783988,10.746355466525713,0.09480380980350919
23.786376,10.750924434099595,0.09453022257664916
23.78876,10.749766638687946,0.09428560068469849
23.791164,10.750610944022716,0.09402857152300056
23.793552,10.746008025625674,0.0937915924400061
23.795932,10.740753480922574,0.09355006498383603
23.798332,10.735918245100054,0.09329493852873846
23.80072,10.723773454426167,0.09306708952099432
23.8031,10.7124200596852,0.0928394344526622
23.805496,10.698785024944097,0.09263241593501692
23.807884,10.682216723896797,0.09244100493298461
23.810268,10.665788192476358,0.09224473343083783
23.812664,10.651501531429192,0.09203155678053712
23.815052,10.635073000008754,0.0918344660475551
23.817436,10.615012354147819,0.09167512941118615
23.819832,10.59467216903316,0.09152414930833172
23.82222,10.57791687653076,0.09136162907790901
23.8246,10.56316368477477,0.09118688132759628
23.827,10.552786781563956,0.09100215442208373
23.829388,10.54906780689845,0.09078698130438384
23.831768,10.550423968912414,0.09054093891737104
23.834168,10.552990835739879,0.09028306421839138
23.836556,10.563146796672429,0.08999229436306741
23.83894,10.571300656858563,0.08971357745998532
23.84134,10.581316848164255,0.08942704393390473
23.843728,10.590773960962503,0.08915851343628485
23.846104,10.600603160813094,0.08890400279093788
23.848508,10.612806548462437,0.08865105754254568
23.850896,10.623007835365366,0.08840941651574859
23.853276,10.637353093387986,0.08814124442426
23.855672,10.657704653649855,0.08783986877869221
23.85806,10.676845509098229,0.08755017740746751
23.86044,10.690491918986545,0.08730353345425777
23.862844,10.707071595181059,0.08704234574932822
23.865232,10.72742315544293,0.0867396338984694
23.867612,10.750847751637856,0.0864189696253444
23.870016,10.772270247086364,0.08610924030777237
23.8724,10.788617605855402,0.08582998204175889
23.87478,10.795373769772937,0.08559333184404688
23.877184,10.795192465891441,0.08539388779442074
23.879572,10.787282298278,0.08523003980636475
23.881952,10.776950721037558,0.08509010353080658
23.884352,10.761544007117646,0.08497964571523528
23.88674,10.749070559503927,0.08485488082799368
23.88912,10.739111069315825,0.08472900256759186
23.891516,10.727940874314223,0.0846148136188782
23.893904,10.717189988193201,0.08448758782706894
23.896284,10.708580972445459,0.08434532197588172
23.89868,10.700903122257493,0.08419952128668161
23.901068,10.691083401696252,0.08406866237281314
23.903452,10.677911105948233,0.0839642510940634
23.905848,10.669953716506548,0.08382734609413195
23.908236,10.67028426930425,0.08364053386479536
23.910616,10.669683656542174,0.08345705355313357
23.913012,10.668663734899516,0.08328641100849296
23.9154,10.664431007696944,0.08313755146854218
23.91778,10.664482021240925,0.08296009822383404
23.920184,10.670539337024158,0.08275261172855648
23.922572,10.686467386912614,0.08249909408502401
23.924956,10.706679177547622,0.08221716887638295
23.927352,10.729544695235107,0.08192983830539727
23.92974,10.74882532031034,0.08164847476991259
23.93212,10.766523153519739,0.08136370893433845
23.934516,10.777795375609301,0.0811217265832309
23.936904,10.785762244340333,0.08087896504104321
23.939288,10.794148421951949,0.08062313449896123
23.941684,10.800113189936562,0.0803899411372517
23.944072,10.805007022734541,0.08016436517462835
23.946452,10.812973891465573,0.07992227933543489
23.948856,10.818798889823329,0.07969415124878297
