Time,Force,Position
3.470191999999999,0.19899555300973248,0.0
3.4725319999999997,0.21552421566026497,0.0
3.474876,0.23754732387085034,0.0
3.4772160000000003,0.2563576265215201,0.0
3.479564,0.2754474684259102,0.0
3.481904,0.29374591439738235,0.0
3.484247999999999,0.3108336555553557,0.0
3.486588,0.32591929596691216,0.0
3.488928,0.33886306600519156,0.0
3.4912720000000004,0.3465919297371386,0.0
3.493611999999999,0.3501768223493916,0.0
3.495963999999999,0.34668447753575565,0.0
3.498308,0.3437512112295605,0.0
3.5006519999999988,0.3388158441769485,0.0
3.502991999999999,0.3303881323107005,0.0
3.5053319999999992,0.31767667969789837,0.0
3.507679999999999,0.30696732783151304,0.0
3.510024,0.29160214816623614,0.0
3.512376,0.27423486775454237,0.0
3.514716,0.25413274003237946,0.0
3.517059999999999,0.23295967712357812,0.0
3.519399999999999,0.21285754940141527,0.0
3.5217399999999994,0.18847168093269828,0.0
3.524087999999999,0.16775182533422872,0.0
3.526432,0.14610080417598084,0.0
3.528772,0.12450843238659876,0.0
3.53112,0.10412676541071547,0.0
3.5334640000000004,0.0846762639946105,0.0
3.535803999999999,0.06722786332492241,0.0
3.538152,0.056658281085397305,0.0
3.5405,0.05344547552548171,0.0
3.5428439999999988,0.05237454033884318,0.0
3.545188,0.05046498739104339,0.0
3.5475320000000004,0.04911451295068444,0.0
3.54988,0.048183347390906114,0.0
3.552211999999999,0.04618124664448928,0.0
3.5545519999999997,0.041444298587603325,0.0
3.556896,0.03856968165027401,0.0
3.559244,0.03769716545936155,0.0
3.561584,0.03769716545936155,0.0
3.563924,0.03769716545936155,0.0
3.566272,0.03769716545936155,0.0
3.568608,0.03769716545936155,0.0
3.570948,0.03710418852216951,0.0
3.5732920000000004,0.036371441958117263,0.0
3.57564,0.036371441958117263,0.0
3.577976,0.036371441958117263,0.0
3.580316,0.036371441958117263,0.0
3.5826639999999994,0.036371441958117263,0.0
3.584999999999999,0.03270542908786984,0.0
3.587351999999999,0.024895445097928508,0.0
3.589696,0.01801662666776549,0.0
3.592036,0.011557117118183108,0.0
3.5943760000000005,0.005749233874658624,0.0
3.5967199999999995,0.001803681750690781,0.0
3.599067999999999,0.0008252943626693088,0.0
3.601412,0.004723624658393999,0.0
3.603755999999999,0.008761724580978899,0.0
3.6061,0.014801925249980651,0.0
3.60844,0.02377539222517757,0.0
3.610783999999999,0.03954655737254316,0.0
3.613123999999999,0.05853052807982434,0.0
3.615468,0.07765426841396574,0.0
3.617808,0.09556730393460838,0.0
3.620148,0.11375987870897143,0.0
3.622492,0.12887941755027915,0.0
3.624832,0.1430677908318085,0.0
3.627184,0.1551142937400608,0.0
3.6295319999999993,0.1671607966483131,0.0
3.631876,0.17734496843700875,0.0
3.634219999999999,0.18659797466592606,0.0
3.6365599999999993,0.19785308164126028,0.0
3.638904,0.20910818861659447,0.0
3.641244,0.21943213003215034,0.0
3.643583999999999,0.22775397070128933,0.0
3.645932,0.2332484162613422,0.0
3.648272,0.23473866032856136,0.0
3.650623999999999,0.23487842995542157,0.0
3.652968,0.23394726439564326,0.0
3.655312,0.23022260215652995,0.0
3.65766,0.21569604025241434,0.0
3.659996,0.1970255072286048,0.0
3.662343999999999,0.18021730532435185,0.0
3.664691999999999,0.16475957786045786,0.0
3.667031999999999,0.15102441188926033,0.0
3.669376,0.14129344741089653,0.0
3.6717239999999993,0.1344957492387279,0.0
3.674059999999999,0.12811735994713988,0.0
3.6763999999999992,0.11973686990913499,0.0
3.678744,0.1101456750576314,0.0
3.681092,0.10162541539276629,0.0
3.683424000000001,0.09110305498148435,0.0
3.685768,0.07984794800615017,0.0
3.688112,0.07160722759500548,0.0
3.6904559999999993,0.06536860793027764,0.0
3.6928,0.062203024198605204,0.0
3.695143999999999,0.06103954121334962,0.0
3.697492,0.0621576982282313,0.0
3.699836,0.06127375449669612,0.0
3.70218,0.060110271511440536,0.0
3.7045239999999993,0.06309075964587886,0.0
3.706852,0.06793357889987381,0.0
3.709192,0.06970336222081341,0.0
3.711535999999999,0.06933127516847593,0.0
3.713884,0.06788825292949992,0.0
3.71622,0.06537429550388538,0.0
3.718563999999999,0.06286033807827082,0.0
3.720912,0.0617894028916323,0.0
3.7232439999999993,0.06472266919782747,0.0
3.725588,0.07459340330305152,0.0
3.727931999999999,0.08511576371433346,0.0
3.730276,0.09470695856583708,0.0
3.732612,0.10395996479475442,0.0
3.734956,0.10684600927270643,0.0
3.737307999999999,0.10880088819088014,0.0
3.739647999999999,0.11075576710905384,0.0
3.741992,0.11042900602709027,0.0
3.744332,0.11117318013176522,0.0
3.746668,0.11205712386330038,0.0
3.749008,0.11308083722169576,0.0
3.751348,0.11503571613986949,0.0
3.753691999999999,0.11419709837870823,0.0
3.756032,0.11442941580418549,0.0
3.758372,0.119736869909135,0.0
3.760716,0.12117989214811101,0.0
3.763055999999999,0.12369384957372553,0.0
3.7654,0.12513687181270156,0.0
3.76774,0.12900130367867504,0.0
3.770083999999999,0.1269992029322582,0.0
3.772423999999999,0.11941010882717142,0.0
3.7747639999999993,0.10888774841588947,0.0
3.777108,0.10022771912416417,0.0
3.779451999999999,0.09464072576549426,0.0
3.781787999999999,0.09254607722046036,0.0
3.784127999999999,0.09217399016812287,0.0
3.786472,0.0877977016229517,0.0
3.78882,0.08389937132722702,0.0
3.79116,0.07785917065822526,0.0
3.793504,0.07275013554900181,0.0
3.795848,0.06764110043977839,0.0
3.798192,0.06146113014391641,0.0
3.8005359999999992,0.05714349096761108,0.0
3.80288,0.052825851791305764,0.0
3.80522,0.045435176681945064,0.0
3.8075639999999993,0.040977767878779534,0.0
3.809908,0.035589193515835685,0.0
3.81226,0.02926945359311351,0.0
3.8146,0.02080784329711428,0.0
3.816948,0.016210664867088536,0.0
3.819288,0.013336047929759226,0.0
3.82164,0.012603301365706978,0.0
3.823984,0.031069780213589977,0.0
3.826328,0.07862902126647045,0.012085565122714902
3.828671999999999,0.15770433000921516,0.021536710160893043
3.831019999999999,0.24878845151472248,0.030790015951315353
3.833364,0.3515074028727857,0.04047430960368007
3.835711999999999,0.4755316033350336,0.050037657513631505
3.838044,0.6354462641744475,0.05879806832938138
3.840384,0.8293909501293402,0.0668952773349794
3.842732,1.041862607765444,0.07482259900322973
3.845075999999999,1.2630830507761515,0.08293777085247518
3.84742,1.4934696921841744,0.09136664315957778
3.849764,1.7577919150511896,0.09946198954555167
3.852112,2.056144163033683,0.10720207697751176
3.854452,2.3719524475107496,0.1148734043157519
3.8567959999999992,2.6897118191902516,0.12280823244894293
3.859148,3.0177083244537077,0.13094413605028507
3.861488,3.374285735242962,0.13897551114605267
3.863828,3.774671357454305,0.14655897339646842
3.866171999999999,4.193912608286691,0.1539335945358329
3.868516,4.610687123521705,0.16129353379608222
3.870856,4.991595876925263,0.1687768097707569
3.873199999999999,5.339175349205511,0.16418251200772746
3.875551999999999,5.652817344168897,0.1622794988790101
3.8778919999999992,5.955940770436739,0.16052938038732656
3.880236,6.250829163867044,0.15829098504407837
3.882576,6.519233196174451,0.1561922891589436
3.884924,6.736895340976483,0.15505792564235665
3.88726,6.9092137043188355,0.15475383557345637
3.8896,7.061934160793339,0.15464105074404383
3.891943999999999,7.204695127079739,0.15436966317876252
3.894283999999999,7.344296197208075,0.15367959770847062
3.896628,7.445957484384586,0.15339266027362994
3.898971999999999,7.5113071064454795,0.15351178200124552
3.901311999999999,7.558362074250639,0.1537460810439007
3.903648000000001,7.608913178585175,0.1536409728952797
3.905992,7.650717393402974,0.1532907925194401
3.908336,7.661706284523081,0.15305564976201924
3.910684,7.626373006795487,0.15329439705872644
3.913024,7.570181999700429,0.15377752763703645
3.915367999999999,7.516737267456464,0.15425988867590504
3.917712,7.47679348790035,0.15462996053231498
3.920052,7.435918542784459,0.1550174473357133
3.9224,7.403144548452851,0.15530239632552903
3.924744000000001,7.370043793039279,0.15563678163014694
3.927095999999999,7.3412248825143935,0.15599174458475748
3.929435999999999,7.3216231839308055,0.15629650069501505
3.93178,7.322320136207237,0.15636791599113645
3.934123999999999,7.340429694865737,0.15620412606591857
3.93646,7.359051110203434,0.15604783909211284
3.938808,7.3836788277803835,0.15579213215573431
3.94116,7.4017883864388825,0.15563244849569982
3.9435,7.421947267672042,0.1553976339108738
3.9458439999999992,7.4408028962930866,0.15515517574377813
3.948188,7.462639013048569,0.1548266186145574
3.950536,7.482752568311355,0.1545243054100096
3.952876,7.504728454693697,0.15420122738085887
3.955219999999999,7.527355967382098,0.15387770815979493
3.957568,7.545000891189642,0.15366500289626767
3.959904,7.566882333915499,0.15340774334637602
3.962247999999999,7.59551425298528,0.15308827045847367
3.964596,7.641046921757933,0.15254777660711327
3.966932,7.688953778329339,0.15198642425385495
3.969275999999999,7.727968288183544,0.151529938582673
3.97162,7.766331171731691,0.151073146441288
3.9739679999999993,7.8025068589361855,0.15059641973783575
3.976308,7.8366351194238915,0.15009071790033257
3.978652,7.859217306141917,0.14971569409492383
3.981,7.864526656104738,0.14955000890940343
3.983336,7.871186480507917,0.14935037048968658
3.985683999999999,7.8786377008440125,0.14914951818535582
3.988028,7.893538245658338,0.14885651806294037
3.990371999999999,7.9076001727115,0.14860316636245313
3.992708,7.914445092711911,0.1484641931397946
3.995052,7.918589063831606,0.1483932305109703
3.997404,7.926457697190413,0.14827591149038646
3.999744,7.942427281333505,0.14807254145075674
4.002087999999999,7.959607570290096,0.14784347480830407
4.004432,7.9826090658887034,0.14745732357202476
4.006772,7.999651481076303,0.14712489535203382
4.009115999999999,8.012317607718732,0.1468432434563678
4.011455999999999,8.012039964322883,0.14675606432610377
4.0138,8.010319298688055,0.14667079940549124
4.016143999999999,8.010787725254747,0.14651258826836625
4.018488,8.011023834395964,0.14633232712538397
4.020828,8.00958270801486,0.1462336021823399
4.023171999999999,8.011259943537182,0.14615360989879225
4.025508,8.023319769843924,0.14594543739250934
4.027856,8.053630820293899,0.14549712177075166
4.030199999999999,8.088737468169624,0.1449932231281688
4.032539999999999,8.123564576791628,0.14451407105439562
4.034884,8.152664922428103,0.14411392398555514
4.037232,8.18181248989282,0.14367504085794525
4.039576,8.223671509970337,0.14302559614746024
4.041912,8.265158442995522,0.142357409004568
4.044264,8.30357234008765,0.14174994705415972
4.046604,8.32815852340996,0.1413033030888871
4.048956,8.34915981412002,0.14088920990019443
4.0513,8.370253652628696,0.14050226683646252
4.05364,8.396515175615463,0.14006997534297436
4.0559840000000005,8.425011116774122,0.1396380837036318
4.05832,8.451784496440085,0.13922169273037857
4.060668,8.480699746479326,0.13877146287193112
4.063003999999999,8.510638709876963,0.13833828371889506
4.065348,8.541741156259853,0.137919224076704
4.067691999999999,8.577406882643018,0.13742564361127907
4.070036,8.610326334175095,0.1369346160463457
4.072372,8.63635553973638,0.1365012874816719
4.074716,8.647578644139832,0.1362531405621202
4.077064,8.650653575930757,0.1361155548763333
4.079412,8.65000384548257,0.1360178529456191
4.081747999999999,8.649773423914962,0.13590193115841065
4.084088,8.655641852385221,0.13573816275266237
4.086432,8.660112584586878,0.13563641867743337
4.088771999999999,8.67105425387874,0.1355031698190593
4.091111999999999,8.678411030558351,0.13540212828148557
4.09346,8.6856280376111,0.135306395095562
4.095808,8.696010628395522,0.1351968714706458
4.098151999999999,8.71328346515073,0.13503804031238087
4.100491999999999,8.733489568212132,0.13484719875510365
4.102839999999999,8.749366604556606,0.1346593494727938
4.105176,8.766501567542823,0.13441884685029815
4.107524,8.781075351275181,0.13422588193479834
4.109867999999999,8.79401912131346,0.13407077827856448
4.112216,8.806311265045682,0.13391357634463433
4.114552,8.815857133926812,0.13375332468965812
4.116892,8.822469736501748,0.13362611003036182
4.11924,8.831409305047194,0.1335223719396773
4.121575999999999,8.853385191429535,0.1332924670602659
4.123923999999999,8.881507149677988,0.1329846052941744
4.126268,8.907674229008267,0.13266893843349337
4.128608,8.927695236472436,0.13243000633449567
4.130948,8.940359467256995,0.13228961483026824
4.133288,8.955305338041692,0.13211432130439366
4.135643999999999,8.964618889497343,0.1319345828753406
4.137983999999999,8.971325935728764,0.1317427417005045
4.140328,8.979103917146823,0.13153514332480154
4.1426680000000005,8.988744229684439,0.1313100359825882
4.145012,8.990283591437768,0.13115306277052166
4.147352,8.985212246474035,0.13103107411996157
4.149695999999999,8.977487174457826,0.13092900305892025
4.15204,8.968643945426738,0.13087365008151913
4.15438,8.968972602366572,0.13073825083575877
4.156723999999999,8.976146179306816,0.13049944313147832
4.159068,8.979642315836191,0.13026235924238397
4.161412,8.984069617925343,0.1300190162973899
4.163748,8.989008776693693,0.12978413272227263
4.166096,8.99543817952926,0.12951804380291848
4.168436,8.996467580461264,0.1292656769331556
4.170779999999999,8.99302814504948,0.12901734032079754
4.173124,8.988657544077917,0.12877661582208147
4.175468,8.99066533239794,0.12848365257671793
4.177816,8.998027796651158,0.12811975143424875
4.180156,9.00315584273248,0.1277591383912208
4.182504,9.00372060881353,0.12746402821990824
4.184851999999999,9.006240253812752,0.12717839142960022
4.187196,9.011925482543647,0.1268831614370269
4.189539999999999,9.01989235127468,0.12655636087512673
4.191884,9.032282730379128,0.12616814592764136
4.194236,9.047838693215244,0.1257700173371458
4.196576,9.064418369409758,0.12538864848203826
4.198919999999999,9.0771336137383,0.12504388893665258
4.201267999999999,9.079373719483803,0.1247694571271274
4.2036,9.073745191870497,0.12457728331262154
4.20594,9.076357384668336,0.12431959149208281
4.208283999999999,9.072264427092623,0.12415541995654551
4.210623999999999,9.070313339890188,0.12396403054420829
4.212968,9.06570852563528,0.1237904885206978
4.215316,9.061196259178987,0.12364314767059192
4.21766,9.055426066080953,0.12354681668076652
4.219996,9.052030060781671,0.12344388795815057
4.222344,9.046539406937358,0.12333593396616821
4.224691999999999,9.04184014902596,0.12322602509027547
4.227027999999999,9.037792517420622,0.12311975348777619
4.229367999999999,9.04161351917409,0.12293483384996998
4.231712,9.045574290554418,0.12274441149979916
4.23406,9.048651118203212,0.12253045304677312
4.236395999999999,9.0426486076797,0.12241278419333092
4.23874,9.035947249021888,0.12232331033914542
4.241088,9.027011472192179,0.122233801475173
4.24342,9.019705709056552,0.12210845253229727
4.245756,9.017055773719818,0.12194497454155817
4.248099999999999,9.022087480286784,0.1217415392408535
4.250448,9.03270618021242,0.12149240235773234
4.252787999999999,9.03638741233903,0.12131458340456336
4.255132,9.045563090025693,0.12106562333784927
4.257479999999999,9.053388293271995,0.12084152748509434
4.259815999999999,9.063867223570773,0.12060092596266636
4.262167999999999,9.072903131630573,0.12035796447111775
4.264512,9.08664208931751,0.12004640779837816
4.266852,9.098798255138608,0.11973892909699022
4.269195999999999,9.11547047913174,0.11940298166983224
4.27154,9.132562012005453,0.1190533958894403
4.273883999999999,9.147791213759607,0.11871871800176395
4.276216,9.15901621402093,0.11842485406314004
4.278556,9.17024121428225,0.11813143617842628
4.280899999999999,9.18290923678255,0.11784224246851553
4.283235999999999,9.207589863761346,0.1174373581331262
4.285572,9.230967238128027,0.11702533202508734
4.287915999999999,9.259791836226519,0.11658013301736997
4.290267999999999,9.291409931004349,0.11611844252934808
4.2926,9.323866643543337,0.11562733608262374
4.29494,9.347291239738263,0.11519175729370248
4.297283999999999,9.368993274440491,0.11476632157266244
4.299628,9.39204578358308,0.11431851486410059
4.301964,9.410954321605976,0.11391418638650327
4.304304,9.43056170776317,0.11348395921315607
4.306652,9.448306762800808,0.11306752348903883
4.308992,9.4696367104507,0.11263118030600541
4.311335999999999,9.48668291735404,0.11224315041475078
4.313675999999999,9.502378649817016,0.1118765763660279
4.31602,9.511276684107829,0.11156702340152501
4.318356,9.513888876905668,0.11132237212154249
4.3207,9.516640839330368,0.11107212851856668
4.323043999999999,9.521814211382067,0.1107881742800152
4.325388,9.526335957127706,0.11050005906460203
4.3277280000000005,9.52606210544759,0.11024895572415999
4.330072,9.517128224475755,0.11006564184047897
4.332416,9.506052473130639,0.10990480469133605
4.334768,9.487527397307298,0.10979349133707623
4.337116,9.466069055177762,0.10970521549526313
4.339464,9.445122569727422,0.1096254644417602
4.341808,9.433627509501727,0.10947963968183874
4.344151999999999,9.418779874089255,0.10937270070237949
4.346496,9.399648497930228,0.10931087681868931
4.348836,9.380796661024922,0.10923834621590019
4.351172,9.364458781545233,0.10915731885406425
4.35352,9.34905206762532,0.10906998130657092
4.355872,9.329129295533376,0.10900703960165746
4.358215999999999,9.313070955307404,0.10891462162325984
4.36056,9.302367291014628,0.10876597418017243
4.362904,9.294457123401187,0.10859909214911939
4.365243999999999,9.291482322840352,0.10839144891532979
4.367588,9.29009031414536,0.10818246576427067
4.369935999999999,9.284135025450087,0.1080285089140792
4.372287999999999,9.277341118993656,0.10790589428540771
4.374623999999999,9.274923501082394,0.1077639025907913
4.376968,9.276882171716306,0.10760261476642617
4.379315999999999,9.28228596533561,0.10742776453154142
4.381656,9.292857443433002,0.1072327167267211
4.383996,9.304080547836454,0.10704290269684576
4.386339999999999,9.315163882613042,0.10685982378948894
4.388691999999999,9.322522555150519,0.10670136205311975
4.391028,9.33523590362119,0.10648801386865216
4.393371999999999,9.35288461914447,0.1062345859737018
4.395728,9.373978457653147,0.10596905332550377
4.398068,9.392930425788544,0.1057274934922649
4.400411999999999,9.413744725043498,0.10547588146271555
4.402759999999999,9.441868579149817,0.10518603829436525
4.405108,9.467059166949943,0.104919126834245
4.407439999999999,9.485824143630238,0.10471706674416933
4.409784,9.50430958105681,0.10452553497839555
4.412136,9.522655248856527,0.10434009100614161
4.414475999999999,9.539138585536683,0.10416587117621967
4.41682,9.561628224456092,0.10394353129680152
4.41916,9.587610208189137,0.10367973999824433
4.421512,9.614151270429623,0.10339795300254884
4.423855999999999,9.639109540804274,0.10311834129497643
4.426204,9.664347350432644,0.10282979611619268
4.428552,9.68800236819518,0.10254296887052756
4.430895999999999,9.712588551517493,0.10225242510176165
4.43324,9.734101698906748,0.10198834799562341
4.435584,9.755335307042284,0.10173486175487455
4.437932,9.772285174431266,0.1015226711154325
4.440263999999999,9.78830387626047,0.10131639603496309
4.442612,9.803531182156755,0.10111144587288245
4.444951999999999,9.81503382581393,0.10092661069411232
4.447296,9.82174087204535,0.1007722795509621
4.449639999999999,9.824863025664518,0.1006344574739871
4.451984,9.831058215216743,0.10047213656218715
4.454331999999999,9.842608080702156,0.1002603038354755
4.456676,9.854437485441291,0.10003881885333181
4.459023999999999,9.865755033501232,0.09980828726794334
4.461368,9.878283286374668,0.09956310916828165
4.463711999999999,9.88829758182249,0.0993242337048609
4.466056,9.896449546150755,0.09909603188412881
4.468404,9.89831566898605,0.09892073824920108
4.470739999999999,9.900042022194487,0.09875047123643026
4.473075999999999,9.900045813910227,0.09858503552828861
4.47542,9.899118440066186,0.09842428430354329
4.477767999999999,9.893675008050117,0.09828228617931486
4.480108,9.88557784898157,0.09814919969868079
4.482452,9.877620459539884,0.09801117815460818
4.484795999999999,9.87594891159117,0.09782066320572733
4.487124,9.875348298829092,0.09762088774155887
4.4894680000000005,9.874096059760959,0.09741643647442186
4.491812,9.875777086999019,0.09719268705754221
4.494159999999999,9.883743955730052,0.09691733576111405
4.496495999999999,9.88863778852803,0.09666549087551261
4.498835999999999,9.892740225393087,0.09641457949207091
