Time,Force,Position
4.527331999999999,0.029206530000592337,0.0
4.529716,0.03295363263515401,0.0
4.532111999999999,0.035607359687628765,0.0
4.534499999999999,0.03719015155346498,0.0
4.536879999999999,0.03998364823279994,0.0
4.539283999999999,0.04543087196460966,0.0
4.541671999999999,0.053042406465144826,0.0
4.544052,0.06172487615231852,0.0
4.546447999999999,0.06810326544390656,0.0
4.548835999999999,0.07275909324279815,0.0
4.551215999999999,0.07662352510877164,0.0
4.55362,0.07862562585518851,0.0
4.556007999999999,0.082490057721162,0.0
4.558388,0.08514378477363674,0.0
4.560783999999999,0.08193097921372115,0.0
4.563171999999999,0.08351377107955738,0.0
4.565551999999999,0.08537610219911403,0.0
4.567947999999999,0.08737820294553089,0.0
4.570336,0.09233601039359128,0.0
4.57272,0.09433811114000815,0.0
4.575115999999999,0.09757335709537214,0.0
4.5775,0.09706150041617444,0.0
4.579895999999999,0.0951991692966178,0.0
4.582292,0.09224346259497422,0.0
4.584675999999999,0.08821682070669212,0.0
4.58706,0.0823278476988534,0.0
4.58946,0.07471631319831823,0.0
4.591848,0.06603384351114452,0.0
4.594228,0.05921370494352747,0.0
4.596623999999999,0.05318496230882852,0.0
4.599011999999999,0.04608528448749105,0.0
4.601392,0.03991677222593189,0.0
4.603796,0.03174615921795587,0.0
4.606184,0.025717416583256925,0.0
4.608563999999999,0.026508812516175036,0.0
4.61096,0.025577646956396714,0.0
4.613343999999999,0.030373244382148525,0.0
4.615728,0.031956036247984744,0.0
4.618123999999999,0.029953935501567896,0.0
4.620508,0.029534626620987263,0.0
4.622891999999999,0.026973447367129567,0.0
4.625287999999999,0.023738201411765584,0.0
4.627676,0.022644825829678663,0.0
4.630067999999999,0.022644825829678663,0.0
4.632467999999999,0.022644825829678663,0.0
4.634852,0.022644825829678663,0.0
4.637235999999999,0.022644825829678663,0.0
4.639632,0.022644825829678663,0.0
4.64202,0.022644825829678663,0.0
4.6444,0.022644825829678663,0.0
4.646795999999999,0.022644825829678663,0.0
4.649179999999999,0.022644825829678666,0.0
4.651564,0.022644825829678666,0.0
4.653959999999999,0.022644825829678666,0.0
4.656344,0.01982888875489531,0.0
4.658739999999999,0.016873182053251744,0.0
4.661136,0.010053043485634683,0.0
4.663524,0.006305940851073006,0.0
4.665903999999999,0.00335023414942944,0.0
4.6683,0.0006740667015062941,0.0
4.670687999999999,0.0017450018881448248,0.0
4.673068,0.006283500455624611,0.0
4.675472,0.009890833463326075,0.0
4.67786,0.015500267217444392,0.0
4.680239999999999,0.0203183050386446,0.0
4.682636,0.024065407673206276,0.0
4.685023999999999,0.024879244001572782,0.0
4.687404,0.026764015516577817,0.0
4.689804,0.02757785184494432,0.0
4.692192,0.027577851844944323,0.0
4.694572,0.030393788919727674,0.0
4.696967999999999,0.030393788919727677,0.0
4.699355999999999,0.030393788919727677,0.0
4.701752,0.030393788919727677,0.0
4.704152,0.030393788919727677,0.0
4.706535999999999,0.030393788919727677,0.0
4.70892,0.03039378891972768,0.0
4.711315999999999,0.03039378891972768,0.0
4.713703999999999,0.03039378891972768,0.0
4.716084,0.03039378891972768,0.0
4.718479999999999,0.028648787031582856,0.0
4.720867999999999,0.02411028846410307,0.0
4.723247999999999,0.020502955456401604,0.0
4.725644,0.014893521702283283,0.0
4.728032,0.010075483881083076,0.0
4.730411999999999,0.006328381246521401,0.0
4.732812,0.0055145449181548956,0.0
4.7352,0.0036297734031498605,0.0
4.737579999999999,0.002815937074783356,0.0
4.739976,0.00428139970920776,0.0
4.742363999999999,0.001465462634424404,0.0
4.744759999999999,0.007258096127907595,0.0
4.747156,0.026969095331953193,0.0
4.749543999999999,0.06781357144144126,0.0
4.751924,0.13458522602425435,0.007238953567131066
4.754319999999999,0.23193988687928413,0.014237829094589313
4.756707999999999,0.3591806017300987,0.020894973995812076
4.759087999999999,0.5050408360607411,0.027568935623536683
4.761483999999999,0.6585316987511057,0.03472275550452279
4.763872,0.8252855091302365,0.04229501655893999
4.766255999999999,1.022622325781584,0.049697181319746445
4.76866,1.2537096282946896,0.05676649908947095
4.771048,1.506209946966958,0.06376345758382909
4.773428,1.7718353395590016,0.07088712631738166
4.775823999999999,2.0583599957731415,0.07807270664121492
4.778211999999999,2.370020434527688,0.08526564903867445
4.780596,2.7075627257851855,0.09238158044256589
4.782991999999999,3.0586493998430386,0.09956583127180285
4.785379999999999,3.422861147820667,0.10683574444297358
4.78776,3.8030615738005737,0.11417739366671767
4.790159999999999,4.214845833836168,0.12141059948471805
4.792543999999999,4.641506302432767,0.12856395174628468
4.794923999999999,5.0594614157672675,0.1357353831696995
4.797323999999999,5.44841441883752,0.1430084709076117
4.799711999999999,5.79882323447813,0.14317534560519857
4.802091999999999,6.112689963435518,0.14363498585989268
4.804488,6.38414617723942,0.14461070282062297
4.806876,6.636471014884298,0.14556093330242176
4.809271999999999,6.886147813050309,0.14592109174123297
4.811668,7.126752856475489,0.1457599988176557
4.814056,7.327882546911252,0.14586548895498033
4.816439999999999,7.482597520700696,0.14649274341057628
4.818836,7.608682471278229,0.14732035702749244
4.821219999999999,7.716427441629651,0.1481189497968059
4.823603999999999,7.798337781306369,0.14894072541963466
4.826007999999999,7.856183273629318,0.14973335019026157
4.828395999999999,7.892942510875066,0.15052593747734608
4.830775999999999,7.918950861999795,0.1512093841270248
4.833171999999999,7.930995521443587,0.15185195231622123
4.83556,7.927588140997092,0.1523881934875023
4.837943999999999,7.8911763446513845,0.15304234009126982
4.840339999999999,7.830138726586595,0.1538073073477068
4.842728,7.760303205461091,0.15460243964498918
4.845107999999999,7.700990044746867,0.15526154592556451
4.847504,7.6582980944817916,0.15571782251518376
4.849892,7.622636159814365,0.15610038820931021
4.852275999999999,7.607087780409724,0.15619546226174097
4.854672,7.595868467722008,0.1562783204585181
4.85706,7.579619344325196,0.15650901757257943
4.859443999999999,7.564346712458536,0.15678769501254558
4.86184,7.559177132122578,0.15694320212564208
4.864228,7.570024357757955,0.1568446784978854
4.866607999999999,7.592744418244972,0.15655782611179078
4.869008,7.629199644703186,0.15606144358613944
4.871396,7.677015849333843,0.15537289148381334
4.873779999999999,7.723668570979245,0.1546777546688254
4.876176,7.757284974787752,0.15415349123002586
4.878564,7.787968112290062,0.15367677030447927
4.880943999999999,7.823354299419507,0.15310342755708467
4.88334,7.861673752855148,0.15249632399414986
4.885732,7.903158790022461,0.15186668467828573
4.888111999999999,7.947297554242249,0.15120164526956562
4.890512,7.999257729992601,0.15045396920379384
4.8929,8.052381388728211,0.1497261709718182
4.895279999999999,8.102571781157621,0.1490515287236163
4.897676,8.148944963549303,0.1483951745466217
4.900059999999999,8.18190974105175,0.14789434804878585
4.902451999999999,8.206121941463858,0.1474823119182459
4.904847999999999,8.23275555150296,0.14701936412973285
4.907232,8.255199864451995,0.14656520547714832
4.909612,8.275829068109717,0.14610035408030136
4.912015999999999,8.28966057359527,0.14573094570639594
4.914404,8.301070669453827,0.14541552275561262
4.91678,8.309267959752466,0.1451604679904453
4.919183999999999,8.312250343744774,0.14498895450809293
4.921571999999999,8.311647835124827,0.144853413706274
4.923951999999999,8.315701154303772,0.1446604798658701
4.926351999999999,8.322920057214391,0.14445050140012825
4.928739999999999,8.331581982363987,0.14424168923825328
4.931119999999999,8.335076223035493,0.14407951828301324
4.933516,8.337966059229183,0.1438805044089878
4.935899999999999,8.339225881728792,0.1437236257260707
4.938295999999999,8.338902912362569,0.14357628833484026
4.940699999999999,8.335833668145252,0.1434266812271132
4.943084,8.333742811315956,0.14323273202757342
4.945463999999999,8.329370314486523,0.14307727365376693
4.947867999999999,8.33333108586685,0.14286144841278342
4.950255999999999,8.351119571016994,0.14249638142508037
4.952635999999999,8.372400400980775,0.14207405829084047
4.955032,8.391259821317558,0.14169848239378716
4.957415999999999,8.404205487213705,0.14142841665971362
4.959799999999999,8.41910603202803,0.14116311126133063
4.962191999999999,8.42841958348368,0.14095978762407307
4.964579999999999,8.42991172340877,0.14082588356911413
4.966959999999999,8.427446883669269,0.14071175217484083
4.969364,8.425074591728384,0.14062529036572954
4.971747999999999,8.429732315385145,0.14047358865151366
4.974132,8.433506095310369,0.14029870888383233
4.976535999999999,8.428155211092916,0.14018733757435847
4.97892,8.420290369449846,0.14009375433992258
4.9813,8.409537587470957,0.14010134786298264
4.983695999999999,8.404883655529934,0.14005522067475948
4.986079999999999,8.40130065877555,0.13999227935174016
4.988459999999999,8.39776488384941,0.13989452595729085
4.990856,8.391667929669412,0.13984892857094483
4.993244,8.395254718139535,0.13971727637292664
4.995639999999999,8.398981276236515,0.13958025657271964
4.998036,8.394654105377457,0.139486854423441
5.000419999999999,8.381853896681777,0.13945266389277658
5.0028,8.36719135686654,0.13943807051884466
5.005204,8.365704904515058,0.13928092887057014
5.007587999999999,8.369992436977352,0.1390260710691828
5.009971999999999,8.380473263133998,0.1386541847440772
5.012375999999999,8.394446434104282,0.13822175655317692
5.014763999999999,8.413959376604991,0.13776615584802465
5.017143999999999,8.442364665822904,0.13723430984299329
5.01954,8.467744140936002,0.13671347366510428
5.021923999999999,8.489538723436848,0.13622571820244633
5.024304,8.517152616721843,0.13570186808606988
5.026708,8.549095576723765,0.13517654358940256
5.029096,8.589186709338213,0.13454589002393802
5.031475999999999,8.624157379302815,0.13392148092089853
5.033879999999999,8.649304536990439,0.13338053318183216
5.036267999999999,8.672262602476541,0.1329057107736698
5.038647999999999,8.697315316507677,0.13243462510562
5.041043999999999,8.717340115687584,0.13199874742366843
5.043428,8.72740163296365,0.1316499747781099
5.045808,8.73276010061258,0.13138076842646668
5.048203999999999,8.743378800538217,0.1311020443090436
5.050591999999999,8.763029616807918,0.13074416092982888
5.052972,8.77765251822639,0.1304223166000014
5.055367999999999,8.785477721472692,0.13017703421933954
5.057755999999999,8.790322436584557,0.12999911446751736
5.060152,8.796982260987734,0.12983795131712839
5.062547999999999,8.798334631285963,0.12971761909569987
5.064932,8.791353733374429,0.12964301000340192
5.067311999999999,8.782091195462758,0.1296036883049999
5.069715999999999,8.77613401090962,0.12954729809255094
5.072103999999999,8.767243560050286,0.12952289152449764
5.074488,8.757049856578838,0.12949183863966385
5.07688,8.739267059002303,0.12953510001533577
5.079268,8.727024032956193,0.12955919572405425
5.081647999999999,8.725675454373706,0.129492652917393
5.084048,8.72847084691091,0.1293745418463855
5.086431999999999,8.732244626836135,0.12921605456707788
5.088815999999999,8.737181889746614,0.1290702855775296
5.091207999999999,8.754503844187933,0.1288031031448495
5.093595999999999,8.777832100868505,0.12846681757567063
5.095992,8.799065709004042,0.12812864717091477
5.098387999999999,8.814991863034628,0.12783231883569648
5.100775999999999,8.830358938557774,0.1275609566832015
5.10316,8.85117323781273,0.12724700740220565
5.105564,8.872826154828848,0.12689911030794537
5.107948,8.888892078486293,0.12659984953972045
5.110331999999999,8.91254709624883,0.12623218517618898
5.112728,8.945094460728566,0.12580466594777104
5.115111999999999,8.97978369558158,0.12534873778831412
5.117496,9.012238512262698,0.12489568295515942
5.119891999999999,9.048977069690372,0.1243907888935141
5.122279999999999,9.086786562304685,0.12387472779684022
5.12466,9.130742126785107,0.123290872174602
5.127064,9.172742812347357,0.12270257415245293
5.129452,9.209575813431515,0.12214866628750293
5.131832,9.244686253022978,0.12160919624919339
5.134227999999999,9.27565272149475,0.12111828958484563
5.136615999999999,9.30838897328746,0.12059007156629606
5.138996,9.337400562841054,0.12009721226393517
5.141395999999999,9.36655192202151,0.11960297601687922
5.143783999999999,9.395144202694524,0.11913147342951773
5.146164,9.422665548180904,0.11867301585543176
5.148559999999999,9.446602001055025,0.11823692985953249
5.150947999999999,9.468955662063312,0.11780734393200387
5.153327999999999,9.491541640497076,0.11739931103653597
5.155732,9.518271590050535,0.11694651329462191
5.158119999999999,9.538203841431827,0.11655576293236172
5.1605,9.54961583314825,0.11623415320580037
5.162904,9.564100860797732,0.1158834387333319
5.165292,9.578957975499549,0.1155473401109878
5.167671999999999,9.58981088870853,0.11525029514674351
5.170068,9.597450996357601,0.11498916601447766
5.172456,9.5975945577002,0.11481184008312811
5.174839999999999,9.591452277549829,0.11470072884321053
5.177236,9.58582185407865,0.11459873429797815
5.179619999999999,9.57818932986106,0.11451526381789247
5.182004,9.572279367136165,0.11442365008326758
5.184407999999999,9.563947994784273,0.11436638527867492
5.186792,9.551472651312686,0.11435132575991312
5.189175999999999,9.538205911908182,0.11433682812319838
5.191572,9.52414777657076,0.11432358349515707
5.19396,9.511951972352895,0.11429702997654406
5.19634,9.501338960000865,0.11426808656507578
5.198735999999999,9.48779268134264,0.11426377545473038
5.201123999999999,9.474805481191856,0.1142378907004832
5.203504,9.463540842533769,0.11420387619137197
5.205899999999999,9.45120526868904,0.11418173815437738
5.208284,9.44301366596401,0.11411779959952659
5.210675999999999,9.429746926559504,0.11410147306680778
5.213072,9.41582856084894,0.11408094895917106
5.215455999999999,9.404843461444575,0.11403565804723953
5.217835999999999,9.397210937226985,0.11395014372214839
5.220228,9.395072858569446,0.11380103090471473
5.222616,9.398661542897436,0.11360761821769445
5.225011999999999,9.401458831292508,0.11341525722233944
5.227403999999999,9.401043314127666,0.11325725070928518
5.229791999999999,9.399556861776185,0.11311090811937231
5.232171999999999,9.397279013491788,0.11296561223643059
5.234564,9.399145136327084,0.11277818974483514
5.236952,9.397658683975603,0.11263144020709477
5.239344,9.396312001250982,0.11247911883648377
5.241739999999999,9.396036253713001,0.11231558520765232
5.244127999999999,9.396971210988518,0.11213490311145315
5.246508,9.39855779457009,0.1119579665809332
5.248912,9.397443429270947,0.11182590295334113
5.2513,9.390742070613136,0.1117322145273122
5.253676,9.3861825823286,0.11161474740761958
5.256071999999999,9.378270518857287,0.11153777833096143
5.258456,9.375293822438586,0.11141815724091485
5.260851999999999,9.375250392326082,0.11127432671173013
5.263248,9.371062991093885,0.11117175070225069
5.265631999999999,9.368458381727523,0.11106752526614706
5.268012,9.36557423310744,0.1109739912311287
5.270416,9.364040558927716,0.11085887413448064
5.272799999999999,9.36436921586755,0.11073164238678193
5.27518,9.372054649486989,0.1105305662605292
5.277584,9.38123032717365,0.11030257377473957
5.279972,9.389195300046813,0.11009045946139481
5.282351999999999,9.399162373666394,0.10986272181160359
5.284748,9.408477820979918,0.1096292921206101
5.287131999999999,9.419935138666716,0.10937392807087921
5.289528,9.424594758181348,0.10917054084863227
5.291932,9.430325312882616,0.10895647468691941
5.294315999999999,9.43940844277066,0.10870427184887405
5.296691999999999,9.448399024860086,0.1084259336035771
5.299087999999999,9.45818100288243,0.10814545705058465
5.301472,9.473177887211108,0.10781629080227678
5.303852,9.49124780747284,0.10745875275231882
5.306243999999999,9.503451195122182,0.10714764174887018
5.308631999999999,9.515002956465468,0.10683401327069034
5.311023999999999,9.530838458555309,0.10647694063804336
5.313427999999999,9.542157902473116,0.10614458025371165
5.315815999999999,9.554688051204423,0.10579809748335972
5.318196,9.562143063256256,0.1054954972638622
5.3206,9.569877614561808,0.10518384480222598
5.322983999999999,9.574399360307446,0.10490568153089885
5.325364,9.581714602732417,0.10461257593870105
5.327768,9.591451254784387,0.1042879844369037
5.330156,9.596112770156886,0.10400644736074591
5.332536,9.608642918888192,0.10366808023473277
5.334931999999999,9.622895629112193,0.1033265348114707
5.337315999999999,9.643014871948584,0.10294205228760576
5.339695999999999,9.662994345158115,0.10256432294115017
5.342099999999999,9.684044753554284,0.10218021834995092
5.344483999999999,9.707888658629791,0.10178157346123713
5.346863999999999,9.736947470011625,0.10133931180578365
5.34926,9.762793475833547,0.10093143295368408
5.351648,9.788919020909189,0.10051592980860062
5.354027999999999,9.819048767477668,0.10007061187088856
5.356431999999999,9.848619435538701,0.09964719182379204
5.358816,9.875117067666682,0.09924978981089833
5.361195999999999,9.903337261287357,0.09884750579261514
5.363592,9.926342548601703,0.09848902306088234
5.36598,9.955074598901577,0.09809735561013086
5.368372,9.980174534760955,0.09774913360368756
5.370775999999998,10.005274470620337,0.09740160123209309
5.373164,10.024228334613605,0.09710266503401295
5.375543999999999,10.046767091219124,0.09679224010423076
5.37794,10.072378883757702,0.09645838211911884
5.380323999999999,10.08597807181778,0.09620922837688152
5.382704,10.097714928758297,0.09597104473286823
5.385108,10.108241080885318,0.09574761344430466
5.387491999999999,10.117184441146502,0.09552419355112854
5.389872,10.11797962879516,0.09536066794961032
5.392276,10.119426442749875,0.09520280374110668
5.394664,10.118591616704455,0.09506869880495858
5.397044,10.116406316218672,0.09495326197264159
5.399439999999999,10.111939375732753,0.09486065961947432
5.401823999999999,10.103468233754,0.0947946801735291
5.404208,10.09220359509591,0.09474163697043692
5.406603999999999,10.080147560504905,0.09468798453187283
5.408988,10.06716036035412,0.09463846570405941
5.411383999999999,10.057525735390112,0.09455684575427217
5.413787999999999,10.047239484120047,0.09447006369677045
5.416171999999999,10.041796052103976,0.0943286391928323
5.418547999999999,10.039565425647819,0.09416094075939956
5.420955999999999,10.044551806244412,0.093941088695286
5.423339999999999,10.043951193482336,0.09374666188491047
5.425719999999999,10.042419415160483,0.0935566272967005
5.428116,10.053040010943988,0.09328514369327813
5.430499999999999,10.059656405234662,0.09303894816632034
5.43288,10.065621173219276,0.09278753904943239
5.435271999999999,10.07330850269659,0.09253315195344289
5.437656,10.087793530346069,0.09224060380685845
5.440051999999999,10.098693665383298,0.09195999740068769
5.442448,10.107731469300967,0.09168772303230167
5.444836,10.114255315793024,0.09141747348696441
5.447216,10.121850097471716,0.09113851933748016
5.449619999999999,10.135451181389664,0.0908222039149071
5.452004,10.150123200494248,0.09049654566235257
5.454384,10.165307076278028,0.09018012561150654
5.456787999999999,10.182632822435087,0.08984716929801768
5.459175999999999,10.199539259711564,0.08952876727153004
5.461555999999999,10.212581265122068,0.08923145880144678
5.463959999999999,10.221479299412879,0.08896434073662372
5.466343999999999,10.226093592957136,0.0887318939655617
5.468728,10.22563274982192,0.08853301240739027
5.471127999999999,10.226754698552538,0.08833553910307368
5.473515999999999,10.224663841723242,0.088162649588898
5.475896,10.217218308960755,0.0880318479642908
5.478291999999999,10.21391674731796,0.08787238598771138
5.480676,10.215271013474057,0.08769521748686458
5.483055999999999,10.2135522436971,0.08753794218211446
5.485452,10.207829272427308,0.08740420561757938
5.487839999999999,10.204760028209993,0.08726409547268271
5.49022,10.20089938805976,0.08712270425465446
5.492615999999999,10.200903179775498,0.08696223109068303
5.495003999999999,10.201186510744957,0.08679280764829556
5.4974,10.197605409848439,0.08664240982772581
5.499795999999999,10.197237114511841,0.08646823950779157
5.50218,10.202223495108436,0.08625506405955165
5.504559999999999,10.20478846607803,0.08606685208162215
5.506956,10.208424372234264,0.08587106239127747
