Time,Force,Position
5.482712,0.0,0.0
5.485092000000001,0.0,0.0
5.487495999999999,0.0,0.0
5.48988,0.0,0.0
5.492259999999999,0.0,0.0
5.494656,0.0,0.0
5.497039999999999,0.0,0.0
5.499436,0.0,0.0
5.5018400000000005,0.0,0.0
5.504224,0.0,0.0
5.506604,0.0032933782512410735,0.0
5.509,0.007517922062260467,0.0
5.511387999999999,0.012953170686778603,0.0
5.513768,0.017457253751518416,0.0
5.516164000000001,0.023172041629756973,0.0
5.518552000000001,0.029026599134855734,0.0
5.520931999999999,0.03222742958747975,0.0
5.523324,0.03542826004010377,0.0
5.525712,0.04170212642578317,0.0
5.5281080000000005,0.04811576243832277,0.0
5.530512000000001,0.055740103264361116,0.0
5.532896,0.06443537927703799,0.0
5.5352760000000005,0.07191995047621613,0.0
5.537679999999999,0.08340872316822798,0.0
5.540068000000001,0.09089329436740612,0.0
5.542447999999999,0.09865740482030466,0.0
5.54484,0.1052108104597045,0.0
5.547228,0.11269538165888263,0.0
5.549604,0.11431342024567043,0.0
5.552008,0.11431342024567041,0.0
5.554396,0.11102004199442934,0.0
5.556776,0.10679549818340997,0.0
5.5591800000000005,0.10136024955889184,0.0
5.561564,0.09685616649415202,0.0
5.563944,0.0914089427623423,0.0
5.5663480000000005,0.08555438525724351,0.0
5.568736,0.0823535548046195,0.0
5.571112,0.07928051887156412,0.0
5.573516000000001,0.07300665248588474,0.0
5.575904,0.06659301647334513,0.0
5.578283999999999,0.058968675647306776,0.0
5.580687999999999,0.0502733996346299,0.0
5.583075999999999,0.042788828435451766,0.0
5.585451999999999,0.03130005574343992,0.0
5.587856,0.023815484544261783,0.0
5.590243999999999,0.016051374091363223,0.0
5.592624,0.009497968451963408,0.0
5.595020000000001,0.00201339725278527,0.0
5.597408000000001,0.00039535866599747565,0.0
5.599787999999999,0.00039535866599747576,0.0
5.602192,0.00039535866599747576,0.0
5.604576000000001,0.00039535866599747576,0.0
5.60696,0.00039535866599747576,0.0
5.609364,0.00039535866599747576,0.0
5.611748,0.00012779451956863278,0.0
5.614128,0.00012779451956863278,0.0
5.616535999999999,0.00012779451956863278,0.0
5.61892,0.0,0.0
5.621300000000001,0.0,0.0
5.623696,0.0,0.0
5.626084,0.0,0.0
5.62846,0.0,0.0
5.630864,0.0,0.0
5.633252,0.0,0.0
5.635632,0.0,0.0
5.6380360000000005,0.0,0.0
5.640424,0.0,0.0
5.642803999999999,0.0,0.0
5.6452,0.0,0.0
5.647583999999999,0.0,0.0
5.649968,0.0,0.0
5.652364,0.0,0.0
5.6547480000000006,0.0028287434002865343,0.0
5.657127999999999,0.005797256427433279,0.0
5.659527999999999,0.007415295014221072,0.0
5.661916000000001,0.010244038414507606,0.0
5.664295999999999,0.012141616255015818,0.0
5.666692,0.013108028535745712,0.0
5.66908,0.013143275256697286,0.0
5.671460000000001,0.01424945716428739,0.0
5.673863999999999,0.019220070937850987,0.0
5.676252000000001,0.023259519151636262,0.0
5.678632,0.028230132925199856,0.0
5.681028,0.03199004188526471,0.0
5.683416,0.036681116405107884,0.0
5.685796000000001,0.038438924618755886,0.0
5.688192,0.041127898392182206,0.0
5.690575999999999,0.04112789839218222,0.0
5.692972,0.04112789839218222,0.0
5.695367999999999,0.04112789839218222,0.0
5.697755999999999,0.04112789839218222,0.0
5.70014,0.04112789839218222,0.0
5.702535999999999,0.038299154991895686,0.0
5.704923999999999,0.03533064196474894,0.0
5.707304,0.03371260337796115,0.0
5.709708,0.03088385997767461,0.0
5.712091999999999,0.028986282137166395,0.0
5.714476,0.028019869856436504,0.0
5.716872,0.027984623135484932,0.0
5.719259999999999,0.02687844122789483,0.0
5.72164,0.021907827454331234,0.0
5.724035999999999,0.017868379240545955,0.0
5.72642,0.012897765466982363,0.0
5.728815999999999,0.009137856506917504,0.0
5.73122,0.004446781987074329,0.0
5.733607999999999,0.002688973773426325,0.0
5.735988,0.0,0.0
5.738392,0.0,0.0
5.74078,0.0,0.0
5.7431600000000005,0.0,0.0
5.745563999999999,0.0,0.0
5.747952000000001,0.0,0.0
5.750331999999999,0.0,0.0
5.752736,0.0,0.0
5.755124,0.0,0.0
5.757504,0.0,0.0
5.759899999999999,0.0,0.0
5.762284,0.0,0.0
5.764668,0.0,0.0
5.767064,0.0,0.0
5.769448,0.0,0.0
5.771832000000001,0.0,0.0
5.774228,0.0,0.0
5.776616,0.0,0.0
5.778996,0.0,0.0
5.7814000000000005,0.0,0.0
5.783788,0.0026417519451831734,0.0
5.786167999999999,0.0071458350099229875,0.0
5.788564,0.01137037882094238,0.0
5.790952,0.017736793005238838,0.0
5.793332,0.026245077562812358,0.0
5.795732,0.031820095814190694,0.0
5.79812,0.039397214811985895,0.0
5.8005,0.04604316825000277,0.0
5.802896,0.051897725755101536,0.0
5.805284,0.05388785139422681,0.0
5.807664,0.05587797703335209,0.0
5.810068,0.05587797703335209,0.0
5.812456,0.05587797703335209,0.0
5.814832,0.05587797703335209,0.0
5.817227999999999,0.05679716748583883,0.0
5.819615999999999,0.058787293124964106,0.0
5.821996,0.05970648357745085,0.0
5.8243920000000005,0.05970648357745085,0.0
5.82678,0.05970648357745085,0.0
5.829159999999999,0.059706483577450856,0.0
5.831556,0.05706473163226768,0.0
5.833944,0.052560648567527866,0.0
5.836324,0.04833610475650848,0.0
5.83872,0.04196969057221202,0.0
5.841107999999999,0.03346140601463849,0.0
5.843492,0.02788638776326015,0.0
5.845888,0.02030926876546495,0.0
5.848275999999999,0.013663315327448074,0.0
5.850672,0.007808757822349308,0.0
5.853068,0.005818632183224034,0.0
5.855455999999999,0.0038285065440987606,0.0
5.857836,0.0038285065440987606,0.0
5.860231999999999,0.0038285065440987606,0.0
5.862620000000001,0.0038285065440987606,0.0
5.864999999999999,0.0029093160916120173,0.0
5.867396,0.0009191904524867432,0.0
5.86978,0.0,0.0
5.8721760000000005,0.0,0.0
5.874572,0.0013384993330673738,0.0
5.87696,0.0013384993330673735,0.0
5.87934,0.002537229039274537,0.0
5.881735999999999,0.005738059491898551,0.0
5.88412,0.009870055504300887,0.0
5.886504,0.01186018114342616,0.0
5.888903999999999,0.015852407528968285,0.0
5.891291999999999,0.01691136760831524,0.0
5.893672,0.01691136760831524,0.0
5.8960680000000005,0.016911367608315242,0.0
5.898456,0.016911367608315242,0.0
5.900835999999999,0.016911367608315242,0.0
5.903232,0.016911367608315242,0.0
5.905615999999999,0.02242589302636573,0.0
5.908012,0.05461177102241621,0.0
5.910407999999999,0.1123999622676974,0.011830543514143341
5.912795999999999,0.18522278038055348,0.02280829514682671
5.915176,0.2718695205474856,0.03338434609696043
5.917572000000001,0.37755319321695696,0.04358964059727749
5.9199600000000006,0.5076738002925343,0.05334971019580362
5.922339999999999,0.6622905387097522,0.06261103624928158
5.924736,0.8399383318729208,0.0714714872775461
5.927124,1.029978999958481,0.0802573996544708
5.929519999999999,1.2355189297625706,0.08897772798235623
5.931912,1.462330210241094,0.09763010101219247
5.9343,1.728339200313185,0.10578376732916098
5.93668,2.009382817252851,0.11386590076568753
5.939075999999999,2.307043852925928,0.12197501963243494
5.94146,2.6201449533819994,0.13019391029308014
5.943855999999999,2.961315102684674,0.13828736045870801
5.946252,3.3319066711321788,0.14612719696838844
5.948636,3.717022905625929,0.15384671122016713
5.951016,4.109588464597907,0.16146524536045928
5.95342,4.50013184296547,0.16901194371750208
5.955808,4.859674802038107,0.17656858243031617
5.958188000000001,5.196968023048287,0.1722302097118892
5.960584,5.524022214616644,0.1686784254380224
5.962967999999999,5.832596656332035,0.1655875722687646
5.965348,6.11975997774613,0.1628826117343275
5.967752,6.377877758783473,0.16064659157651615
5.97014,6.60462113761568,0.15894613168200133
5.97252,6.80608706842275,0.15768997510522015
5.974924000000001,6.994193712026698,0.15653210831127332
5.977308,7.164891540964317,0.15547086946801325
5.979688,7.316320119973922,0.15443188195843333
5.982084,7.422963996031286,0.1540101043184204
5.984471999999999,7.513734627459916,0.1536705394399622
5.986852,7.5906813368344705,0.15331141827294043
5.989247999999999,7.651943688893258,0.1528393183232319
5.991636000000001,7.688117480239884,0.15240707939269915
5.994027999999999,7.686489362403677,0.15234799948290825
5.996432,7.667543081841885,0.15245030629535092
5.998816000000001,7.649016110160675,0.15252310051880477
6.001195999999999,7.635144966278354,0.15252813923033606
6.003592,7.6248114931800455,0.15252857254130028
6.00598,7.609402883402266,0.15261149679558322
6.008363999999999,7.586357957691154,0.15283761815993815
6.010763999999999,7.568573264256749,0.1530448320550171
6.013152000000001,7.5507413489941,0.15329289508070057
6.015531999999999,7.542313637127852,0.1534443063193395
6.017928,7.547154560523975,0.1534431032423852
6.020316,7.558885729890887,0.15337050856595372
6.0227,7.572479230377358,0.1532728042971027
6.0250960000000005,7.5909155501178205,0.15307011956915126
6.02748,7.605394890193693,0.15289528583305603
6.029863999999999,7.622994488030866,0.15262469641396298
6.032255999999999,7.636637106203445,0.1523797455190261
6.034643999999999,7.652653912174777,0.15211914699135617
6.037036,7.674210489676538,0.15182276283652846
6.039435999999999,7.696139154230638,0.1515490589650801
6.04182,7.7338050855023495,0.15103538163244104
6.044204,7.778780571625432,0.15043212916828175
6.046600000000001,7.813558562561325,0.15003682497143186
6.048984,7.838698136817472,0.14981910297498308
6.051364,7.865467724767697,0.1495558596557279
6.05376,7.886650319359251,0.14935876851014654
6.056152,7.910022006152328,0.14908257803746888
6.058528,7.941589087386175,0.14864397349407085
6.060935999999999,7.981863419739991,0.14805127875305707
6.06332,8.013385175003464,0.14755244387301522
6.0657000000000005,8.025072914257873,0.14731429996491302
6.068103999999999,8.031173660153609,0.1471478664714355
6.070492000000001,8.033130434929651,0.14704997481276996
6.072871999999999,8.029872303399364,0.14703994479595486
6.075268,8.028988359667828,0.14701506486302077
6.077656,8.034575353026499,0.14694395818521622
6.080036000000001,8.045981657169317,0.1468243444265027
6.082439999999999,8.058970753177972,0.1466962782721019
6.084827999999999,8.07172753176115,0.1465485722290089
6.087208,8.078385460306459,0.14646170187194296
6.0896040000000005,8.07223938844035,0.1465568392273746
6.091992,8.06008701433499,0.146739518853303
6.094376,8.05263768985676,0.14683042462230736
6.0967720000000005,8.05082258056545,0.14681723671964542
6.09916,8.048076305714359,0.14681511051100748
6.101539999999999,8.054781456087909,0.14669306145958635
6.103936,8.061159845379496,0.14661999683184077
6.106324,8.06162448023045,0.14666440234085015
6.108719999999999,8.057013978401933,0.146782513109981
6.1111200000000006,8.05547651250647,0.1468553045731857
6.113504,8.068186069261404,0.14674805465328555
6.115887999999999,8.086203080121285,0.14658656611490067
6.118284,8.113346650981716,0.14625793494118178
6.120672,8.142679314043669,0.14586043563920564
6.123052,8.166052896694612,0.14551263414424107
6.125448,8.181837385240472,0.14525788252411947
6.127835999999999,8.196458390801073,0.14499408470190656
6.13022,8.213408258190057,0.14465881883725873
6.132616,8.226261376287587,0.1443541092594699
6.135000000000001,8.23748448069104,0.14408992122311493
6.137379999999999,8.250522694385806,0.14383455008700313
6.139784,8.27021883662588,0.143496673740957
6.142172,8.290753596627116,0.14312305569287603
6.144548,8.307191607336899,0.14278111660261883
6.146952,8.315993302113354,0.142563643785687
6.14934,8.319440320956616,0.14243339040247704
6.15172,8.330523655733208,0.14217600204953862
6.154124,8.341701434166287,0.14185143428954516
6.156512,8.35092433368119,0.14152043513587123
6.158892000000001,8.360239780994712,0.1412175367960434
6.161295999999999,8.366854279427516,0.1409753949613418
6.163683999999999,8.373515999688564,0.14070071092035435
6.166064,8.370866064351826,0.1405306327165388
6.1684600000000005,8.36207005714898,0.1404470133702812
6.170848,8.357603116663062,0.1403593294757329
6.173227999999999,8.364170393267623,0.14015395027005204
6.175624,8.373810705805237,0.13990757620575617
6.178012,8.374279132371928,0.13975717192047843
6.180392,8.371394983751847,0.13966192681427306
6.182788,8.373538749982993,0.13953097203566883
6.185172000000001,8.383458601774329,0.139271028549687
6.187551999999999,8.388769847595018,0.1390294106388838
6.189948,8.391846675243812,0.13879400287879617
6.192336,8.39129138845211,0.13862542904365335
6.1947280000000005,8.408195929870718,0.13824770152198848
6.197124,8.432177708715217,0.13777561620434203
6.199512,8.450340176775565,0.13734746066081374
6.201892,8.461937264089224,0.1370213700543837
6.204296,8.475861317373395,0.1367200289422843
6.206684,8.494021889575876,0.13639089850078198
6.209064000000001,8.518235985845852,0.13595610316722348
6.211467999999999,8.539004959130436,0.13554934280352146
6.213852,8.563219055400412,0.13511746479461448
6.216235999999999,8.592461066521615,0.13465136198713845
6.21864,8.626126588016232,0.1341207692538686
6.221023999999999,8.653181402793784,0.13363182156247277
6.223408,8.667851526040497,0.13327358700315023
6.225812,8.686478628951802,0.13289883456203616
6.228196,8.713206682647392,0.1324541088722655
6.230576,8.743566850783477,0.1319497751553577
6.23298,8.766337924814476,0.13152577988132394
6.235368,8.786827358845338,0.13113793217672162
6.237748000000001,8.806990031794237,0.13079720942818535
6.240151999999999,8.83646436034092,0.13036823979425347
6.242539999999999,8.850760500677424,0.13009720682757703
6.24492,8.86282222284204,0.12983151572695847
6.2473160000000005,8.870041125752655,0.12964743751011917
6.249704,8.881636317208445,0.12943050476806323
6.252083999999999,8.892068025678979,0.12920204544558306
6.25448,8.897099732245946,0.1289876896483951
6.256863999999999,8.895705827693083,0.12886183959537487
6.259244,8.894684010192556,0.12875098828960102
6.261652000000001,8.895384754184725,0.1286295115065393
6.264036,8.897715511870976,0.12847085711871958
6.266416,8.895250672131473,0.12836035757295633
6.268820000000001,8.895160020190724,0.12824233254083645
6.271208000000001,8.907593829407675,0.1279982156223099
6.273587999999999,8.921517882691845,0.1277242055989718
6.275984,8.926409819631955,0.127521221234225
6.278372,8.924364288773033,0.127393396997195
6.280752000000001,8.92897668645942,0.12720260832637081
6.283148,8.932937457839751,0.12700744550237122
6.285531999999999,8.935874515861682,0.1267939511710874
6.287912,8.929639687912694,0.1266567419816402
6.29032,8.928852083695515,0.12647540821171235
6.292704,8.9245721346647,0.12634779552709363
6.295088000000001,8.925646861567078,0.12614934589071236
6.297491999999999,8.9243474006707,0.12595797161531966
6.299879999999999,8.920766299774185,0.12580043862325374
6.30226,8.92086263928854,0.12564248675970394
6.3046560000000005,8.923240618803034,0.12545055998387955
6.30704,8.926177676824967,0.12523542402183271
6.30942,8.92473844630173,0.12504991550674838
6.311815999999999,8.921017575778352,0.12489848200136516
6.314203999999999,8.914363438948785,0.12477672987371123
6.316584,8.907197445440016,0.12464555070456518
6.318988,8.897657264132494,0.12452113002913423
6.321376,8.884904277265058,0.12443736766585087
6.323756,8.880531780435627,0.12428267079546791
6.326160000000001,8.880023715472166,0.12409050535101568
6.328544,8.87686192345623,0.12391669564147847
6.330927999999999,8.879147355172107,0.12370223650217349
6.333324,8.885948845060012,0.12345631896756783
6.335712,8.899408263493228,0.12315146177729672
6.3380920000000005,8.914497695620524,0.12281181917570266
6.340488,8.931868767747956,0.12243947881718578
6.342872000000001,8.950171005435164,0.12206220958675071
6.345252,8.972477444615212,0.12164484689073711
6.347648,8.99934716379553,0.12116524297906955
6.350036,9.024122234430816,0.12068122906037115
6.352428000000001,9.049037074692961,0.12019460279518748
6.354831999999999,9.071670274954968,0.11973911101752441
6.357219999999999,9.096957202269452,0.11926771171764178
6.3596,9.121592503277876,0.11879265198704843
6.361996,9.153025502458469,0.11825566721681952
6.364384,9.185110127945121,0.11772504229181108
6.366763999999999,9.210629372685082,0.11727656688944539
6.36916,9.23642815667876,0.1168165084466643
6.371548,9.255988321007713,0.11639745435359104
6.373928,9.273825923843969,0.11598799492403346
6.376328,9.290313052239867,0.11560257618619568
6.378716,9.30335505765037,0.11523618079826507
6.381096,9.30866819932893,0.11493725290367261
6.383500000000001,9.307975038768237,0.11469685321011508
6.3858880000000005,9.30886467007338,0.11445490348491934
6.388272,9.311476862871219,0.11420553124098226
6.390664,9.310364393429944,0.11398348332662452
6.393052,9.305107952868976,0.1138047302159871
6.395432,9.295567771561453,0.11367427447375558
6.397832,9.28574805100021,0.11355431728609972
6.400216,9.268711323386219,0.11350814648810571
6.4026000000000005,9.256609962824841,0.11341733944909738
6.404996,9.244648371890321,0.11332084110458213
6.407384,9.232267472075222,0.11324041906176713
6.409764,9.216953305953925,0.11318468647489832
6.412159999999999,9.19563283759338,0.11318486791702902
6.414547999999999,9.179387505912306,0.11313596309682816
6.416944,9.16393357016415,0.11308551788326285
6.419344,9.151645218147667,0.1130302210179893
6.421732,9.140939657997022,0.11297238761344108
6.424112,9.130234097846374,0.1129144810900375
6.426507999999999,9.118969459188285,0.1128781949483373
6.428895999999999,9.110638086836392,0.11281655827940734
6.431276,9.105379750417555,0.11272385354123672
6.4336720000000005,9.096256982132743,0.11266306053148831
6.43606,9.082338616422177,0.1126405988805013
6.438444,9.07000304257745,0.11261573813371281
6.440848,9.062742605412193,0.11254130564762793
6.443231999999999,9.058135895299412,0.11245258680953933
6.445612,9.056182912239107,0.1123498044412959
6.448011999999999,9.061027627350974,0.11218952859666516
6.450399999999999,9.060145579477307,0.11207428380726547
6.45278,9.05833236604386,0.11196571769957053
6.455176000000001,9.058940562237414,0.11182241278821678
6.4575640000000005,9.061690628804245,0.11165588954150404
6.459943999999999,9.074590968730021,0.11139316536273554
6.462348,9.087491308655794,0.11113161904955413
6.464732000000001,9.100251878954706,0.11087582553632717
6.467111999999999,9.115294089253757,0.11059314221438735
6.469516,9.130755608433388,0.11029581832919375
6.471903999999999,9.149429933172932,0.10996510420626666
6.474284,9.173179394591951,0.10958978287613724
6.476679999999999,9.200793287876945,0.10918698611037253
6.479068000000001,9.22868672041566,0.10877490929227675
6.481447999999999,9.255509217767734,0.1083730525761298
6.483844,9.2881982477322,0.10792537973062881
6.486232,9.324100083256582,0.1074472446206338
6.488612000000001,9.355997717288133,0.10700623238429938
6.491008,9.390037221692957,0.10654664628893545
6.493391999999999,9.420491833485528,0.10610581412531685
6.495788,9.449363653412261,0.10566704027341639
6.498188,9.48116873964519,0.10520500191913526
6.500571999999999,9.510831955504843,0.10476464880885601
6.502952,9.540215632110776,0.10433731957441898
6.505348000000001,9.564384402410376,0.10395959771766534
6.507732,9.57961360416453,0.10365503222444594
6.510112,9.594051409985767,0.10335192379227812
6.512516000000001,9.608768755060723,0.10303898249649317
6.5149040000000005,9.617759337150149,0.10276505541116299
6.517295999999999,9.62353711367966,0.102523258011239
6.519692,9.629175120582314,0.10228812826167263
6.52208,9.628015429312796,0.10210149193340318
6.524463999999999,9.624062241363946,0.1019314873770316
6.52686,9.62197138453465,0.10175128118786583
6.529243999999999,9.622022398078633,0.10155016774187639
6.531628,9.619419684570138,0.1013603757299051
6.534024,9.61267299994195,0.10120659679930476
6.536408000000001,9.606717711246679,0.10105255237334386
6.538787999999999,9.595966825125657,0.10092905546896618
6.541187999999999,9.58922014049747,0.10077509836159652
6.543572,9.586198118108397,0.10060125939052579
6.545967999999999,9.583967491652242,0.10042761156953955
6.548364,9.586951771502417,0.10020974987578296
6.550752,9.590215590606315,0.09998275245789884
6.553132000000001,9.597623380829907,0.0997210870731447
6.555528,9.611968638852526,0.0994106082280385
6.557916,9.627384832061784,0.09909156882170303
6.560296,9.645594521950377,0.09876010003609532
6.5627,9.665666542958528,0.09841799187288862
6.565088,9.688811599899733,0.09805189885495025
6.567467999999999,9.709023390534744,0.09770623802742129
6.569871999999999,9.734450087476088,0.09731785741229453
6.572259999999999,9.75866607960393,0.09694422829229785
