Time,Force,Position
6.668179999999999,0.08234649637856328,0.0
6.670567999999999,0.08553452050568412,0.0
6.672947999999999,0.08765160944616646,0.0
6.675347999999999,0.08923440131200268,0.0
6.677735999999999,0.08362496755788434,0.0
6.680115999999999,0.07666505936340709,0.0
6.682519999999999,0.06863421598229129,0.0
6.684907999999999,0.06060337260117548,0.0
6.687288,0.054829387787402185,0.0
6.689692,0.052919834839602393,0.0
6.692075999999999,0.05089529369773715,0.0
6.694459999999999,0.050872853302288766,0.0
6.696863999999999,0.0480569162275054,0.0
6.699248,0.045380748779582265,0.0
6.701627999999999,0.039771315025463945,0.0
6.704024,0.032439319778649195,0.0
6.706411999999999,0.023756850091475493,0.0
6.708792,0.016285085217800536,0.0
6.711187999999999,0.012026125904041169,0.0
6.713575999999999,0.010700432896476975,0.0
6.715955999999999,0.009514509515772991,0.0
6.718351999999999,0.006326485388652156,0.0
6.720739999999998,0.004209396448169852,0.0
6.723119999999999,0.0011611419479092269,0.0
6.725523999999999,0.001161141947909227,0.0
6.727911999999999,0.001161141947909227,0.0
6.730292,0.001161141947909227,0.0
6.732687999999999,0.001161141947909227,0.0
6.735075999999999,0.0010461537538437736,0.0
6.73746,0.0,0.0
6.739864,0.0,0.0
6.742247999999999,0.0,0.0
6.744628,0.0,0.0
6.747027999999999,0.0,0.0
6.749415999999999,0.0,0.0
6.751796,0.0,0.0
6.754191999999999,0.0,0.0
6.756579999999999,0.0,0.0
6.758959999999999,0.0,0.0
6.761355999999998,0.0,0.0
6.763744,0.0,0.0
6.766123999999999,0.0,0.0
6.76852,0.0,0.0
6.770908,0.0,0.0
6.773303999999999,0.0,0.0
6.775703999999998,0.0,0.0
6.778088,0.0034675633808412556,0.0
6.780468,0.00693512676168251,0.0
6.782868,0.009471524582745444,0.0
6.785251999999999,0.011076756844030061,0.0
6.787636,0.011471284291815934,0.0
6.790031999999999,0.011865811739601807,0.0
6.792419999999999,0.014402209560664743,0.0
6.7948,0.014402209560664743,0.0
6.797195999999999,0.015216045889031249,0.0
6.799583999999999,0.015216045889031247,0.0
6.801968,0.015216045889031247,0.0
6.804363999999999,0.015216045889031247,0.0
6.806751999999999,0.015216045889031247,0.0
6.809131999999999,0.015216045889031247,0.0
6.811531999999999,0.015216045889031247,0.0
6.813919999999999,0.015216045889031249,0.0
6.816295999999999,0.015216045889031249,0.0
6.818703999999999,0.015216045889031249,0.0
6.821091999999999,0.016029882217397755,0.0
6.823472,0.016029882217397755,0.0
6.825876,0.012562318836556497,0.0
6.828264,0.009094755455715243,0.0
6.830643999999999,0.0075119635898790215,0.0
6.83304,0.008862438030237974,0.0
6.835427999999999,0.011563386910955875,0.0
6.837808,0.013333170231895456,0.0
6.840208,0.012961083179557976,0.0
6.842591999999999,0.01898982581425692,0.0
6.844971999999999,0.023133796933950835,0.0
6.847367999999999,0.03023347475528831,0.0
6.849755999999998,0.04026641888282096,0.0
6.852147999999999,0.05216169412991025,0.0
6.854547999999999,0.06591930049655617,0.0
6.856932,0.0795371372363419,0.0
6.859315999999999,0.09329474360298784,0.0
6.861707999999999,0.10304814847680006,0.0
6.864095999999999,0.11051991335047502,0.0
6.866476,0.1189228437839283,0.0
6.86888,0.12357867158281989,0.0
6.871268,0.12997950126985633,0.0
6.873647999999998,0.1343782302104759,0.0
6.876043999999999,0.13863718952423526,0.0
6.878431999999999,0.13966090288263064,0.0
6.880812,0.13854274586774898,0.0
6.883216,0.13714504959914686,0.0
6.885604,0.13774945407696162,0.0
6.887983999999999,0.13649152743521975,0.0
6.890384,0.1304627848005208,0.0
6.892772,0.12550497735246036,0.0
6.895151999999999,0.11840529953112287,0.0
6.897548,0.10837235540359023,0.0
6.899931999999999,0.09647708015650093,0.0
6.902316,0.08271947378985502,0.0
6.904719999999998,0.06910163705006929,0.0
6.907104,0.05534403068342336,0.0
6.909484,0.04635724030973449,0.0
6.911879999999999,0.03965208993618288,0.0
6.914267999999999,0.031249159502729603,0.0
6.916664,0.025779495375471497,0.0
6.919059999999999,0.01937866568843507,0.0
6.921447999999999,0.014979936747815493,0.0
6.923827999999999,0.010720977434056127,0.0
6.926223999999999,0.008743658120434034,0.0
6.928611999999998,0.00690610843367215,0.0
6.930991999999999,0.0052083283737704746,0.0
6.933388,0.002439613127230271,0.0
6.935776,0.0015332290002467068,0.0
6.938155999999998,0.0015332290002467068,0.0
6.940556,0.0015332290002467068,0.0
6.942939999999999,0.0015332290002467068,0.0
6.945335999999998,0.0015332290002467068,0.0
6.947731999999999,0.001533229000246707,0.0
6.950115999999999,0.001533229000246707,0.0
6.952495999999999,0.001533229000246707,0.0
6.954892,0.001533229000246707,0.0
6.957275999999999,0.0007666145001233535,0.0
6.959671999999999,0.0,0.0
6.962068,0.0,0.0
6.964455999999999,0.0,0.0
6.966836,0.0,0.0
6.969231999999999,0.00034730561954272285,0.0
6.971619999999999,0.005954843515791797,0.0
6.973999999999999,0.021478441487638823,0.0
6.976395999999999,0.041935510654228625,0.0
6.97878,0.07528723217298545,0.0
6.981175999999999,0.11343075940175562,0.0
6.983572,0.16455959092344064,0.008400223202284687
6.98596,0.23589073379078979,0.016303961719140576
6.98834,0.3294735105784631,0.023641157397126505
6.990735999999999,0.43199206419584363,0.0312655651785448
6.993123999999999,0.5408852153890737,0.03935357552591466
6.995504,0.6678388075546908,0.04734050577458695
6.997899999999999,0.8134119192001359,0.055174199809095416
7.000284,0.9696433691679848,0.06312111445072609
7.002679999999999,1.1377438622717357,0.07110179508100967
7.005076,1.3157112977649725,0.07918640583801073
7.007464,1.5075026553122854,0.08729806942657568
7.009843999999998,1.7219177338322598,0.09516909804026454
7.012247999999999,1.9529974529138885,0.10294616207688337
7.014632,2.193851566586386,0.11075951276135718
7.017015999999999,2.4401285677373754,0.11871136083699378
7.019412,2.6914315878817248,0.12670337958950564
7.0218,2.9441757344071804,0.13470237796443402
7.024179999999999,3.1986424424253324,0.14270702743590274
7.026583999999999,3.4414705288751906,0.15076758474663485
7.028971999999999,3.6861647381603437,0.15868762173870046
7.031351999999999,3.922157383899136,0.15809657555312057
7.033748,4.133431660120232,0.1580812520401681
7.036136,4.314073812383,0.15880026044849888
7.038515999999999,4.484197395950225,0.1592499113693651
7.040919999999999,4.651298957128375,0.15913738984619671
7.043307999999999,4.7963830976695485,0.15916951007352861
7.045692,4.91898328686492,0.15944348776511638
7.048087999999999,5.032927238484304,0.1595543694070209
7.050472,5.133651672527427,0.15968272652159132
7.052855999999999,5.2233910071661835,0.15979208531534214
7.055251999999999,5.30116875087042,0.15983434988815734
7.057639999999998,5.3513874065493825,0.16024004228817448
7.060019999999999,5.383730716853192,0.16078223576985962
7.062416,5.4085340507380275,0.16126911458655666
7.064804,5.43208324969686,0.1615264037856384
7.067183999999998,5.446417132572265,0.16171304360896027
7.069579999999999,5.446879871565351,0.16193156968064706
7.071972,5.442409139363693,0.16211493667674207
7.074351999999998,5.4374737723110815,0.16223303794184368
7.076747999999999,5.4269514118997995,0.1624614205539988
7.079135999999999,5.410702288502987,0.16280866053135248
7.081516,5.397386431412371,0.1630953284393174
7.083911999999999,5.396175726598872,0.16313539270346256
7.086299999999999,5.403018750741414,0.16307686227320775
7.088696,5.41097803604097,0.16308607788089038
7.091091999999999,5.429831768804144,0.1628974169806639
7.093476,5.454040177500511,0.16256448486829922
7.095859999999999,5.47703788138338,0.16227388586105776
7.098264,5.505902117878637,0.1618574591987691
7.100647999999999,5.543101518441526,0.16119726405114695
7.103027999999999,5.578857896765441,0.16054997500673227
7.105427999999999,5.623321526209322,0.15967126661079695
7.107815999999999,5.669415169347283,0.15872343778484144
7.110195999999999,5.7162076606195455,0.15774140565194766
7.112595999999999,5.76234852558575,0.15678389446063987
7.11498,5.8089086994325365,0.1558083776748423
7.117363999999999,5.852954915853707,0.15484509880304756
7.119759999999999,5.893276470035765,0.15394918966805546
7.122147999999998,5.933970111270161,0.15307714529920896
7.124527999999999,5.977177709930169,0.15218604778380113
7.126924,6.023318574896374,0.1512383207720678
7.129315999999998,6.070530375049217,0.1502603345868748
7.131695999999999,6.1097337722163925,0.14945319297437737
7.134092,6.1438167067337215,0.1486861721499559
7.13648,6.174548961922145,0.14788078049558498
7.138859999999998,6.193315834460311,0.1472809352030308
7.14126,6.209009671065421,0.14674829896275354
7.143648,6.22484327729739,0.14620860791525597
7.146027999999999,6.235089890170691,0.1457669362412657
7.148424,6.237467869685184,0.14548108941154875
7.150811999999999,6.237983518080121,0.14522521215581546
7.153207999999999,6.2337961168479215,0.1450927811123522
7.155603999999999,6.228770097854563,0.14501377435388196
7.157991999999999,6.221182899607344,0.14500884235471811
7.160372,6.209731269494153,0.14507048164042077
7.162767999999999,6.198419409007822,0.1451211217011271
7.165155999999999,6.197210600052192,0.1450218829006506
7.16754,6.200937158149175,0.1448339167081939
7.169935999999999,6.207923743634315,0.144534126484185
7.172323999999999,6.2080200831486705,0.14431246687694838
7.174703999999999,6.203181055610415,0.14417752511833282
7.177099999999999,6.20271831661733,0.1439905363019961
7.179488,6.210543519863632,0.1436410413785489
7.181867999999999,6.216087083109798,0.14334541804900788
7.184264,6.219860863035023,0.14311547337574201
7.186652,6.228103479304036,0.14286801859081386
7.189035999999999,6.240303075237641,0.14259416089920451
7.191427999999999,6.250221031171108,0.14237347865338673
7.19382,6.262560396731573,0.14209078492665675
7.196215999999999,6.276901863038455,0.1417728487069663
7.198615999999999,6.289613315651256,0.1415086295486903
7.201003999999998,6.300182897890783,0.14128724374192153
7.203383999999999,6.313313659384164,0.14099481652076387
7.20578,6.32770234751929,0.1406260390433343
7.208168,6.338785682295883,0.14028541809335462
7.210547999999998,6.344095032258703,0.14008474396275358
7.212948,6.344841102221247,0.13999484858912287
7.215336,6.345726941810651,0.13989738331757323
7.2177159999999985,6.341258105466862,0.13991088225072518
7.220111999999999,6.341817183974303,0.1398768245512592
7.222499999999999,6.347404177332972,0.1397946147151152
7.2248839999999985,6.350057904385448,0.13976262379021906
7.227279999999999,6.350849300318365,0.13975779166984706
7.229667999999999,6.35499327143806,0.13968043264462265
7.232051999999999,6.362582365543145,0.13956822789330803
7.234447999999999,6.37287240852895,0.1393808753678952
7.236835999999999,6.379345241477025,0.1392090225794194
7.239216,6.38800716662662,0.13894989655649015
7.241616,6.396529322149353,0.13870090000193927
7.244003999999999,6.401559132858452,0.13853100573603178
7.246384,6.417670382486274,0.1381757486203788
7.248784,6.441138408793704,0.13768521698702135
7.251171999999999,6.4606022336083,0.13726184537733707
7.253552,6.478575814355677,0.1368861878172957
7.255952,6.501437540327425,0.13647495442727997
7.258335999999999,6.531516273351921,0.13593387819867453
7.260715999999999,6.559500357831383,0.13538792091881116
7.263115999999999,6.579755578578898,0.13495756465899303
7.2654999999999985,6.602152669699691,0.1344864088167015
7.267884,6.622966968954646,0.13402618435236632
7.270279999999999,6.64634244746346,0.13350772086980792
7.272667999999999,6.669206069293076,0.1329797240347082
7.275063999999999,6.6863429281371625,0.132531977699995
7.277459999999999,6.699335815861554,0.1321583749687064
7.2798479999999985,6.71088568134697,0.13178855504076253
7.282227999999999,6.720712985339689,0.13143697360554807
7.284627999999999,6.732402620451965,0.13106160582001175
7.287015999999999,6.744324572989718,0.13071622290735926
7.2894,6.757177691087249,0.13036222059719668
7.291795999999999,6.773662923625276,0.12992631541117708
7.294187999999999,6.781767666125298,0.12959963226157573
7.296568,6.784005876012932,0.12935671237970908
7.298963999999999,6.78945689146048,0.12905750674148486
7.301351999999999,6.79411651097511,0.12876153133634724
7.303731999999999,6.8008254530644,0.1283967502337842
7.306127999999998,6.8019474017950206,0.1280972718881725
7.308516,6.806142386458696,0.12775043770476976
7.310895999999999,6.81741460854826,0.1272965278227798
7.313292,6.824962168398712,0.1268850873014724
7.315679999999999,6.835070907503021,0.1264170029346397
7.31806,6.837450782875384,0.12604962848226667
7.32046,6.839690888620885,0.12569030403788098
7.322848,6.8456556566055005,0.12528660309661746
7.325228,6.8525515901498935,0.12487057626164526
7.327628,6.856514257388092,0.12449424993425
7.330016,6.8603371549994305,0.12412613351934144
7.332395999999998,6.861878412610632,0.12380129476767134
7.334799999999999,6.861045482423078,0.12348525714529907
7.3371879999999985,6.8546255588768545,0.12323199734009316
7.339567999999999,6.846855160890273,0.12301215022404505
7.341967999999999,6.836523583649832,0.12285074333056656
7.344352,6.827914567902088,0.12267547508921747
7.346735999999999,6.818234616967707,0.12251811401790154
7.349132,6.81027722752602,0.12234725793611771
7.35152,6.795894226964503,0.12228387395314122
7.3538999999999985,6.788448694202015,0.12212487222247227
7.356295999999999,6.780723622185805,0.12198082370388175
7.358683999999999,6.773929715729375,0.12182686510441326
7.3610799999999985,6.7717916370718365,0.12162330283995304
7.363475999999999,6.766021443973801,0.12149381784129971
7.365859999999999,6.7653263875552385,0.12129266718277158
7.368244,6.763700165576898,0.12110115244881728
7.370639999999999,6.763284648412056,0.12088546726281625
7.373024,6.763940066433852,0.12065252792785791
7.375407999999999,6.763245010015289,0.12045019372439426
7.3778039999999985,6.760547852850311,0.12027454034032874
7.380192,6.760923731618386,0.12005427097538396
7.382575999999999,6.763114719677775,0.11985667644448954
7.3849719999999985,6.771823866655613,0.11959029907128847
7.387359999999998,6.779601848073673,0.11933355870315944
7.389743999999999,6.790452865424789,0.1190306092574661
7.392139999999999,6.800232947589265,0.1187447416653189
7.394527999999998,6.808942094567103,0.11847630697825103
7.396911999999999,6.817139384865743,0.11819638990333198
7.399307999999999,6.8273387759108,0.11788717656569456
7.4016959999999985,6.8341855917690815,0.11764097312660801
7.404079999999999,6.837959371694307,0.1174386942170535
7.406475999999999,6.834376374939923,0.11734916857143876
7.408863999999999,6.824787075946289,0.11734050848066893
7.411248,6.816408481766153,0.11730696285728744
7.413647999999999,6.805608477959021,0.11732252851976577
7.416035999999999,6.79252683415175,0.11738096701228354
7.418416,6.780096816650538,0.11744332076980193
7.420815999999999,6.7693893606420215,0.11749302006451058
7.423203999999999,6.764967746126476,0.11744777057501114
7.425584,6.764690102730625,0.11734207276532058
7.427983999999999,6.763481293774996,0.11724599094303614
7.430371999999999,6.761109001834111,0.1171315770993934
7.432752,6.752870177280835,0.11708833133933859
7.435151999999999,6.745702287914198,0.11702809171216663
7.437539999999999,6.7396053337341995,0.11695091788763341
7.439923999999999,6.7356502499274775,0.11684026304972735
7.44232,6.734628432426951,0.116694578473776
7.444707999999999,6.7309056660457065,0.11661145028488643
7.447091999999999,6.730116165970657,0.11649335480942252
7.4494919999999984,6.725042925149054,0.11644162586698714
7.45188,6.724905051380062,0.11632893298376555
7.454263999999999,6.7287713791039065,0.11616330712817205
7.456668,6.7377128435072215,0.11592738709214831
7.459051999999999,6.746234999029956,0.1157140386363604
7.461431999999999,6.758481816791804,0.11546407205316717
7.463836,6.774732836046485,0.11516043585141712
7.466219999999999,6.784046387502138,0.11494371448781181
7.468599999999999,6.790426672651595,0.11476345227864368
7.471004,6.793314612987417,0.11464980466103598
7.473392,6.79336183481566,0.11460711663311592
7.475772,6.7939209133231,0.11457748444594346
7.478167999999999,6.803140021122267,0.1144527006331116
7.480555999999999,6.816083791160546,0.11429113800660935
7.482936,6.8286082523182445,0.11415173970057098
7.485331999999999,6.839782239035584,0.11404380489283378
7.487719999999999,6.847883189819869,0.11397749448621246
7.490104,6.850769234297821,0.1139854046046652
7.492499999999999,6.860080889895603,0.11389593626140834
7.494884,6.86739044474697,0.1138323022245819
7.497263999999999,6.88005467553153,0.11368745289879359
7.499659999999999,6.889506100756173,0.1135920485566144
7.502047999999999,6.901099396354094,0.11346543870461297
7.504428,6.913484087884932,0.11333873675956127
7.506823999999999,6.9300127505354645,0.11315788583615236
7.509211999999999,6.941233959081048,0.11301435399680453
7.511608,6.953386333186409,0.11286364921905068
7.514008,6.973686879904299,0.11260906974960085
7.516395999999999,6.99920233292852,0.11228707518334548
7.518776,7.0259284907662405,0.11194332102587862
7.521171999999999,7.0542846622980395,0.11155637274585664
7.523555999999998,7.085202013083696,0.11112232359363239
7.525939999999999,7.1023841978981554,0.11084039091052972
7.528344,7.1177040515930585,0.11057473937960863
7.530731999999999,7.1353055452881,0.11027333987681542
7.533107999999999,7.154257513423497,0.10994392215932144
7.535507999999999,7.179215783798148,0.10954783120596827
7.537895999999999,7.210459895665768,0.10906948791745183
7.540271999999999,7.23434723085378,0.10868997201047602
7.54268,7.259165731601569,0.10830390090331346
7.545063999999999,7.281190735670024,0.10794338153393432
7.547444,7.303914587872779,0.10754951364149494
7.549848,7.324915878582838,0.10716723563629903
7.552236,7.343263442240423,0.10680269810228434
7.554615999999998,7.358026113285754,0.10646537787664147
7.557016,7.376513446570199,0.10609757388487924
7.559399999999999,7.393417987988808,0.10573353908612965
7.5617839999999985,7.408460198287858,0.10538799155816339
7.564179999999999,7.416425171161022,0.10512110231062587
7.566567999999999,7.422807352168348,0.10485587619183873
7.568948,7.428537906869616,0.10458563076707815
7.571347999999999,7.429193324891412,0.1043712898783369
7.573735999999999,7.439067850712376,0.10405308644757716
7.576116,7.456438922839808,0.10364412038040166
7.578516,7.473298138288042,0.10322612141610951
7.580903999999999,7.488714331497301,0.10280380459467972
7.583284,7.497472596161251,0.1024364692912749
7.585679999999999,7.503716903399588,0.10207874682063443
7.588067999999999,7.514943799518779,0.10163681770011002
7.590447999999999,7.523516968585495,0.10120799223426419
7.592843999999999,7.534232008025487,0.10075432852739391
7.595231999999998,7.541734241905565,0.10033825686388079
7.597611999999999,7.548165540599004,0.09993516612536343
7.600011999999999,7.558601040785277,0.09949573543169822
7.602396,7.564892569851856,0.09909910180513937
7.604779999999999,7.571184098918435,0.09870406077302254
7.607176,7.576684232052095,0.0983092857904618
7.609564,7.579251098879562,0.0979396940368855
7.6119439999999985,7.58717264164022,0.09750716160689744
7.614344,7.592952314027601,0.09709808731980606
7.616732,7.597521281601483,0.096708178889158
7.619127999999999,7.60516328510842,0.09628686018946996
7.621524,7.605728051189468,0.09593435986843965
7.623912,7.596142543911571,0.09568169500230608
7.6262919999999985,7.584275396633538,0.09545969629699988
7.628687999999999,7.572780336407843,0.09525648795777607
7.631075999999999,7.564078772861482,0.09503473057005445
7.633459999999999,7.5538869652479015,0.09484378267549
7.635855999999999,7.541925374313382,0.09469620237879828
7.638243999999999,7.532105653752139,0.09452380901377438
7.640624,7.5210752283773985,0.0943695408644975
7.643024,7.514049004495491,0.09417934299678081
7.645411999999999,7.5111667517332785,0.0939480530872003
7.647795999999999,7.50521146303801,0.09374671115163329
7.650192,7.5055420158357125,0.09348065605345045
7.652579999999999,7.50307907195408,0.0932309945502854
7.65496,7.500988215124784,0.09300053635357831
7.65736,7.5007596894150455,0.0927586897154748
7.659748,7.497178588518531,0.09255844230969991
7.662128,7.498393085047767,0.09232479805568816
7.664531999999999,7.499467811950144,0.09209693680871629
7.666919999999998,7.4993318340390225,0.09188731604840587
