Time,Force,Position
9.546539999999998,0.11648440302132639,0.0
9.548932,0.10759219515353177,0.0
9.55132,0.09949138321865528,0.0
9.553696,0.09153034091063898,0.0
9.556092,0.08249836341598417,0.0
9.558476,0.06839124924185712,0.0
9.560872000000002,0.05628623581414692,0.0
9.563268,0.04618332313285357,0.0
9.565651999999998,0.03701157601133854,0.0
9.568048,0.02770005926296329,0.0
9.570452,0.016526211395031406,0.0
9.57284,0.007354464273516373,0.0
9.575216,0.0031180842046133637,0.0
9.57762,0.0007440352552669959,0.0
9.580004,0.0007440352552669959,0.0
9.582384,0.0007440352552669959,0.0
9.584788,0.0007440352552669959,0.0
9.587176,0.0007440352552669959,0.0
9.589552,0.0,0.0
9.591948,0.0,0.0
9.594332,0.0,0.0
9.596711999999998,0.0,0.0
9.599116,0.0,0.0
9.601504,0.0,0.0
9.603884,0.0,0.0
9.606288,0.0,0.0
9.608672,0.0,0.0
9.611052,0.0,0.0
9.613448,0.0,0.0
9.615832,0.0,0.0
9.618212000000002,0.0,0.0
9.620608,0.0,0.0
9.622991999999998,0.0,0.0
9.625388,0.0,0.0
9.62778,0.0,0.0
9.630168,0.0,0.0
9.632548000000002,0.0,0.0
9.634944,0.0,0.0
9.637332,0.0032579926808815373,0.0
9.639724,0.0055848198019847525,0.0
9.64212,0.005909546176671119,0.0
9.644508,0.005909546176671119,0.0
9.646888,0.0059095461766711195,0.0
9.649284,0.0059095461766711195,0.0
9.651668,0.0059095461766711195,0.0
9.654051999999998,0.0059095461766711195,0.0
9.656456,0.0059095461766711195,0.0
9.65884,0.0059095461766711195,0.0
9.661219999999998,0.0059095461766711195,0.0
9.663624,0.0059095461766711195,0.0
9.666012,0.0059095461766711195,0.0
9.668392,0.0059095461766711195,0.0
9.670796,0.0059095461766711195,0.0
9.67318,0.0059095461766711195,0.0
9.67556,0.0059095461766711195,0.0
9.677964,0.0059095461766711195,0.0
9.680352,0.0059095461766711195,0.0
9.682732,0.0059095461766711195,0.0
9.685128,0.0026515534957895826,0.0
9.687516,0.00032472637468636565,0.0
9.689896,0.0,0.0
9.6923,0.0,0.0
9.694684,0.0,0.0
9.697068,0.0,0.0
9.69946,0.0010235745089874166,0.0
9.701848,0.0031180842046133637,0.0
9.704228,0.0073544642735163725,0.0
9.706632,0.015595045835253082,0.0
9.709016,0.02276469221035126,0.0
9.711396,0.03500947526492167,0.0
9.7138,0.0473940279463523,0.0
9.716188,0.05870764544114439,0.0
9.718568,0.07081265886885459,0.0
9.720964,0.08091557155014795,0.0
9.723352,0.09087871460458108,0.0
9.725732,0.09804836097967926,0.0
9.728128,0.10042240992902562,0.0
9.730516,0.10279645887837201,0.0
9.732912,0.10279645887837201,0.0
9.735308000000002,0.10279645887837201,0.0
9.737696,0.10279645887837201,0.0
9.740072,0.10279645887837201,0.0
9.742468,0.10279645887837201,0.0
9.744852,0.10279645887837201,0.0
9.747248,0.10177288436938459,0.0
9.74964,0.09967837467375865,0.0
9.752024,0.09544199460485564,0.0
9.754404,0.08720141304311893,0.0
9.756808,0.08003176666802075,0.0
9.759196,0.06778698361345034,0.0
9.761576,0.055402430932019714,0.0
9.763979999999998,0.04408881343722762,0.0
9.766364,0.031983800009517414,0.0
9.768744,0.02188088732822406,0.0
9.77114,0.013453175461976025,0.0
9.773524,0.008610356207981059,0.0
9.77592,0.007631968819959587,0.0
9.778315999999998,0.008515912551494755,0.0
9.7807,0.014846941165431672,0.0
9.78308,0.018244703473173418,0.0
9.785484,0.021782235407775376,0.0
9.787871999999998,0.024388601782599016,0.0
9.790248,0.026994968157422652,0.0
9.792652,0.02853039934560776,0.0
9.795039999999998,0.030065830533792866,0.0
9.79742,0.030065830533792866,0.0
9.799824,0.030065830533792866,0.0
9.802212,0.030065830533792866,0.0
9.804592,0.030065830533792866,0.0
9.806996,0.030065830533792866,0.0
9.80938,0.030065830533792866,0.0
9.81176,0.030065830533792866,0.0
9.814156,0.03006583053379287,0.0
9.816540000000002,0.03006583053379287,0.0
9.818924,0.028530399345607763,0.0
9.821328,0.026203572224504545,0.0
9.823712,0.024807910663179646,0.0
9.826092,0.021549917982298113,0.0
9.828487999999998,0.015218889368361192,0.0
9.830875999999998,0.011821127060619444,0.0
9.833256,0.008283595126017488,0.0
9.83566,0.0056772287511938505,0.0
9.838043999999998,0.003070862376370213,0.0
9.840424,0.0015354311881851065,0.0
9.842828,0.0,0.0
9.845216,0.0007874653677716609,0.0
9.847596,0.002921613460163794,0.0
9.849992,0.014176633979497264,0.0
9.852376,0.05229189438980334,0.0
9.854756,0.10297504607031288,0.00997840926711025
9.857152,0.15891653416965956,0.020303831739709406
9.85954,0.22086053279251824,0.03108191172021383
9.861935999999998,0.2943468134693158,0.04176753963714815
9.864332,0.38710423993199916,0.05165680899487361
9.86672,0.4957349110234187,0.06107234544279035
9.8691,0.6184237174522609,0.07011692792480029
9.871504,0.747813882538916,0.07932275415908197
9.873888,0.8885140122540328,0.0885478810432037
9.876268,1.0478336614489776,0.0974882866194678
9.878672,1.2270307567654921,0.10605655978787748
9.88106,1.4145592244338991,0.11464498097987297
9.883436,1.615726518559148,0.12310834762861798
9.885844,1.8324402962311697,0.1315327163242975
9.888228,2.0679133630098794,0.13981550559107217
9.890612,2.3180036436334523,0.14793414159087478
9.893016,2.57256669116596,0.15600697117050738
9.8954,2.8368644948925703,0.16379774748438844
9.89778,3.098746576565791,0.171396275733594
9.900172,3.3255276979368937,0.17914887104546687
9.90256,3.5419753462096875,0.17690887387312026
9.904940000000002,3.76182468735537,0.1741393503496727
9.907331999999998,3.9755789701789226,0.1708744199359352
9.909719999999998,4.181982163896473,0.16755232121379832
9.9121,4.362596052909691,0.1651449759982026
9.914504,4.521330395054922,0.1633485055106781
9.916887999999998,4.662793796302814,0.16200970319341443
9.919268,4.796065594825674,0.1605708967962783
9.921672,4.918818824652991,0.15910441976270112
9.924055999999998,5.02295253500048,0.15792266403698155
9.92644,5.104275532920203,0.15718124254764168
9.92884,5.1808520511002865,0.15635372277946802
9.931228,5.240716706890473,0.1557300524865181
9.933604,5.2774457850288,0.15531638929165711
9.936012,5.293832782194603,0.15506334747220865
9.938396,5.300258393314436,0.1548722421979845
9.940776,5.301423772157559,0.15472694334393033
9.94318,5.29229910801488,0.15485463416176404
9.945564,5.272884400886395,0.15524451650663038
9.947944,5.256775047116444,0.15560766254778743
9.950348,5.236289404801321,0.15605121777001102
9.952736,5.208446985806587,0.15667985769643228
9.955112000000002,5.183862698342145,0.15731085859170385
9.95752,5.150663707556351,0.15823594158887347
9.959904,5.128778473114757,0.15892217508089534
9.962288,5.118626303897943,0.1593348508662522
9.96468,5.117134163972855,0.15955175856701884
9.967068,5.120345073674899,0.159617604620077
9.969448000000002,5.125046227444165,0.15962271150132343
9.971852,5.125091553414539,0.15972262647056454
9.97424,5.124997109758052,0.15983447041980575
9.97662,5.121178003862452,0.16002309231028486
9.979012,5.124156596139021,0.16005459905152383
9.9814,5.143943390319843,0.1596855429838997
9.98378,5.16638391155314,0.15926952146046747
9.986184,5.1812353386813506,0.15901962577771223
9.988568,5.1995318887949535,0.15871841851647944
9.990951999999998,5.216617734095058,0.15845661052411258
9.993348,5.2392905727538315,0.15807937295547342
9.995732,5.2722534543984105,0.15743945770454942
9.998128,5.3085689112297665,0.15669714379618108
10.000524,5.3435811154490045,0.15595225832922713
10.002908,5.377290067056128,0.15521479646357692
10.005287999999998,5.420637435342998,0.1542146293353243
10.007684,5.458165492845721,0.15330980755706647
10.010072,5.489454930683715,0.15252878024069721
10.012452,5.51422620960326,0.15188199810319583
10.014848,5.5404405107617825,0.1512472856181271
10.017236,5.567585977480084,0.15060869400912485
10.019628,5.602879616810913,0.14978584049160223
10.022032,5.642317227261435,0.14885947712780445
10.024416,5.6824064640180145,0.14793483634601368
10.0268,5.721284995961095,0.1470636093023891
10.029196,5.749221858612313,0.14644147070008162
10.03158,5.775995238278277,0.1458079444271722
10.03396,5.801325595705264,0.1451643181841669
10.036364,5.823862456452916,0.14457559137705228
10.038748,5.851614223506901,0.14387612615503378
10.041132,5.880856234628104,0.14313661590805973
10.043528,5.901857525338164,0.14253459218495837
10.045916,5.921136254555527,0.14195603369107204
10.048296,5.9401354445191705,0.14139514429013733
10.050692,5.958063699296174,0.1408622580727536
10.053076,5.975200558140259,0.14034989270760692
10.055459999999998,5.990847172917126,0.13988534515513934
10.057856,6.006074478813412,0.1394469106879208
10.06024,6.023164115829255,0.1389785249090897
10.062636,6.037600025792623,0.13855242240224663
10.065032,6.047380107957099,0.13819989864950055
10.067416,6.053715067136182,0.13788926255198403
10.069795999999998,6.0563253640761525,0.13763321107637944
10.0722,6.060286135456482,0.1373379398891072
10.074588,6.060801783851418,0.137080868977786
10.076968,6.060665805940295,0.13681816175499623
10.079364,6.055966548028899,0.1366632385127306
10.081752,6.056295204968732,0.13645855580437685
10.084132,6.0578345667220646,0.13622267461181617
10.086536,6.054066474370446,0.1360542005317148
10.08892,6.045502784593075,0.1359629991398793
10.0913,6.037823038547241,0.13590632014496867
10.093696,6.029304674740245,0.13590354242034045
10.096084,6.0219970157467495,0.1358690001778363
10.09848,6.016598909701051,0.1357577921589555
10.100884,6.003332170296547,0.13578155872776224
10.103272,5.9965835898104904,0.13570973132221975
10.105652,5.991557570817131,0.1356197855884966
10.108056,5.986811091077492,0.13551233343797778
10.11044,5.979410884285376,0.1354360562781579
10.11282,5.973593469359098,0.1353503516899169
10.115215999999998,5.96530742297758,0.13537474053274165
10.117603999999998,5.964610470701148,0.1352832134966615
10.119984,5.962051187305159,0.13521835590425213
10.12238,5.958840277603112,0.1351490839264679
10.124768,5.961867987565796,0.13500485090682476
10.127148,5.971134317193206,0.13478369416214386
10.129552,5.982542517193892,0.13452039329206195
10.131939999999998,5.993159321261659,0.13426367753617652
10.13432,6.004287982008626,0.13401995740773348
10.136716000000002,6.016719895367707,0.1337844957298952
10.1391,6.032736701339041,0.13350441290287354
10.14148,6.0513146865642335,0.1331540011896313
10.143883999999998,6.069241045483367,0.13280093190816994
10.146268,6.084186916268064,0.13254624302490828
10.148648,6.101367205224654,0.132283437314606
10.151051999999998,6.113472357501772,0.13211440764636015
10.153436,6.1259968186594715,0.13192068804700138
10.155816,6.139452445376949,0.13171630801208603
10.158219999999998,6.152488763213846,0.13153682749880474
10.160608000000002,6.168318577730078,0.1313213596902366
10.162984,6.189642837806362,0.13099117315390296
10.16538,6.205100565270256,0.13075750026455646
10.167764,6.222839932734287,0.13047583739884838
10.170148,6.246445832810709,0.13010732593196664
10.172544,6.263393804341822,0.1298338776031079
10.174928,6.282111559193876,0.12950294007048643
10.177324,6.298734665500894,0.12917032702496226
10.17972,6.315497541434774,0.1288319785414063
10.182108,6.334542057368789,0.12844851821180953
10.184488,6.357590774795639,0.12800745064040736
10.186884,6.38147810998365,0.12752314751241617
10.189272,6.4041547403581625,0.12706797946463508
10.191652,6.427482997038734,0.12661943326808414
10.194048,6.450439166666967,0.12614902492217017
10.196436,6.475956515549057,0.12561666380246816
10.198832,6.501753403684867,0.12506582522570076
10.201228,6.526479356634041,0.12453671794174559
10.203615999999998,6.550553683277156,0.12400793992393536
10.205996,6.576909649920406,0.1234337168031478
10.208391999999998,6.59674745764521,0.1229361485947767
10.210780000000002,6.611929437571122,0.12249548785197768
10.21316,6.629253287870312,0.12201784795950743
10.215556,6.64057083593025,0.12162822612303922
10.217944,6.646673477683856,0.12132672172269925
10.220324,6.6587824216767135,0.12093803507353407
10.22272,6.666747394549875,0.12061759793816201
10.225108,6.673873749661877,0.1203445792851823
10.227504,6.679137773654322,0.12009299346701152
10.2299,6.685053423952825,0.11984921355981717
10.232283999999998,6.685893937571855,0.11968047746595503
10.234668,6.6845925808176085,0.11954772204771386
10.237063999999998,6.685433094436639,0.11938033076441744
10.239448,6.685621981749611,0.11920800766165911
10.241828,6.686602264995502,0.11903327162671143
10.244224,6.687163239360812,0.11888178466316891
10.246612,6.691868184845816,0.11866985795718049
10.248992,6.6976440655174585,0.11844151905356555
10.251388,6.701278075815824,0.11824761266209706
10.253776,6.702770215740912,0.1180877887734488
10.256172,6.705705377904978,0.1179296868407281
10.258568,6.709152396748238,0.11778380524794826
10.260955999999998,6.709805918912167,0.11766712267771456
10.263336,6.717396908875123,0.11745964873983011
10.265732000000002,6.72992326589069,0.11719047195777374
10.26812,6.7393765869732025,0.11696714925928271
10.2705,6.748969677682575,0.11673590629460377
10.272896,6.759913242832307,0.11647337496785382
10.275284,6.772439599847877,0.11620724109699809
10.277679999999998,6.7815208338780515,0.11596546826162636
10.28008,6.78915904566925,0.1157184360769365
10.282468,6.796657487833588,0.11547927930161343
10.284847999999998,6.801362433318594,0.11526903593489
10.287244,6.808209249176875,0.11502687795154111
10.289632,6.816266769848654,0.11476176285638377
10.292012,6.824883369027875,0.11446878339411733
10.294408,6.828424831527622,0.11424372156583908
10.296796,6.829033027721176,0.11405264788924505
10.299176,6.829641223914729,0.11386112820941406
10.301571999999998,6.829597793802225,0.1136631628870496
10.303959999999998,6.835048809249773,0.11337671720450555
10.306336,6.845063104697596,0.11301233617892399
10.308732,6.8567999616381154,0.11263680402702071
10.31112,6.862530516339384,0.11233689887589157
10.313512,6.862813847308844,0.11208365929363125
10.315908,6.861374616785606,0.11184006967939229
10.318295999999998,6.859935386262369,0.11159599015116452
10.320676,6.8535607886865195,0.11140960991352834
10.323068,6.841738967378861,0.11126832898502183
10.325456,6.8264248012575655,0.11119086965098922
10.327848,6.815766462935161,0.11106811079049558
10.330244,6.805387663866478,0.11093013953317982
10.332631999999998,6.795800260730713,0.11079038642482049
10.335012,6.7848623831545884,0.11068133484096852
10.337416,6.772713800764965,0.11059529551091936
10.339804,6.757212643188566,0.11056424529806441
10.342184,6.742363111918225,0.1105396980148135
10.344588,6.731378012513859,0.11047247798325027
10.346972,6.721324078669269,0.1103963900312051
10.349355999999998,6.715925972623571,0.1102767453265274
10.351752,6.70652366508504,0.11020577079482008
10.354136,6.6897645808669,0.11023782017861032
10.356516,6.675147367022036,0.11023724769753568
10.358911999999998,6.667607390603061,0.11014854957487899
10.361299999999998,6.660579270863286,0.11007306046198183
10.363696,6.657136043735761,0.10997136430662915
10.366092,6.657137939593631,0.1098512882618583
10.36848,6.663146137690751,0.10965956481399007
10.370864,6.6778143650795965,0.10937909605129444
10.37326,6.697837268401635,0.10901901787996124
10.375648,6.712924804671061,0.10871503022076659
10.378028,6.7277328016867655,0.10842652159588301
10.380432,6.740678467582915,0.1081538814470851
10.38282,6.750830636799728,0.10790596573787542
10.3852,6.760191410083624,0.1076590293216815
10.387604,6.771554284113936,0.10738738155221422
10.389988,6.784267632584607,0.10708504684457451
10.392368,6.792185383629526,0.10683162443581373
10.394764,6.800103134674446,0.10657848085668865
10.397152,6.806018784972948,0.10635111641877923
10.399532,6.813517227137287,0.10612226588419936
10.401928,6.828092906727515,0.10580720150125138
10.404316,6.839316011130967,0.10554652469738608
10.406695999999998,6.8433221084816696,0.10537923912194465
10.409092,6.850261472138568,0.10518111921219879
10.41148,6.852405238369714,0.10502997920655527
10.41386,6.851103881615467,0.10489670997017969
10.416256,6.848591820047723,0.1047861267411376
10.418644,6.842075556987145,0.10472096133687067
10.42104,6.836210920232625,0.10466216326934337
10.423436,6.83807514721005,0.10452910234680803
10.42582,6.839659834933755,0.10441009954938532
10.4282,6.846971285642991,0.1042398828506526
10.430604,6.855074132285143,0.1040683809451978
10.432992,6.865830705979773,0.10388220978868877
10.435372,6.876727049301261,0.1036894733341952
10.437768,6.8905566589289435,0.10346971101090505
10.44016,6.909042096355519,0.10321331293025297
10.44254,6.927527533782094,0.10295738687275907
10.444936,6.9461527408355295,0.10269629815151156
10.447324,6.9671993575159625,0.10239655089825175
10.449704,6.985033168636481,0.102140992577383
10.4521,7.006219554943774,0.10183814822731917
10.454488,7.034343409050097,0.10146695144671981
10.456872,7.059673766477083,0.10111800712345723
10.459268,7.091941591703101,0.10070208584987925
10.461652,7.1251405824888945,0.10027998281864497
10.464035999999998,7.157548177341771,0.09986000924616817
10.46644,7.190886937754427,0.09943487364781568
10.468824,7.222503136674384,0.09901939581920301
10.471203999999998,7.246670011116116,0.09866022100237727
10.4736,7.271256194438427,0.09828128185322324
10.475988,7.295050981827822,0.09790863484104122
10.478384,7.321127409217354,0.09750419994025383
10.48078,7.347064066980026,0.097109610172979
10.483164,7.374723286235393,0.09671132800838761
10.485548,7.397307368811289,0.09636553081176227
10.487951999999998,7.420031221014044,0.0960165626557223
10.490340000000002,7.44289484284366,0.0956619305577726
10.49272,7.465898234300135,0.09530346511437139
10.495116,7.484617885010058,0.09499682420179056
10.497504,7.501614974227283,0.0946948978623086
10.499884,7.515399257884593,0.09443110502129146
10.50228,7.523317008929513,0.09421658723829932
10.504668,7.533236860720849,0.09398431628446159
10.507048,7.538081575832714,0.09380143171873305
10.509448,7.541575816504219,0.09364314118224257
10.511836,7.544650748295142,0.09350389822117368
10.514216,7.548005219339788,0.09335265043059165
10.51662,7.552151086317351,0.09320239679672736
10.519004,7.560952781093805,0.09302390581213527
10.521384,7.56989424549712,0.09283967247990432
10.523788,7.572829407661185,0.09270806730247516
10.526172,7.572411994638474,0.09261818857337199
10.528556,7.568549458630369,0.09253803460388216
10.530952,7.564826692249125,0.09245188687072381
10.533336,7.565247896987575,0.09232523806067999
10.53572,7.560593965046553,0.0922444076974743
10.538116,7.559013069038586,0.09213517583938925
10.5405,7.554219367470704,0.09206045526330661
10.542896,7.547563334783266,0.09199631112043474
10.545291999999998,7.5449115035886605,0.09189809463138247
10.54768,7.544261773140472,0.09178294286225824
10.55006,7.548966718625476,0.09161052746458744
10.552456,7.549807232244506,0.09146526266736905
10.554844,7.552789616236814,0.0912970957258234
10.557224,7.561266445789173,0.09106676353905248
10.55962,7.570442123475835,0.0908059888008499
10.562004,7.577336161162359,0.09057436838033688
10.564384,7.582507637356187,0.09034719044864171
10.566784,7.586747947990236,0.09012634973883948
10.569168,7.591639884930345,0.08991325290111289
10.571564,7.599465088176647,0.08967807644198578
10.57396,7.612644967356142,0.08938794188766067
10.576348,7.625824846535638,0.0890966762669289
10.578728,7.631275861983186,0.08885682245769784
10.581128,7.634724776684317,0.0886341877526168
10.583512,7.642736971385723,0.08835448952219
10.585896,7.646744964594295,0.08810814048010718
10.588292,7.653034597803004,0.08783320855551409
10.590676,7.667612173251102,0.08748435457622324
10.59306,7.678325316833225,0.08716171116985179
10.595456,7.686664272616595,0.08683545356832648
10.59784,7.686855055787436,0.08657729683548375
10.60024,7.687045838958277,0.08631732745623155
10.602636,7.686445226196201,0.08605657564629073
10.605023999999998,7.680629707127793,0.08584456076386657
10.607404,7.678538850298498,0.08561517820760159
10.609808,7.677938237536421,0.08535707276435069
10.612196,7.677337624774344,0.08509851645997077
10.614576,7.673663976079213,0.08486531190944681
10.616972,7.664263564398551,0.08466440044722301
10.61936,7.655282461598469,0.08444518696669712
10.62174,7.643228322865334,0.08425170133816376
10.62414,7.631034414505336,0.08406339900933321
10.626528,7.626709139504148,0.08382042319541949
10.628908,7.619450598196763,0.08359614016450498
10.631303999999998,7.611912517635658,0.08338426149334466
