Time,Force,Position
9.893536,0.12859744313210691,0.0
9.895924,0.1297609261173625,0.0
9.898308,0.12740560991507952,0.0
9.900704,0.121185861846823,0.0
9.903088,0.11603704896520506,0.0
9.905468,0.10781520015053171,0.0
9.90786,0.09759125058944153,0.0
9.910248,0.08736730102835133,0.0
9.912628,0.07793474740017926,0.0
9.915024,0.0686419633988674,0.0
9.917412,0.059349179397555525,0.0
9.919792,0.046983359463188275,0.0
9.922188,0.03447776990196081,0.0
9.924576,0.0239742810871502,0.0
9.926972,0.014681497085838331,0.0
9.929368,0.007251044204083104,0.0
9.931756,0.0038247928151615776,0.0
9.934136,0.005621030510003733,0.0
9.936532,0.006206563391347145,0.0
9.93892,0.006206563391347146,0.0
9.9413,0.004689864950225412,0.0
9.943704,0.002381770576185568,0.0
9.946088,0.005248943457666253,0.0
9.948472,0.01011821708556379,0.0
9.950868,0.013916555526822794,0.0
9.953252,0.015712793221664946,0.0
9.955632,0.01643809572986857,0.0
9.958036,0.017954794170990305,0.0
9.960424,0.02133382373166868,0.0
9.962804,0.02257098291906999,0.0
9.9652,0.02257098291906999,0.0
9.967588,0.0238081421064713,0.0
9.969968,0.0238081421064713,0.0
9.972364,0.023974366107234083,0.0
9.974752,0.024931986040914973,0.0
9.977148,0.02710031078809461,0.0
9.979544,0.033272837028107946,0.0
9.981928,0.040582391879474294,0.0
9.984312,0.05017358673097792,0.0
9.986708,0.06035031446382496,0.0
9.989096,0.06745400626361661,0.0
9.991476,0.0716244317572131,0.0
9.993872,0.0721362884364108,0.0
9.99626,0.06850417399591457,0.0
9.99864,0.06473228992855813,0.0
10.001036,0.06296250660761855,0.0
10.003424,0.06226365847331749,0.0
10.00582,0.060746960032195756,0.0
10.008216,0.057367930471517385,0.0
10.010604,0.05613077128411608,0.0
10.012984,0.05613077128411608,0.0
10.015388,0.05489361209671476,0.0
10.017776,0.05489361209671476,0.0
10.020156,0.05472738809595198,0.0
10.022556,0.05376976816227109,0.0
10.024944,0.051601443415091465,0.0
10.027324,0.045428917175078125,0.0
10.02972,0.03632312462886962,0.0
10.032108,0.026146396896022578,0.0
10.034488,0.01596966916317554,0.0
10.036884,0.00886597736338389,0.0
10.039272,0.004695551869787402,0.0
10.041656,0.0013165223091090286,0.0
10.044052,7.93631217077157e-05,0.0
10.04644,5.2908747805143806e-05,0.0
10.04882,2.6454373902571903e-05,0.0
10.051216,0.0,0.0
10.053608,0.0,0.0
10.055988,0.0,0.0
10.058388,0.004310195120456695,0.0
10.060772,0.01062249098733024,0.0
10.063156,0.019356196481201265,0.0
10.065552,0.030231772348349353,0.0
10.06794,0.036963377095803523,0.0
10.070324,0.04155311146998065,0.0
10.07272,0.045071910657519226,0.0
10.075108,0.05073258021833488,0.0
10.077492,0.05732441533892885,0.0
10.079888,0.06419578971324323,0.0
10.082276,0.07213809927419615,0.0
10.084656,0.07686760327523348,0.0
10.087052,0.08373897764954785,0.0
10.08944,0.08888779053116581,0.0
10.091824,0.09375706415906335,0.0
10.09422,0.09862633778696088,0.0
10.096608,0.10456654660149695,0.0
10.098988,0.11050675541603301,0.0
10.101388,0.11737812979034742,0.0
10.103776,0.12532043935130033,0.0
10.106172,0.12522789155268327,0.0
10.108572,0.1189155956858097,0.0
10.11096,0.11018189019193868,0.0
10.11334,0.09930631432479059,0.0
10.115736,0.09257470957733643,0.0
10.118124,0.09127145696522063,0.0
10.120504,0.09518311065943727,0.0
10.122904,0.09467125398023957,0.0
10.125292,0.0901551958082082,0.0
10.127672,0.0862907639422347,0.0
10.130068,0.08228656244940101,0.0
10.132456,0.08363703688975996,0.0
10.134836,0.08098330983728522,0.0
10.137232,0.07991237465064667,0.0
10.13962,0.07618771241153338,0.0
10.142004,0.07525654685175509,0.0
10.1444,0.07339421573219844,0.0
10.146784,0.07232328054555989,0.0
10.149168,0.06925024461250451,0.0
10.151564,0.06217300718661543,0.0
10.153952,0.05947205830589754,0.0
10.156348,0.06364248379949401,0.0
10.15874,0.06874407485286883,0.0
10.161128,0.07305426997332552,0.0
10.163512,0.07629352990714368,0.0
10.165908,0.07410443770562347,0.0
10.168296,0.06667398482386826,0.0
10.170676,0.06152517194225029,0.0
10.17308,0.05944939499368771,0.0
10.175468,0.056442452485346815,0.0
10.177848,0.0525043444172276,0.0
10.180244,0.04642436597583132,0.0
10.182632,0.042206718653991684,0.0
10.185012,0.038128840959012256,0.0
10.18742,0.036984229570228004,0.0
10.189804,0.03304612150210879,0.0
10.192188,0.02896824380712936,0.0
10.19458,0.024098970179231828,0.0
10.196968,0.02030063173797282,0.0
10.199352,0.01943555960290899,0.0
10.201748,0.01791886116178726,0.0
10.20414,0.013748435668190772,0.0
10.20652,0.008646844614815965,0.0
10.20892,0.0043366494943592685,0.0
10.211308,0.0010973895605411034,0.0
10.213688,0.0,0.0
10.216088,0.0,0.0
10.218476,0.0,0.0
10.220856,0.0,0.0
10.22326,0.0,0.0
10.225648,0.0,0.0
10.228028,0.0,0.0
10.230432,0.0,0.0
10.23282,0.0,0.0
10.2352,0.0,0.0
10.237596,0.0,0.0
10.239988,0.0,0.0
10.242368,0.0,0.0
10.244764,0.0,0.0
10.247152,0.009795161391163352,0.0
10.249536,0.03685936782179567,0.0
10.251932,0.08231077630677863,0.010257035512120444
10.25432,0.1408891545694059,0.019660107635563844
10.256704,0.20966123630348227,0.028827293870018735
10.2591,0.29309585785279607,0.03766228064208868
10.261488,0.3911457973891041,0.04641328035542572
10.263868,0.5080947956589604,0.054801751634571134
10.266268,0.6436179874382708,0.06277640083200649
10.268656,0.7859823075022544,0.07092813122086322
10.271036,0.9354200732763888,0.0792998951929224
10.27344,1.1029655018511533,0.08747740471224341
10.275828,1.2853132398680154,0.09556685481793026
10.278208,1.4838609835955772,0.10343898893646383
10.280604,1.6885982293017545,0.1114351388867868
10.282992,1.9004089207180823,0.11959172368875652
10.285372,2.1288370308678215,0.12769624435494292
10.287776,2.380634931952766,0.1354821835269833
10.290164,2.648307973524316,0.14304784254029673
10.292544,2.917424037334842,0.15060857678138112
10.29494,3.1695751545296984,0.15829501457420467
10.297328,3.4051560748193874,0.16592847145268674
10.299708,3.624771202681723,0.1632262235757748
10.302112,3.832470065579913,0.16133914100386115
10.3045,4.030766620939572,0.15968043150788488
10.30688,4.212678074991297,0.15837939441370652
10.30928,4.3777397928841335,0.15717488744984806
10.311668,4.517943371632414,0.15642042297655104
10.314048,4.6338459938857115,0.156207169904778
10.316444,4.743838653414113,0.15579704556799234
10.318828,4.8555576661509505,0.15496335527759214
10.321212,4.9473066849676,0.1543608366441122
10.323608,5.028117826208126,0.15376258844023732
10.325996,5.093240818417149,0.1533950239398058
10.328376,5.1597634027526444,0.15275304265168704
10.330772,5.224939304363521,0.15184077860781262
10.33316,5.273265469815506,0.1509477209386154
10.33554,5.295056260600614,0.1503990562933245
10.337944,5.299109579779561,0.15010383840276473
10.340332,5.30144033746581,0.14983362208679124
10.342712,5.315596708175458,0.1493552021480759
10.345108,5.324677942205632,0.1489921863923475
10.347496,5.330825909929612,0.14869442734694685
10.349876,5.335995490265571,0.14846895572052796
10.352272,5.339535056907451,0.14831147618714574
10.35466,5.346379976907862,0.148114740286532
10.35704,5.355738854333888,0.14788539143864138
10.35944,5.368403085118446,0.14760933419376981
10.361824,5.386514539634816,0.14722619742245244
10.364204,5.407791577882858,0.14681816640504478
10.366604,5.422131148331869,0.14658030404234804
10.368988,5.438892128407878,0.14626598092311685
10.371368,5.4475521576996035,0.1460886768329726
10.373768,5.4509047328863796,0.14599394536525614
10.376156,5.441033998781156,0.1462123785348526
10.378552,5.423154861690265,0.1466098899739618
10.380948,5.407929451651849,0.14696044823681062
10.38334,5.394798690158466,0.1473142751300528
10.38572,5.38790654832981,0.14756455731711965
10.388116,5.388323961352522,0.14768485183432806
10.390508,5.387018812882537,0.14782670101027595
10.392888,5.393442528144497,0.14781704961630845
10.395284,5.394651337100128,0.14793053571736384
10.397672,5.395488059003419,0.1480205914066336
10.400056,5.400888060906986,0.14798292989623713
10.402452,5.406847141317994,0.1479065058477455
10.40484,5.4142964657962205,0.14777559721304176
10.40722,5.428543488446616,0.14751244663566238
10.409616,5.445723777403206,0.14719264384443892
10.412004,5.459319173747544,0.14693056783651298
10.414388,5.470260843039406,0.14670763225213881
10.416784,5.478129476398213,0.1465512742610218
10.419172,5.488092758302054,0.14639196604546545
10.421552,5.508019322109736,0.1460724252295774
10.423948,5.539027324836141,0.14550969640063813
10.426336,5.576600708309238,0.1447835910073573
10.428732,5.610309659916361,0.14413860894661357
10.431128,5.642296050030787,0.1435077131695043
10.433516,5.665762180480348,0.14303403924276062
10.435896,5.683269230518902,0.14264600751139875
10.4383,5.6984020927587,0.14228180501500765
10.440688,5.707947961639831,0.14201389274763782
10.443068,5.723080823879631,0.1416455966395248
10.445472,5.740867413171905,0.14124143086991697
10.44786,5.755860505784845,0.14088985288210043
10.450244,5.767408475412392,0.14058313059352728
10.45264,5.773322229853024,0.14041971010039087
10.455028,5.7729501428006875,0.14039705198685937
10.457412,5.7747199261216275,0.14032595289264038
10.459808,5.7793304279501445,0.1401610769449336
10.462196,5.7862225697788,0.1399396473986079
10.464576,5.794837273100151,0.13969625665009622
10.46698,5.808806652354695,0.13933337268725715
10.469368,5.818819051944649,0.13900310295673807
10.471748,5.822220744817536,0.13873586630257823
10.474144,5.81710217802556,0.1386048741707682
10.476532,5.81235569828592,0.1384957776844518
10.478912,5.815058543024507,0.13827395047082694
10.481308,5.824978394815844,0.13790684704072403
10.483696,5.832384289181565,0.13756417143134547
10.48608,5.839231105039847,0.13725861199925934
10.488476,5.845611390189306,0.13702686927841207
10.490864,5.857718438324292,0.13670443903278456
10.493248,5.87066410422044,0.13633346574878002
10.495644,5.884448387877752,0.13591247603373097
10.498036,5.898604758587398,0.1355118719950956
10.500416,5.919419057842354,0.135004665698612
10.502812,5.943306393030364,0.1344356678004774
10.5052,5.958813238180372,0.13399313975097346
10.507584,5.969664255531486,0.1336221908184237
10.509984,5.979025028815381,0.13330201877664216
10.512368,5.992901860271308,0.1329264786349374
10.514752,6.003426116540461,0.13262869047867823
10.517148,6.011017106503415,0.13237903561381587
10.519532,6.0207027450114055,0.1321342369846721
10.521916,6.039280730236599,0.13178579398915158
10.524312,6.0638650177010405,0.13133791374756065
10.526696,6.084212786247174,0.1309348970872254
10.52908,6.100835892554193,0.13058547842314044
10.531476,6.121043891473465,0.13019643309877948
10.533864,6.14046049445982,0.12981066751096024
10.536244,6.166210160767387,0.1292612803223026
10.538643999999998,6.185860977037087,0.12878015031354503
10.541028,6.197363620694259,0.12843782202630774
10.543408,6.2048148410303545,0.1282080416157172
10.5458,6.214128392486007,0.12795393116768258
10.548188,6.219857051329406,0.1277410164690449
10.550567999999998,6.2249340838667475,0.12752400191644903
10.552964,6.2354583401358985,0.12724227877058156
10.555352,6.2488686408830025,0.12696328947371954
10.557731999999998,6.262418711256966,0.12667613172391726
10.560144,6.2703817882722594,0.12646207880867774
10.562532,6.277833008608355,0.12623450261481176
10.564912,6.286075624877369,0.1260019867184768
10.567315999999998,6.29646011151966,0.12573131853249428
10.5697,6.301397374430141,0.12552532726920246
10.572084,6.296883212115978,0.12544471099349344
10.57448,6.2899476401748196,0.1254206039704865
10.576864,6.286736730472773,0.12534962570461503
10.579244,6.280173245583951,0.12534634395393066
10.58164,6.280407458867298,0.12524657161932395
10.584028,6.277661184016205,0.1252344809749259
10.586408,6.273145125844175,0.12528251142424546
10.588804,6.27635793140409,0.12522413090981951
10.591192,6.283994247337419,0.12507960027126325
10.593571999999998,6.2919101025244695,0.12491976366915802
10.595968,6.2995464184578,0.1247754940672465
10.598356,6.307834360697187,0.12463687972709168
10.600736,6.315470676630517,0.12449450768983344
10.603148,6.321803739951731,0.12434265183308887
10.605536,6.3299991343925015,0.1241697900676986
10.607931999999998,6.3391256943930525,0.12398470421082136
10.610328,6.348903880699659,0.12380460304083384
10.612711999999998,6.362686268499099,0.12356576424582072
10.615092,6.373535389992344,0.12336979936665637
10.617487999999998,6.383173806672092,0.12319939890841193
10.619872,6.397328281523869,0.12297985266799057
10.622267999999998,6.414695561935563,0.1227023534081939
10.624664,6.428058640854422,0.12248697676622763
10.627047999999998,6.441049632720946,0.12224857590496731
10.629428,6.443378494549327,0.12215671792189554
10.631832,6.444404103765591,0.12205450872445607
10.63422,6.447199496302796,0.12189192330418978
10.6366,6.4465497658546065,0.12175791346694523
10.638991999999998,6.443106538727084,0.12165681721917138
10.641379999999998,6.441525642719117,0.12153459459407359
10.64376,6.444508026711424,0.12132269206722758
10.646164,6.447909719584312,0.12108802027013224
10.648547999999998,6.447307210964368,0.12091066319972206
10.650928,6.446704702344422,0.12073343040297982
10.653332,6.441306596298725,0.12061627664548003
10.65572,6.439540604693523,0.12042053241375669
10.6581,6.441127188275098,0.12016362328760313
10.6605,6.440060044804197,0.11993067924599665
10.662888,6.438341275027239,0.11969204943024991
10.665271999999998,6.442256720437194,0.11934989098146344
10.667668,6.446451705100869,0.11899248298224648
10.670056,6.4517176249511845,0.11861994078837342
10.672436,6.456331918495441,0.11824024965096297
10.67484,6.46481064390567,0.11781442329493078
10.677224,6.4800870674880695,0.11730234494212256
10.679607999999998,6.498436527003523,0.11674825257087634
10.682012,6.519579483198312,0.11616821708088941
10.684396,6.543515936072436,0.1155628072743756
10.686775999999998,6.568383554506336,0.11494826334766894
10.68918,6.584591143648513,0.11443259143388285
10.691568,6.594512891297719,0.11401373357413577
10.693948,6.604294869320065,0.11360498086933216
10.696352,6.62129385439516,0.11309492408880109
10.69874,6.637361673910476,0.112594404122854
10.70112,6.656502529358848,0.11204838812619226
10.703516,6.673082205553362,0.11156309048753794
10.705904,6.686728615441681,0.11111713391947242
10.708284,6.697162219770084,0.11071925833787197
10.71068,6.705965810404408,0.11036644278986672
10.713064,6.709274955478679,0.11010552588985323
10.715448,6.715657136486006,0.10980489083920197
10.71784,6.720176986373775,0.10952351810107129
10.720228,6.727490332940879,0.10921602998018706
10.722604,6.73280157876157,0.10893489678466807
10.725012,6.735319327902921,0.10868023837437522
10.727396,6.73476404111122,0.10846638528119582
10.729776,6.730204552826684,0.10830081407965673
10.732167999999998,6.721361323795594,0.10819788046808108
10.734556,6.711447159577864,0.10811034775509744
10.736952,6.711403729465359,0.10790981202236169
10.739348,6.717366601592106,0.10763761776692399
10.741736,6.720396207412656,0.10739753439489062
10.74412,6.715137870993819,0.10726758250653354
10.746516,6.7106709305078995,0.10713652709769834
10.7489,6.70727492520862,0.10699005772305804
10.75128,6.702807984722701,0.10685887418866455
10.75368,6.695779864982923,0.10678040802948374
10.756064,6.694618277855536,0.10663822510740929
10.758448,6.697880201101564,0.10642687636942662
10.760848,6.706077491400204,0.10616087296645717
10.763236,6.7127845376316255,0.10593462947961269
10.765619999999998,6.715999239049411,0.10576764725963378
10.768016,6.717072070093917,0.10563126715740781
10.7704,6.719867462631123,0.10548683027157273
10.772783999999998,6.724245647034162,0.10534119123396782
10.77518,6.730206623303039,0.1051944167110715
10.777568,6.740963196997668,0.10500198801350316
10.779964,6.75572397218513,0.10476393393592857
10.78236,6.7734180136787865,0.1044965302769531
10.784748,6.785757379239251,0.10430549985157217
10.787128,6.797025809613078,0.10413182216553074
10.789524,6.812018902226017,0.1039285457829155
10.791912,6.831947361891569,0.10367204770509458
10.794296,6.854809087863315,0.10338857826743773
10.7967,6.879253605700898,0.10310807583924245
10.799088,6.906771159471536,0.10279292621937011
10.801468,6.9365703532423115,0.10244023922465562
10.803864,6.961294410333616,0.10214635442995251
10.806252,6.984807762611421,0.10187676109500927
10.808632,7.0044566830232515,0.10164470902807615
10.811028,7.020520710822829,0.10143447561789472
10.813416,7.041799644928739,0.10116038294783508
10.815796,7.064009744594427,0.10087853559138094
10.818192,7.083426347580782,0.10061922824485373
10.82058,7.099258057954882,0.10038073738942777
10.822959999999998,7.113227437209426,0.10015653518802307
10.82536,7.124403319784636,0.09995550386825398
10.827744,7.130783604934093,0.0997963598787162
10.830123999999998,7.137303659710411,0.0996319391287188
10.832524,7.147176289673504,0.09942005822400911
10.834908,7.152765178890044,0.09926298516502562
10.837304,7.156491736987026,0.09912023857036316
10.839704,7.160358064710868,0.09897136005720548
10.842092,7.161430895755376,0.09884340653783574
10.844472,7.155706028627715,0.09877545563490538
10.846868,7.149841391873194,0.09871421432273109
10.849256,7.145047690305311,0.09863967375994015
10.85164,7.1443979598571214,0.09851903283473086
10.854036,7.143748229408933,0.09839872683288554
10.856424,7.144960830080302,0.09826556734977214
10.858808,7.148035761871226,0.09811919793412366
10.8612,7.1481774273559555,0.09799908781261261
10.863588,7.1507405024676824,0.0978402842194043
10.865968,7.154374512766049,0.09766847935416548
10.868364,7.163875055676805,0.0974459851598251
10.870752,7.174726073027919,0.09719742007512083
10.873148,7.183574989632617,0.09696765550714592
10.875543999999998,7.198709747730286,0.09666805330110155
10.877932,7.210771469894899,0.0964014876161409
10.880312,7.215755954633624,0.09620379803075942
10.882708,7.222370453066428,0.09596589502715266
10.885096,7.2301956563127305,0.09570937013754806
10.88748,7.236018758812616,0.09547214045489931
10.889876,7.238768825379448,0.09526585709267422
10.892264,7.247525194185529,0.09500184320206012
10.894644,7.251765504819578,0.09476216656161235
10.89704,7.254143484334071,0.09453515034987944
10.899428,7.253727967169229,0.09432701593361527
10.901808,7.249867327018993,0.0941296108975429
10.904208,7.245355060562701,0.09392526891291818
10.906592,7.241122333360127,0.09370773409208383
10.908972,7.238100310971053,0.09347080887442404
10.911372,7.233727814141622,0.09326034916763641
10.913756,7.22842415175241,0.09305551181647793
10.91614,7.219395827124087,0.09287413101575785
10.91854,7.210227732868901,0.09269902321594928
10.920928,7.204924070479691,0.09249451256076152
10.923312,7.199340868836759,0.09230409819368544
10.925708,7.195619998313385,0.0921026339327226
10.928092,7.202980566708732,0.0918029081934171
10.930471999999998,7.213134631783414,0.09148812448890736
10.932864,7.22235753129832,0.0911800367155088
10.935251999999998,7.235864171559778,0.09082735477201535
10.937628,7.253375013314071,0.09044017201787177
10.940024,7.270513768016025,0.09003660179749766
10.942408,7.289375084210676,0.0896271053540171
10.944788,7.310098731524885,0.08920823078275378
10.947184,7.331893314025732,0.0887785173088234
10.949568,7.359135120258388,0.08832583283518808
10.951947999999998,7.382372724998211,0.08790450682591065
10.954344,7.4023975241781175,0.08751632681803724
10.956727999999998,7.4210718489176655,0.08715238772041892
10.959104,7.43616128104496,0.08680198049404834
10.9615,7.450040008358757,0.08646817033467102
10.963888,7.461637095672415,0.0861622853940359
10.966264,7.474025578918993,0.08585865105611676
10.968676,7.481618464739817,0.08558678898663034
10.971063999999998,7.482273882761615,0.08536939186138241
10.973444,7.483348609663991,0.08513373234693512
10.975856,7.475483768020922,0.08496850252834418
10.97824,7.4625437896983815,0.0848462755856601
10.980619999999998,7.4481135673086225,0.08475394320631194
10.983031999999998,7.429259834545447,0.08471175269644735
10.98542,7.408404001035855,0.0846849251721629
10.9878,7.384707449018686,0.08471061625424538
10.990212,7.364875328867489,0.08471035852234843
10.992596,7.341970172783238,0.08473641542265908
10.994976,7.31678337669885,0.08479037548306104
10.997392,7.2858698176289325,0.08487783448622437
